time,emg1,emg2,emg3,emg4,emg5,emg6,emg7,emg8,hand,pose,orientation,testPerson
0,-3,9,-18,-15,13,6,5,13,1,1,100,BueBaby!
5,-10,-17,5,-3,-12,-1,-1,-9
10,-3,26,5,-1,1,8,5,15
15,10,-7,6,8,14,-1,-4,-11
20,-1,-2,7,-1,-19,-5,1,-4
25,-1,7,9,10,-2,-7,-2,10
30,-2,25,-3,-19,2,15,6,-6
35,-7,-18,-3,-1,-7,-13,-3,10
40,14,33,5,1,30,11,2,-8
45,-11,-21,12,1,3,-2,-3,6
50,7,8,-19,13,-7,-9,-5,1
55,-24,0,-10,10,8,0,0,-16
60,-4,-6,-19,-18,-31,-7,-5,-8
65,5,8,13,-5,16,-3,0,-10
70,12,18,14,-12,-5,13,3,9
75,0,-10,-3,5,-2,0,2,13
80,-11,-8,-7,11,-5,-7,0,-4
85,-8,5,-24,-5,-16,-4,-3,6
90,4,22,20,5,9,1,0,-2
95,5,-54,-23,3,12,10,1,-1
100,-12,22,-5,13,3,0,0,9
105,35,33,40,-24,27,10,1,-10
110,-7,-7,-14,3,-20,-2,0,-2
115,-5,-36,26,-8,18,3,0,10
120,-12,-40,-5,3,-17,-6,0,8
125,22,-9,-14,-9,11,8,-3,-12
130,-8,15,2,0,-10,-6,-2,3
135,1,0,-8,8,0,-2,1,-2
140,-20,3,13,-20,-14,3,2,23
145,12,18,12,26,25,-11,4,-1
150,-5,-31,2,-34,13,25,2,-15
155,-9,-29,6,11,0,-6,-3,3
160,-2,-4,3,15,4,-6,-3,-6
165,-24,38,-12,-11,-20,8,2,8
170,23,-35,1,-1,-6,-7,1,-15
175,-9,-12,-3,-11,-7,-6,-2,-2
180,15,15,-32,0,-1,2,-2,2
185,-2,-57,-3,10,-3,-10,-5,7
190,-18,4,-9,9,30,2,5,7
195,32,17,18,-15,-18,5,-6,-15
200,13,-12,16,-4,-2,4,5,14
205,-9,56,13,-4,-28,-9,-10,-24
210,-10,-50,-14,6,8,-3,-1,8
215,-6,10,-3,-1,-16,-11,-3,8
220,7,0,14,-19,-7,8,1,-11
225,-2,-18,0,17,8,-7,0,9
230,-3,-29,-5,-22,-12,2,-5,-3
235,-3,-16,-44,-1,10,2,3,15
240,-21,-16,9,0,12,-2,-3,-22
245,-8,-9,28,-5,-13,5,-2,-6
250,18,40,1,31,17,-16,-8,0
255,3,8,-9,-19,8,13,7,22
260,18,26,-8,-2,0,11,-2,-14
265,-9,17,6,-6,10,0,2,1
270,-3,25,4,13,-26,-5,-4,-9
275,-26,-42,-4,0,-1,-11,-6,-10
280,-5,-3,-38,24,30,8,8,7
285,19,2,-6,-18,-8,12,2,7
290,0,58,23,-2,-6,4,4,14
295,10,44,24,8,7,-1,2,8
300,5,4,-5,7,-36,-20,-11,-32
305,-2,-55,-30,-16,23,9,2,16
310,-13,-45,13,-16,-34,-3,1,1
315,-9,1,4,10,4,-4,-1,-23
320,15,37,14,11,8,0,-2,-1
325,-1,-4,-1,8,34,-8,-4,3
330,11,-10,-10,-9,-22,4,5,13
335,-8,49,18,-4,-20,3,3,4
340,3,-16,8,15,43,-9,-10,-7
345,-30,-5,21,-14,-35,-1,3,2
350,11,-36,-46,-9,11,3,-3,-9
355,-9,66,1,10,13,1,1,-7
360,-6,-65,0,-16,-14,-1,-1,1
365,1,-30,-28,11,2,-5,-3,0
370,5,23,6,4,12,-6,0,7
375,7,-74,-20,-13,-7,11,-2,-2
380,-6,37,-2,0,-8,-5,-2,9
385,5,39,14,0,11,0,-4,-12
390,3,7,11,18,24,-8,2,7
395,-13,-41,-11,-26,-20,8,3,1
400,10,76,-12,-8,17,1,-4,-6
405,-4,-22,4,-12,-42,-6,-1,-13
410,4,-26,-8,7,3,-9,-13,-19
415,-6,-30,19,18,13,-1,9,17
420,-6,-35,-25,-8,0,6,4,2
425,17,26,2,-9,5,4,1,6
430,-30,11,0,-3,-15,-2,-5,-5
435,29,29,4,10,1,-13,-3,-1
440,-23,-51,4,-13,-7,-2,-3,0
445,3,12,-7,13,15,10,3,-21
450,-7,-9,19,1,-8,4,3,3
455,-14,-50,-10,-19,1,-2,-8,-18
460,-5,14,-5,2,-28,-13,-2,7
465,12,-16,-8,21,11,-7,-1,11
470,-6,-22,-14,-11,9,23,7,-3
475,25,69,8,7,9,3,-1,0
480,-1,6,20,3,-3,-6,-3,3
485,-5,10,-10,-13,-10,-5,-4,-1
490,-7,19,9,14,16,-6,-1,9
495,-10,-10,-44,-3,-23,0,5,22
500,13,46,-3,-2,27,11,-2,-39
505,-8,-71,5,-5,-19,-1,-2,11
510,14,56,19,6,-9,-11,-2,-4
515,-2,-35,14,-7,1,2,-5,-5
520,-19,6,13,6,-7,-3,1,9
525,18,5,-5,-1,-2,-6,1,6
530,-5,-7,-15,-2,2,5,-2,-7
535,-4,5,29,-19,2,-1,-6,-13
540,0,12,-3,3,-1,5,6,7
545,-14,2,9,-5,12,3,-2,-7
550,8,-11,-4,0,-3,-6,-1,14
555,-9,16,2,15,2,-8,-1,1
560,10,-5,-6,-12,-29,-6,-5,-9
565,-5,30,-2,9,36,8,4,-7
570,18,37,8,0,-9,-6,-2,-2
575,-9,-23,-30,-2,-5,-2,-2,-1
580,9,-16,14,3,19,5,7,22
585,-7,5,-10,1,-19,-6,-1,-2
590,2,24,-12,-4,-3,1,-2,-11
595,14,-23,5,8,20,3,2,-3
600,-10,-6,7,-3,-16,-2,-2,-4
605,6,21,16,3,6,1,-2,-8
610,-9,-7,-5,-1,7,-2,1,0
615,10,10,3,-7,-25,-2,1,3
620,-12,-34,-8,-4,11,-7,-5,-4
625,-4,18,1,-8,-21,0,0,3
630,-6,-28,-5,4,10,-3,-3,0
635,5,10,-8,4,1,-1,-3,6
640,12,26,8,-5,-6,7,3,-13
645,-5,-23,-6,5,5,-7,-5,-5
650,-6,-2,5,-3,-19,-2,0,2
655,-8,1,11,-1,32,4,1,-2
660,6,-7,-53,-9,-14,-3,2,9
665,-5,-8,16,-5,20,4,-4,-9
670,-4,-17,-9,-5,-30,-2,1,-1
675,-8,27,15,23,22,-10,-5,-3
680,6,-3,8,-10,-11,7,3,3
685,3,45,2,-3,-19,-6,0,-1
690,-5,-18,-18,-8,26,5,-3,-4
695,3,25,7,-1,-3,-2,0,-4
700,-16,-91,3,-1,-6,-6,-4,2
705,-3,15,-12,-9,-36,-5,-1,4
710,6,36,9,2,20,-2,-2,2
715,19,-11,-8,-1,8,1,3,6
720,-17,37,7,3,6,3,-1,-11
725,-5,-27,0,7,-12,-6,-5,3
730,15,-27,-29,-9,0,-1,5,18
735,-11,19,-13,-2,-9,-6,-5,-8
740,9,-6,-22,3,0,1,-3,-4
745,-9,16,0,9,7,-1,0,-2
750,15,12,9,-12,12,11,-1,-13
755,-5,-14,-8,2,2,4,4,9
760,-4,18,28,-7,1,4,1,7
765,-6,-12,-9,0,3,-5,0,17
770,-8,-8,-19,13,6,0,1,-8
775,4,-6,10,-1,-18,2,0,-8
780,-1,10,2,-2,3,-4,-1,6
785,1,14,5,-5,9,2,0,4
790,-20,-56,15,-1,-20,-6,-1,5
795,17,63,2,5,6,2,-2,-10
800,-4,-10,-11,3,-10,-7,-4,-4
805,1,-42,-5,-9,13,5,0,5
810,-3,36,5,5,-21,-7,-2,0
815,-8,-7,13,-2,6,-1,3,9
820,4,-6,3,6,21,9,1,-11
825,10,5,-15,-5,-24,-3,0,7
830,-11,9,7,-9,-17,2,-3,-12
835,-4,-37,-10,5,2,-9,-8,-6
840,-3,69,6,-8,-6,0,4,14
845,4,-23,-6,7,16,-1,0,-10
850,10,-9,-8,-1,-12,-4,-4,1
855,1,8,-2,-8,-2,6,3,0
860,-13,-36,5,16,15,-3,-2,0
865,11,29,-8,-5,-9,5,0,-4
870,-16,9,7,3,15,-4,-4,4
875,17,-8,2,-9,-20,0,0,-3
880,0,8,1,-3,-2,-3,-1,0
885,1,1,11,2,-5,-4,-5,-6
890,3,-1,-10,2,14,4,4,11
895,-16,-12,0,3,1,0,-4,-12
900,0,-11,-7,4,-12,-4,-1,5
905,0,2,-2,-9,10,7,2,-4
910,6,-10,2,-2,-11,-7,-2,2
915,-19,-9,6,-7,-5,2,-2,-12
920,17,2,1,15,11,-3,-3,-12
925,-8,8,-8,-15,-8,-5,0,-1
930,6,4,7,5,13,7,-1,-7
935,-5,-3,8,-7,-2,-4,-3,1
940,0,-9,-12,-10,-6,4,3,5
945,4,-29,2,2,13,2,-1,-1
950,0,32,9,-3,-17,-3,-1,-2
955,12,4,-6,1,5,-6,-4,-8
960,-12,-35,6,0,-10,-3,0,7
965,-5,2,-6,-2,-5,-2,-4,-1
970,-3,-27,-15,2,24,2,0,-5
975,3,-9,6,8,-5,1,2,6
980,7,3,7,-17,-14,-3,-3,-1
985,-10,-24,-17,2,-5,-2,-3,-14
990,-2,11,11,1,2,0,-1,-6
995,-16,-13,-14,2,-9,-2,0,6
1000,15,24,1,3,-2,0,3,9
1005,3,18,-1,4,8,-2,-1,-6
1010,-4,5,1,-11,-2,6,2,-4
1015,6,-25,-4,-5,-5,-2,-1,3
1020,-8,-4,17,3,14,-2,0,6
1025,-13,38,10,4,10,3,1,0
1030,-9,-9,-13,-3,-20,-5,0,-4
1035,-8,-8,7,5,1,-3,-5,-10
1040,4,-10,-8,-10,-14,4,0,4
1045,-2,-30,-6,5,-13,0,6,10
1050,11,3,-9,0,24,-1,-3,-8
1055,-12,33,-8,0,-23,-1,4,11
1060,-4,9,13,1,6,1,-3,-12
1065,-3,0,0,-5,-12,-4,-4,0
1070,9,10,6,7,10,-4,0,-8
1075,16,10,6,-4,-16,3,0,1
1080,-7,-40,-25,-4,26,4,4,7
1085,3,41,9,1,-5,0,-2,2
1090,2,-27,-1,-1,-3,-3,2,22
1095,-17,9,-2,2,10,-6,-9,-25
1100,21,24,6,-8,-8,-4,1,-4
1105,-1,-46,-7,3,-2,4,1,2
1110,-9,6,-5,-3,-2,-3,-3,0
1115,0,0,-5,-6,3,-2,-1,-6
1120,-16,-24,-11,3,-10,-2,-2,4
1125,7,-2,-2,0,1,-3,-2,-3
1130,9,7,-4,10,2,0,2,7
1135,-5,-12,-5,-7,11,9,5,6
1140,10,36,4,2,-10,-1,-5,-5
1145,0,-1,6,-3,9,-1,4,14
1150,3,-11,-2,-1,-7,-1,-5,-12
1155,-13,5,-6,2,9,-3,-5,-14
1160,-8,24,16,5,1,-8,-4,1
1165,10,-8,-3,-5,7,0,-2,-5
1170,-6,7,9,-13,-1,0,-1,-2
1175,0,-10,-6,0,0,2,-2,6
1180,7,-12,9,-5,-3,9,4,11
1185,-12,-5,-15,-9,-14,-6,-2,-22
1190,-15,-2,0,9,6,-5,-6,-11
1195,15,-3,7,-16,-17,2,-2,0
1200,-5,-22,-10,5,-6,-7,-7,-11
1205,-4,3,9,3,35,7,4,9
1210,12,36,1,1,-8,5,1,0
1215,-5,-49,-4,2,6,-1,5,8
1220,-15,14,-13,-1,-8,-2,-1,-11
1225,-3,1,4,-2,-5,-4,-2,-4
1230,-13,18,-6,-5,-18,3,-1,-1
1235,23,8,-4,7,32,4,6,18
1240,-2,4,3,2,4,-4,-4,3
1245,6,-43,-3,0,-11,2,-1,-8
1250,-4,8,26,0,13,3,1,4
1255,-2,-13,-7,-11,-17,-2,-2,2
1260,-7,-11,-3,2,11,1,1,6
1265,6,24,-3,-1,4,2,-1,0
1270,8,-4,-6,0,-15,-2,-2,-5
1275,-4,12,2,11,-2,0,3,-2
1280,19,-43,1,-16,23,7,0,5
1285,-17,-3,-8,2,-12,-6,-3,-15
1290,-8,-20,18,-4,-2,-5,-3,-6
1295,-8,19,-2,13,-3,-6,-3,0
1300,-24,-15,-10,-18,-5,-1,-3,-11
1305,18,-2,14,-2,2,-3,-3,-2
1310,1,-23,-32,-1,16,-4,-3,3
1315,-4,-1,13,-5,-8,2,-1,-9
1320,4,10,1,0,-11,0,4,11
1325,-18,-3,0,0,2,1,1,1
1330,1,-2,6,4,-6,1,-1,-2
1335,2,-22,-6,-9,7,-1,-4,-9
1340,15,19,-2,7,-5,-2,0,8
1345,5,15,1,-4,4,4,5,2
1350,-9,-32,-26,7,-16,-7,-2,1
1355,-4,-17,-8,3,17,9,0,2
1360,-10,0,12,-2,13,-3,2,4
1365,6,20,-2,-10,-30,-6,-4,3
1370,-2,-1,2,0,-4,-4,-6,-26
1375,-1,21,8,1,7,0,-2,2
1380,7,-7,-25,10,-10,-4,-6,-7
1385,0,13,-1,1,-10,-3,2,14
1390,7,-4,4,-16,1,1,0,7
1395,-16,-21,3,-8,-21,-7,-9,-22
1400,-6,-33,-15,0,20,3,6,1
1405,12,22,11,2,-7,-1,-6,0
1410,8,20,-5,-1,0,3,4,10
1415,-13,3,-5,2,-5,-7,-2,-1
1420,13,30,13,-7,3,3,-3,-10
1425,-33,-10,7,3,-4,-4,-2,-12
1430,21,8,12,0,16,9,4,-7
1435,0,2,10,-3,-13,-9,-3,8
1440,-1,19,1,-9,-8,3,0,2
1445,-6,-41,-12,3,28,0,3,19
1450,7,43,14,-2,-12,0,-1,-12
1455,5,-8,1,1,1,-1,-1,2
1460,-11,-10,1,-4,2,0,-7,-16
1465,17,21,16,-1,3,8,2,-8
1470,-13,-2,-5,1,-6,-6,1,16
1475,-13,-17,-31,-3,10,2,-3,-13
1480,1,4,0,3,-22,-8,-2,-6
1485,12,47,2,6,15,0,-1,8
1490,-16,-10,-17,0,5,-4,-6,-7
1495,11,-16,-16,-3,-5,6,9,21
1500,7,7,-3,8,4,2,0,-3
1505,-15,-36,-5,-10,-21,-7,-2,-6
1510,11,31,15,-10,-14,0,4,20
1515,12,25,4,1,18,1,-1,0
1520,-16,15,-12,8,-17,-1,-3,-24
1525,12,-24,-36,-10,16,3,1,0
1530,-20,-25,6,6,-2,-4,-4,-5
1535,6,35,9,-2,-5,2,2,6
1540,9,27,-1,-4,-1,-5,0,-3
1545,7,-23,6,18,7,-4,-4,4
1550,-3,11,15,-20,20,11,-1,4
1555,-8,-23,-19,0,-3,0,-3,-11
1560,-11,8,-6,-9,-18,0,4,5
1565,0,6,1,13,-4,-7,-5,1
1570,5,-12,10,-10,-9,-3,0,4
1575,1,21,22,10,-7,3,1,-6
1580,-3,-53,-15,1,16,-10,-7,-4
1585,-17,2,-17,-12,-3,9,3,3
1590,13,-14,-7,7,-15,-11,-4,-4
1595,-2,18,33,0,10,0,-2,3
1600,-3,-36,-14,6,-2,-4,1,0
1605,-3,8,4,-9,-10,-3,-2,-5
1610,-6,-43,-1,1,-5,-5,-6,-11
1615,2,15,-16,-1,-6,0,2,4
1620,-4,11,19,2,14,1,-3,11
1625,-5,-13,23,-5,-4,-1,-5,-15
1630,-4,22,-24,-2,3,4,3,3
1635,4,1,-14,-8,-17,-3,0,7
1640,-10,3,16,1,-18,-3,-1,5
1645,6,-3,-14,6,20,3,1,-18
1650,-8,13,2,-4,-14,-2,3,1
1655,4,-2,-7,3,17,0,-1,5
1660,-4,21,4,3,17,5,2,3
1665,17,-26,0,-2,-14,0,2,14
1670,3,12,-1,-1,3,-4,-4,-11
1675,-17,-4,-1,3,-5,-4,-1,-1
1680,11,15,9,-21,-19,3,-4,-2
1685,-12,-23,2,11,6,-4,-4,-14
1690,-5,-19,10,-1,1,-1,3,7
1695,2,11,-10,-1,-15,-6,0,8
1700,-9,-23,1,-1,2,3,1,-13
1705,15,50,4,7,9,2,1,10
1710,-11,-44,-13,-10,-24,-2,-7,-14
1715,9,-2,8,-4,7,5,4,5
1720,8,20,11,11,2,-5,-2,2
1725,-23,-1,-10,-3,-5,-2,-2,4
1730,15,-16,-4,6,9,-3,0,-4
1735,-18,9,1,-1,-10,-6,-6,0
1740,18,-8,0,1,12,4,0,-14
1745,-1,-79,2,-4,-6,-5,0,15
1750,-7,28,-18,8,7,1,2,7
1755,-3,-49,7,-3,17,-4,-5,-10
1760,-19,12,10,-11,-16,6,3,2
1765,11,-10,2,4,10,-5,-6,-14
1770,15,37,-2,-6,-7,11,6,6
1775,-1,-61,-13,7,10,-1,1,1
1780,-7,-15,-1,-10,-20,-6,3,12
1785,-9,41,-1,1,-1,-3,-1,-5
1790,-1,-31,8,2,9,4,1,0
1795,2,62,12,7,20,1,0,-14
1800,8,-11,-13,-11,-14,3,-1,2
1805,-2,-8,-10,-4,5,0,-2,-3
1810,-9,25,2,8,15,-4,-1,3
1815,8,46,15,-8,-42,-4,-4,-9
1820,-20,-39,3,10,32,-2,0,7
1825,1,25,5,-6,-18,7,0,-2
1830,31,-15,-2,2,15,2,1,7
1835,-6,7,-25,-6,3,-4,-1,-7
1840,4,33,7,12,-35,-13,-4,11
1845,-11,-19,8,-2,17,3,2,6
1850,-6,10,-8,6,9,2,-3,-15
1855,-1,19,2,-16,-27,1,0,0
1860,17,2,-13,0,12,-3,-4,-9
1865,3,18,17,15,-4,-6,1,14
1870,-13,-13,-2,-10,-9,-5,-1,5
1875,-2,-15,-8,-6,-12,7,-1,-23
1880,5,0,-6,13,28,0,-3,-10
1885,10,46,14,-16,-19,-3,0,-2
1890,-2,-9,7,6,0,-3,0,9
1895,1,-2,-20,10,3,-3,-1,-2
1900,-13,-60,11,0,-8,3,2,-5
1905,-8,-19,-9,3,9,5,-1,-2
1910,6,41,-5,-16,-17,0,-2,-12
1915,1,-45,-11,-7,2,-3,-1,6
1920,0,3,24,13,11,-2,1,5
1925,16,32,-24,2,-19,-12,-7,-11
1930,-17,-13,31,-12,12,14,4,8
1935,-6,21,-5,-12,0,3,1,-5
1940,6,-29,-1,1,-3,-6,1,9
1945,-3,41,0,3,-5,1,-1,-11
1950,-1,-57,-23,2,-3,-5,0,11
1955,9,7,12,1,-2,-1,-5,-1
1960,-10,1,-4,-5,5,1,-1,-1
1965,-1,-9,-2,-3,-9,-5,0,3
1970,-3,27,0,5,-2,-2,-2,3
1975,1,-26,10,8,14,4,2,5
1980,1,34,-13,-10,-19,-2,-2,-4
1985,-9,19,5,0,7,2,0,-2
1990,7,-14,10,9,11,1,-1,5
1995,-1,-30,-13,-1,12,7,4,12
2000,27,45,-1,-10,-12,-1,-3,3
2005,-36,-36,0,8,29,-2,-3,-18
2010,12,19,-13,-18,-17,3,-1,-7
2015,-18,7,0,8,3,-9,-6,-18
2020,4,10,-15,-5,-17,0,5,9
2025,13,-2,10,-4,-7,-3,-2,10
2030,-6,-40,0,4,0,-11,-5,-1
2035,-2,15,7,6,-8,0,1,1
2040,8,58,3,-13,20,9,-4,-5
2045,-12,-70,-22,-10,-14,0,0,-9
2050,5,39,3,4,-10,-7,-6,-12
2055,11,0,-1,-2,-1,-2,-1,9
2060,-13,-43,-2,11,10,-2,2,9
2065,-16,14,-2,-8,-2,1,1,1
2070,5,40,9,10,0,-3,0,-2
2075,12,-80,-1,-12,-3,-3,-2,-1
2080,-13,9,22,-4,-6,1,0,-7
2085,18,20,-11,-1,13,3,1,11
2090,-18,9,-12,0,-10,0,1,-4
2095,6,30,7,3,-2,-3,-4,5
2100,-2,-3,-16,4,15,4,3,-2
2105,-1,-33,-8,4,-7,2,1,2
2110,-6,3,-2,-2,1,1,0,-2
2115,-9,-42,14,-3,-16,-5,-1,-5
2120,10,27,7,2,9,3,-2,-8
2125,-5,2,6,0,-9,-4,-4,-4
2130,1,-8,-10,1,13,1,1,2
2135,-3,0,-1,-1,-12,-1,2,2
2140,-11,-18,-3,1,5,-3,-1,-2
2145,5,6,3,-9,-5,1,1,0
2150,-7,-15,-8,1,-12,0,1,-5
2155,-14,5,-10,1,30,1,-4,-6
2160,2,-9,-4,-3,-19,-1,2,2
2165,5,31,-4,-5,4,-1,-2,-3
2170,14,30,20,3,-3,1,-2,-3
2175,2,0,2,5,0,-4,-2,-1
2180,-8,-24,-4,-5,3,6,1,-11
2185,1,-14,0,2,-5,-6,-3,3
2190,-17,-21,0,-5,0,3,3,3
2195,13,46,6,2,9,1,0,-2
2200,1,-4,-8,4,-1,-6,-2,3
2205,7,-25,5,-4,-11,0,4,9
2210,-11,12,-2,11,1,-8,-9,-16
2215,-1,23,-5,-1,20,-4,0,12
2220,-2,-61,-1,-19,8,14,2,-3
2225,8,24,-25,3,-18,-2,-2,-19
2230,4,-36,6,-7,-11,-9,-5,7
2235,1,27,15,6,-1,-4,-1,-4
2240,-2,-1,-13,3,-8,-4,0,1
2245,-6,-31,3,-1,8,-2,-2,3
2250,-13,18,4,-1,-2,1,1,0
2255,21,34,6,-4,-7,3,-1,-14
2260,-2,-34,-5,3,-8,-12,-8,-8
2265,-6,8,-6,-7,-2,1,-1,-3
2270,-5,-8,8,-5,8,10,3,5
2275,0,25,2,-2,-13,-1,0,2
2280,-13,-29,-3,1,14,-1,-1,0
2285,5,-11,-2,3,-13,-1,-2,4
2290,-3,-11,-4,-5,6,0,1,8
2295,0,3,-6,-4,-7,1,-2,-2
2300,5,24,-6,5,-11,-8,-5,-3
2305,9,19,10,7,16,-5,-2,3
2310,-9,-3,-17,-22,-10,2,0,-1
2315,-2,-23,-2,0,4,8,3,4
2320,-5,41,6,3,-4,-8,0,2
2325,-5,-42,-5,-3,17,5,1,1
2330,26,-23,-13,6,-27,-9,-6,-2
2335,-13,-14,0,8,19,-2,-3,-5
2340,-1,14,8,-11,-7,9,7,6
2345,-12,21,9,2,1,0,-2,-1
2350,5,23,8,12,-10,-2,4,5
2355,2,-45,-25,-14,3,10,3,2
2360,-5,56,6,8,22,2,-4,-10
2365,-6,4,-7,-6,-13,-2,0,-7
2370,4,19,15,8,10,-3,-6,-7
2375,-2,13,1,-1,-12,-6,0,7
2380,-1,8,4,3,2,1,2,8
2385,-3,-39,10,-14,-5,-1,-3,-10
2390,0,3,-9,9,16,-1,-1,1
2395,-6,-30,-17,-17,-14,1,-3,-6
2400,14,11,-1,-4,-6,-2,-1,-3
2405,-2,12,6,6,-2,-3,-3,1
2410,-5,-18,0,-9,0,-1,2,2
2415,-27,-7,7,-3,-24,-5,-4,-17
2420,21,20,-4,6,36,2,4,5
2425,0,-56,-28,-1,-18,-4,-4,7
2430,-6,-1,1,-8,7,0,-3,-7
2435,11,19,7,8,-4,-3,-1,8
2440,-16,-23,-11,-14,-32,-8,-5,-2
2445,-5,13,10,7,25,3,3,7
2450,17,-5,-7,-2,5,1,1,-5
2455,-1,8,11,9,2,-2,0,-2
2460,7,-7,-13,-2,-20,-2,0,7
2465,-5,-1,10,1,27,6,1,-1
2470,-19,-31,-5,-4,-13,-2,1,9
2475,3,44,0,-4,-1,-2,-2,-8
2480,-9,-9,11,8,11,1,-1,-6
2485,6,2,-34,-3,-14,-1,-1,-1
2490,12,46,10,4,-2,-1,-2,-6
2495,-5,-23,1,-1,18,-3,0,3
2500,0,-15,-8,3,-6,-1,-1,-1
2505,-1,22,13,-7,-11,1,1,-1
2510,-9,-17,4,3,-1,-3,-1,-2
2515,-2,22,-13,-4,6,0,-2,15
2520,-12,16,10,-2,-6,-4,-5,-7
2525,16,42,3,8,-3,-7,-5,-17
2530,2,-18,-11,0,10,3,-1,-8
2535,4,-22,-9,-11,-12,4,1,9
2540,-3,4,2,-6,1,-2,-1,3
2545,-23,14,19,1,-2,-5,-3,-4
2550,2,-5,4,-4,-6,-2,-5,-10
2555,1,-2,-6,11,7,-1,1,5
2560,6,-3,-2,-4,-7,-1,0,1
2565,9,-17,-5,-4,-16,-4,-2,1
2570,-10,-4,-7,-6,12,3,-1,-3
2575,1,-11,10,9,13,-3,-2,-3
2580,-4,2,-1,-4,-6,1,-2,-4
2585,1,-17,5,2,-7,0,0,1
2590,-4,-21,-9,-6,0,0,1,14
2595,0,20,8,-1,-3,-2,-2,-10
2600,-20,-27,-5,-1,-6,0,-2,-13
2605,18,9,-2,3,10,-2,1,0
2610,-6,1,2,-5,-8,6,1,-1
2615,2,-2,-8,-3,7,0,-1,2
2620,7,-14,9,5,6,-5,-3,0
2625,6,27,18,1,4,0,3,10
2630,-22,-10,-18,-12,-5,0,-1,-4
2635,19,-3,0,-1,-14,0,-2,-2
2640,3,7,-3,5,5,1,-1,3
2645,-25,-4,-5,-6,-20,-3,-1,0
2650,28,28,8,5,37,2,3,-1
2655,-19,-15,-6,8,-3,3,0,-6
2660,8,2,4,-9,-7,-6,0,3
2665,-6,20,3,5,15,5,-1,-9
2670,-2,-29,-25,-7,-25,-8,-3,-6
2675,4,-8,7,1,19,14,4,0
2680,-5,0,10,-5,-8,-4,1,5
2685,-2,-10,-33,15,1,3,5,12
2690,8,-25,5,4,-8,-6,1,5
2695,18,-2,-5,8,7,-7,-5,-1
2700,-25,20,-5,-7,-5,2,0,-3
2705,23,-23,0,-9,4,6,3,4
2710,-18,6,14,5,10,1,-4,-8
2715,12,10,-7,-4,6,3,4,8
2720,-10,-12,5,10,-2,-4,-3,-18
2725,9,56,5,-11,-20,-4,-5,-5
2730,0,-6,19,8,15,0,-3,-1
2735,-5,-22,1,-4,-30,-12,-3,6
2740,3,12,-3,10,8,3,3,-9
2745,-22,-46,11,-17,4,4,-3,-9
2750,19,20,13,0,-17,-4,1,12
2755,-15,-35,-5,7,16,-6,-3,-5
2760,19,-10,-20,1,14,5,-4,2
2765,-7,-17,0,11,3,-7,-4,-7
2770,-9,22,-5,-15,-2,2,0,3
2775,-12,-19,3,-3,-16,-1,1,3
2780,13,0,-6,-6,-2,2,0,-2
2785,-6,-6,-8,-1,17,0,-2,-7
2790,-6,-3,21,-1,-5,0,0,-4
2795,-8,-19,-5,1,-2,0,-2,-1
2800,4,-4,-17,-6,2,-1,-3,-2
2805,2,5,-1,1,-12,-4,0,13
2810,-7,-6,-9,0,-3,-2,-1,-7
2815,8,46,14,8,6,1,-1,-8
2820,-22,-48,-7,-8,6,6,3,2
2825,1,11,-25,-6,-16,-6,1,19
2830,26,-5,-20,5,14,3,-1,-12
2835,-2,30,5,4,5,-2,-1,-5
2840,-3,25,18,-16,-13,-2,-5,-7
2845,-15,-36,-6,0,-5,-2,-2,-3
2850,7,6,-13,3,-1,2,5,15
2855,-10,-17,4,2,6,-7,-2,-2
2860,6,1,-7,-2,-1,-1,-3,-5
2865,12,68,15,-3,-14,1,0,-1
2870,-14,-13,2,2,3,0,-1,-3
2875,9,8,11,2,5,-1,-1,4
2880,-9,-5,-18,4,-16,-3,3,8
2885,-7,15,7,-2,36,10,-3,-12
2890,-18,10,-7,1,-14,-9,-1,4
2895,35,12,-1,-9,-1,5,-2,-6
2900,-6,3,11,12,-17,-7,-2,3
2905,6,-12,-5,4,14,-4,0,-1
2910,-10,-3,-1,-18,-6,9,4,18
2915,-21,-13,-16,-3,-10,-2,-3,-21
2920,4,35,3,6,16,-1,-2,3
2925,5,-41,2,-4,-20,-3,-3,-4
2930,3,-41,4,5,10,-3,-3,7
2935,-3,15,-6,-9,-8,-3,2,4
2940,7,10,12,4,-6,1,2,3
2945,-11,-15,-10,-2,13,6,2,6
2950,-10,23,-27,-1,4,1,-4,-23
2955,19,-43,-1,-6,-1,1,-3,-1
2960,2,1,10,3,-4,-5,-4,-3
2965,1,3,-7,-5,-9,-3,-1,1
2970,13,12,17,5,-2,-2,0,10
2975,-43,-5,-7,-9,-20,1,5,0
2980,9,20,9,7,15,-2,-9,-28
2985,6,-22,-7,-8,-3,-2,1,5
2990,-2,21,1,-1,-3,0,-2,-11
2995,-4,-5,3,9,-14,-7,-2,15
3000,-1,4,-5,-12,-1,7,7,7
3005,5,-10,-6,-5,-11,-2,-2,-3
3010,5,-1,-2,6,-3,0,-3,-8
3015,4,18,4,-5,-6,-3,0,5
3020,-4,-11,-22,8,20,-1,1,14
3025,-29,-32,4,-3,-16,0,2,-22
3030,21,14,-5,2,-1,2,3,5
3035,-2,28,6,-7,-2,-4,-3,6
3040,-2,-14,8,4,2,-1,-4,-23
3045,-13,16,8,-15,-4,2,-2,1
3050,4,6,-7,-1,-4,-3,0,-2
3055,-2,-15,10,5,21,4,-1,-6
3060,9,0,-8,-9,-4,0,2,13
3065,-4,20,13,10,7,-3,-2,-1
3070,-16,-32,-3,6,-14,-7,-4,-5
3075,13,10,-7,-23,17,10,2,-1
3080,-7,-14,1,4,-3,-2,2,4
3085,10,4,-1,-6,-10,-4,-6,-8
3090,-8,-5,-17,-2,2,-5,-1,-2
3095,-8,0,-7,1,-8,-7,-1,6
3100,6,14,2,-2,-1,0,1,-3
3105,5,-9,5,10,-1,-4,-6,-7
3110,1,25,15,-16,-11,2,0,-7
3115,-2,-25,-8,5,2,2,1,6
3120,-3,8,-16,-3,-17,-5,-3,-1
3125,22,16,4,2,9,-3,2,7
3130,-12,5,3,0,0,-4,-4,-3
3135,-10,22,-3,-5,-2,-1,-5,-9
3140,11,-5,4,13,11,-4,2,12
3145,0,14,9,-14,-23,-1,-2,-8
3150,-6,-21,9,2,37,13,3,0
3155,-4,3,-2,-11,-24,-2,0,0
3160,2,-20,-2,-1,2,-2,-1,2
3165,6,4,-2,11,10,-3,-1,10
3170,-20,12,17,9,-11,-3,-5,-14
3175,22,21,-12,-12,-4,4,-4,-13
3180,-9,10,3,-8,-7,-3,-4,-6
3185,3,-2,-9,3,12,4,3,7
3190,-5,-17,2,2,-4,-3,-1,4
3195,-7,-12,9,12,-3,-3,0,2
3200,-14,0,-1,-8,18,3,-2,-5
3205,20,34,-5,3,7,5,0,-3
3210,2,-45,16,-9,-7,-7,-1,9
3215,-9,40,-15,2,-5,3,1,-12
3220,0,5,12,2,1,-3,-3,0
3225,-9,-49,-24,0,0,0,3,4
3230,0,29,-4,-1,6,0,2,11
3235,16,-17,18,10,-12,-5,1,0
3240,-30,0,-12,-20,2,7,2,-18
3245,-4,22,-3,7,11,2,-4,-11
3250,16,24,-5,-2,-11,1,3,6
3255,-4,-44,6,-2,-5,-3,0,10
3260,16,19,-3,5,-7,-4,2,8
3265,-14,-13,7,0,7,1,1,3
3270,6,-21,-7,-7,-6,-1,-1,-3
3275,-5,34,-3,-7,-1,0,0,0
3280,0,-20,-2,10,-10,-5,-3,-3
3285,-5,-3,-7,-12,3,0,2,11
3290,-2,-23,-15,7,30,-1,-4,-14
3295,2,-6,-3,1,0,2,-1,-2
3300,6,-31,17,-10,-16,-4,-3,11
3305,-5,0,9,3,6,1,-1,-13
3310,-9,-9,-9,-2,-19,-1,2,1
3315,-11,0,-9,2,27,0,-7,-21
3320,14,24,-3,-3,-8,-4,-2,4
3325,24,20,5,2,-13,-5,3,17
3330,-17,-14,-10,-3,-18,-1,-4,-12
3335,8,2,-1,1,11,0,1,4
3340,-12,-32,-2,4,-2,-2,-2,3
3345,-3,9,5,0,-9,-7,-4,-5
3350,4,61,2,-8,0,5,3,6
3355,-8,-46,-10,-3,7,-1,1,6
3360,-3,1,-2,-7,-18,-3,-2,1
3365,3,-22,-14,-1,11,-1,-2,-14
3370,3,8,7,6,16,-3,-3,2
3375,-5,11,-2,-11,-26,-2,-3,-10
3380,1,19,10,12,16,-1,3,5
3385,-7,-4,17,-4,-18,4,1,3
3390,-1,-28,-7,-3,1,-3,-5,-5
3395,-6,54,16,-5,7,-3,3,20
3400,12,-15,-16,8,-2,-3,-8,-26
3405,5,0,-5,-9,-4,3,0,2
3410,2,8,6,0,-2,-1,1,-2
3415,0,-12,11,9,-2,-4,-3,-1
3420,-9,-2,-7,-13,-5,2,1,3
3425,-5,47,8,1,8,5,-1,-2
3430,10,9,-1,2,2,-4,-1,0
3435,-19,-74,-33,-9,-1,5,2,7
3440,26,28,1,8,3,-2,6,10
3445,-2,8,23,8,1,-4,-8,-20
3450,-6,-4,-4,-7,-8,1,1,7
3455,-7,-6,13,6,-2,-3,-1,-19
3460,-10,-21,-6,-7,4,8,5,14
3465,-11,-23,-9,-1,3,-5,-3,-16
3470,16,31,10,2,-6,0,-2,-3
3475,8,25,-12,3,5,-3,-2,2
3480,0,-23,6,-5,12,2,-2,3
3485,-7,-12,6,0,-9,-2,3,13
3490,-10,-24,-12,-9,-18,-1,-2,-4
3495,19,25,0,-1,-14,-7,0,0
3500,-13,-15,5,9,20,3,0,0
3505,-3,-6,-22,0,1,3,0,-6
3510,16,2,5,2,-3,-2,-1,-4
3515,-1,-3,8,4,-18,-4,-1,1
3520,-4,2,-22,-2,12,-5,-2,-12
3525,-1,-12,4,-3,-10,-3,0,5
3530,-8,0,-5,-7,4,5,-1,1
3535,-9,-7,-1,-1,0,-2,0,-8
3540,-3,-1,4,-1,-7,-5,-4,2
3545,19,-14,-6,0,6,0,0,-1
3550,1,23,-7,5,-14,-9,-4,-4
3555,8,5,-2,-5,33,15,4,5
3560,-11,15,9,2,-5,-1,-1,-7
3565,-11,-9,0,2,-11,-2,1,4
3570,7,-58,2,-4,14,-1,-2,3
3575,-4,7,-4,0,-9,-1,-1,-9
3580,-3,1,6,-1,-6,1,-2,-11
3585,-21,9,-3,1,17,2,-2,13
3590,23,14,6,-1,-4,-2,0,-6
3595,-2,-8,9,1,-1,-5,-1,-3
3600,10,-11,-32,-6,3,1,-2,-7
3605,-7,12,7,3,-15,-10,-6,-5
3610,-6,5,-1,-5,13,7,5,13
3615,7,-16,-9,5,7,2,0,9
3620,-12,4,6,-4,-19,-5,-1,2
3625,20,-5,-1,-4,5,3,2,3
3630,-17,22,-10,1,1,-6,-2,-8
3635,5,-41,12,-1,-3,1,0,-2
3640,-5,14,6,1,1,-2,0,-4
3645,5,-11,-7,3,-2,0,1,4
3650,-5,-1,0,2,5,2,2,8
3655,-14,21,-5,-1,-9,-2,-1,2
3660,8,10,20,6,-12,-4,0,-15
3665,0,-35,-30,-6,2,-6,-1,-7
3670,-2,-9,10,-6,31,22,1,-6
3675,-2,16,-1,-3,-11,-4,-3,3
3680,3,-2,-4,-3,-2,0,1,10
3685,5,20,14,3,-20,-6,0,0
3690,-16,-14,-2,5,-9,-8,-5,-4
3695,12,6,-6,-2,10,-1,5,12
3700,9,-32,7,10,2,-1,-4,-13
3705,-4,6,-4,-17,-4,3,-4,-8
3710,-1,-1,1,0,-9,-3,0,-1
3715,-5,8,3,-1,8,0,-3,3
3720,-2,3,-1,-1,-5,-1,1,3
3725,0,9,2,7,14,5,0,3
3730,-3,7,-4,-3,-9,-6,-2,-4
3735,6,0,2,0,-9,-4,-2,-6
3740,-3,-3,0,-2,4,-1,2,20
3745,-14,-16,-2,9,-27,-9,3,-9
3750,7,39,1,-13,50,15,0,-8
3755,3,-2,-10,-15,-27,0,-3,-4
3760,-1,-41,-7,-1,6,2,-2,-1
3765,-4,7,12,3,-14,-1,1,12
3770,-2,-18,1,14,-13,-7,0,-3
3775,-1,-7,-1,3,15,-3,-3,-6
3780,-12,8,-6,-6,-5,1,4,16
3785,-6,20,0,-1,10,-1,-3,-15
3790,13,-23,-10,6,-6,-7,-2,-16
3795,10,11,-16,-11,6,9,0,0
3800,-7,-30,20,3,-14,-5,-6,-18
3805,-9,-6,-24,-3,23,-2,-4,0
3810,-4,25,14,1,-9,-3,-2,1
3815,-1,12,0,0,-10,-6,0,-3
3820,14,22,2,-1,3,3,1,8
3825,-2,-34,-12,6,10,5,4,6
3830,-6,-6,1,-2,-4,1,-1,3
3835,-5,-11,4,11,-1,-2,2,4
3840,13,-23,-8,-7,-11,-2,1,-1
3845,-9,28,9,-11,12,7,-5,-13
3850,7,-3,-15,-1,-3,-6,-2,1
3855,0,-11,3,3,3,-2,-3,-5
3860,-8,9,2,-1,1,-4,-2,-5
3865,7,3,5,-1,-10,-1,0,7
3870,-1,-5,6,2,-6,-5,-2,3
3875,-10,-8,-2,-2,1,-2,-3,-4
3880,0,28,-4,2,11,5,2,1
3885,-12,-6,3,-16,-16,1,2,7
3890,7,-16,-3,-5,-17,-4,3,1
3895,-1,-1,15,4,10,-7,-10,-26
3900,-6,28,-24,0,-3,-4,-2,-2
3905,9,-42,-1,4,3,0,0,4
3910,-21,-12,1,4,-1,-1,0,6
3915,0,-6,4,-3,-7,3,2,3
3920,7,1,-8,12,1,5,3,3
3925,-12,-11,0,-6,4,2,2,12
3930,15,65,11,2,-3,1,-1,-19
3935,-1,-48,-14,-5,11,-4,-4,-6
3940,-2,16,15,-7,-19,-4,-7,-6
3945,2,-7,-4,4,10,0,1,15
3950,-1,-3,5,-1,-14,3,3,9
3955,9,3,0,10,17,1,-1,11
3960,0,7,-9,-15,0,0,-2,-10
3965,3,-4,-11,5,-1,-7,-5,-8
3970,-6,-2,4,-8,-8,3,0,7
3975,-7,22,0,5,0,2,5,3
3980,0,-4,5,-2,2,-2,-1,9
3985,4,14,1,2,1,0,-1,-9
3990,-2,-4,-4,0,3,-1,-2,-4
3995,-5,40,3,-2,-9,-4,-3,3
4000,6,-42,2,-1,-4,-1,-3,-9
4005,5,18,-6,-9,1,2,-3,-8
4010,-9,-5,-1,0,2,-9,-8,-10
4015,23,-12,-1,-11,-2,6,7,14
4020,-13,22,21,6,-10,-1,-4,-15
4025,-8,18,8,1,17,1,-1,1
4030,16,-36,-21,0,-15,-10,-4,7
4035,-16,4,2,9,9,-4,-6,-17
4040,7,1,-8,-10,-6,3,2,9
4045,7,5,18,-1,-18,-9,-3,7
4050,-21,24,-4,-4,6,1,1,-8
4055,0,-49,9,9,6,3,-4,-13
4060,-4,9,-8,-8,10,6,4,5
4065,5,-8,7,4,-2,0,0,0
4070,-16,-12,-23,-7,-8,-3,1,12
4075,-9,7,-8,4,-8,-10,-1,4
4080,27,29,-9,-1,5,-2,-1,-7
4085,1,-10,17,-1,3,4,0,-6
4090,10,2,13,-2,3,1,-1,-3
4095,-17,0,-14,-15,-12,-4,-4,-9
4100,-12,-6,-7,9,10,-5,-3,5
4105,20,8,-11,-12,-17,1,2,15
4110,-3,-8,9,8,1,-1,-1,-13
4115,-3,12,17,7,3,1,0,-3
4120,-11,-11,-3,-11,-7,0,1,3
4125,5,-10,-2,0,22,6,-1,-3
4130,-2,-17,-2,-3,-9,-1,-1,3
4135,-1,5,-3,-1,6,-1,2,2
4140,2,-29,-6,7,12,-2,-2,5
4145,-30,12,-11,7,-18,0,-1,-14
4150,31,0,6,-12,-6,2,-1,4
4155,-2,-19,-21,2,-2,-1,0,0
4160,-8,-8,8,2,-8,-3,-2,-8
4165,-8,-25,-7,2,8,-3,0,-3
4170,-8,11,12,8,14,-5,1,12
4175,16,22,3,-5,-18,1,-2,-4
4180,-7,-32,-19,-9,6,4,-5,-22
4185,2,10,10,4,2,-4,-2,0
4190,-10,-11,-4,-2,0,0,-3,-8
4195,10,0,1,2,5,-2,2,19
4200,-2,2,-2,-5,6,3,0,0
4205,0,20,-1,4,-6,-1,-2,-13
4210,-10,-19,-20,2,16,6,2,2
4215,15,38,5,2,-16,-4,-2,5
4220,-11,-28,9,2,-9,-4,1,-4
4225,7,-18,-16,-6,5,1,-2,2
4230,6,2,8,3,0,2,0,1
4235,-21,-3,-3,0,0,-4,-1,-7
4240,9,23,4,-2,-7,1,2,9
4245,13,-7,10,-4,5,-5,-1,2
4250,-4,41,-4,5,5,4,0,-5
4255,-2,-46,-22,-2,1,-1,0,1
4260,3,9,0,-7,6,1,-3,-3
4265,-2,11,4,0,-9,-4,2,2
4270,2,-6,1,-8,-3,-4,-4,-2
4275,3,2,5,0,7,4,1,4
4280,-9,3,0,4,-5,-2,0,2
4285,-8,-18,-7,-4,-10,-4,0,2
4290,19,67,3,4,11,2,-7,-18
4295,1,-18,8,-6,4,1,1,1
4300,-6,2,9,4,3,-4,0,5
4305,-9,-26,-19,5,-3,5,7,15
4310,7,-12,18,1,-11,-5,-5,-10
4315,0,11,9,-8,9,0,-5,-15
4320,5,5,-6,5,-6,2,1,6
4325,-4,-13,-5,-9,2,0,-3,-1
4330,-10,-2,-2,5,-10,-4,2,16
4335,-9,-6,-10,1,15,5,2,-18
4340,2,16,9,3,-4,-5,-1,0
4345,8,27,2,-2,11,-3,-5,-10
4350,-2,-40,-2,-5,-15,-2,0,7
4355,-13,11,4,-4,-5,-2,-2,4
4360,5,-14,-3,-1,2,-2,3,7
4365,4,13,-8,0,-7,0,-5,-16
4370,9,-19,11,1,9,-2,-3,-8
4375,2,25,1,-3,-6,4,2,6
4380,-13,-33,0,-2,-6,-5,-4,-1
4385,3,-15,-32,-4,13,3,-1,10
4390,-8,6,-5,-1,5,-1,0,-8
4395,-4,-26,-2,2,-9,1,0,-4
4400,5,39,21,3,6,1,1,0
4405,3,-7,-12,4,-7,-2,0,5
4410,-9,-6,-1,1,-3,1,1,15
4415,18,7,-6,0,-1,-3,0,6
4420,-9,13,3,1,2,-3,-4,-8
4425,3,-14,12,-5,-9,-1,-2,-7
4430,-6,29,3,2,0,1,-1,0
4435,5,-36,5,-6,-11,-1,1,14
4440,-5,-17,-17,-3,-4,-3,-2,-10
4445,15,48,22,3,7,-5,-2,2
4450,-1,-21,0,6,5,4,-3,-8
4455,-13,-19,-8,-15,-17,-7,-6,-7
4460,0,15,-5,-5,7,1,1,5
4465,-11,-24,11,1,-12,-3,0,2
4470,10,5,-6,-5,5,-3,1,2
4475,2,7,4,3,2,-2,-3,0
4480,7,-1,8,4,-11,2,2,9
4485,-11,3,-9,-5,20,6,1,-2
4490,7,1,6,-7,-7,1,0,-1
4495,-3,11,-9,8,-4,-4,-3,-5
4500,-3,3,-6,-4,-4,-4,-4,-1
4505,3,-28,25,9,1,-12,-1,12
4510,-20,-14,-12,-24,-5,9,0,-17
4515,6,28,-8,1,1,-2,1,1
4520,4,-16,-6,-4,-7,-4,-1,2
4525,4,-1,2,9,1,2,-4,-9
4530,-7,-3,-3,-6,-8,-7,-1,10
4535,-1,2,6,4,2,2,2,-2
4540,-3,16,-5,1,10,2,0,-8
4545,-3,-19,4,-1,-9,-4,-5,-4
4550,-7,-14,-10,2,-4,-3,-1,1
4555,6,-2,-6,8,5,3,1,3
4560,7,-4,-13,-14,-6,-3,0,-6
4565,-3,26,3,0,2,2,-1,-3
4570,0,-2,7,5,14,-2,-1,0
4575,-5,1,-4,-8,-5,5,0,2
4580,-3,-2,-3,8,13,1,0,1
4585,0,31,3,4,-7,-7,-2,2
4590,-12,-12,-9,-11,-15,0,1,-6
4595,5,33,-9,4,-5,-5,-2,-2
4600,3,-14,1,-4,13,-1,-3,-9
4605,-2,-12,-11,0,4,2,0,-1
4610,6,6,2,8,2,-2,1,6
4615,-12,-12,6,-5,3,-1,0,-3
4620,3,1,3,-1,-13,2,-1,8
4625,-7,2,-2,-6,-3,0,-2,-11
4630,-24,31,17,-2,11,-3,-2,2
4635,34,-1,-15,-3,-4,-2,-4,-8
4640,-10,0,-1,2,-8,-3,0,0
4645,10,2,10,2,14,7,0,0
4650,1,-31,-1,2,-7,-5,1,9
4655,-20,-2,-1,-9,-10,-4,-5,-2
4660,7,4,7,10,18,-3,-4,-8
4665,-4,2,-9,-13,-15,1,-1,-9
4670,11,46,-2,-1,-4,4,1,-2
4675,-9,-13,22,9,10,-4,-1,5
4680,4,-13,-2,-4,-5,-2,0,-8
4685,3,18,-3,-11,-18,2,3,1
4690,5,-7,3,9,6,-2,-5,-5
4695,-5,-14,-7,-1,2,0,0,-3
4700,-15,30,2,-6,4,1,0,1
4705,-7,-1,-1,4,-4,-2,2,11
4710,18,-14,-6,-1,-7,-5,-3,-13
4715,-9,-10,1,-4,2,5,-3,-5
4720,10,8,-2,5,9,2,1,13
4725,-4,-6,-18,-5,-20,2,-1,0
4730,-7,-12,7,-4,10,-3,0,3
4735,6,-5,-6,7,-2,-2,2,6
4740,-3,-9,-2,0,-5,-2,-4,-7
4745,-2,-10,-7,5,2,-3,1,7
4750,0,-5,6,4,-2,-2,0,13
4755,10,8,-7,-8,9,11,-2,-22
4760,0,-9,-8,-5,-21,-4,2,5
4765,-1,9,10,3,17,7,-2,-7
4770,-16,-9,-7,-3,-8,0,0,4
4775,2,8,10,9,18,-4,2,14
4780,5,-5,6,-2,-8,-3,2,-3
4785,-5,-19,-8,-2,-15,-7,-5,-12
4790,11,-6,-9,-2,9,5,1,1
4795,-4,-12,7,0,-2,-1,1,0
4800,-23,12,-2,-3,-2,0,-5,-15
4805,9,-13,-6,2,0,-5,1,2
4810,6,-4,-12,-2,-8,0,-2,-5
4815,-1,-3,7,-5,-9,-3,2,6
4820,-4,-17,-7,4,8,0,-4,5
4825,0,34,21,0,-12,-6,-4,-13
4830,-4,-37,-6,0,6,3,-3,-11
4835,-9,4,-12,-11,-13,-2,0,2
4840,5,-10,1,4,5,1,0,6
4845,-3,-4,7,-1,5,3,3,10
4850,-14,42,7,6,-8,-5,-1,-15
4855,6,-18,-6,12,5,-8,-4,-10
4860,16,-8,-4,-22,23,17,4,10
4865,11,2,2,0,-1,-7,-5,1
4870,-10,-2,-6,-5,-9,-4,-1,-5
4875,-23,-2,12,7,1,-5,-2,2
4880,14,12,4,8,-11,-4,0,-12
4885,8,-1,-12,-3,20,6,1,0
4890,-3,-37,10,3,-1,2,0,11
4895,7,7,-6,-13,-6,4,3,4
4900,-15,-7,-9,2,-5,-3,-3,3
4905,-3,-6,5,-4,-6,-2,3,1
4910,-15,22,14,8,0,1,0,-1
4915,22,-12,-26,-6,5,-2,6,10
4920,4,-22,-10,-2,-11,-1,-4,-5
4925,-14,-2,2,5,-2,1,-5,-17
4930,2,7,-3,-10,-8,-3,-2,0
4935,-12,28,17,0,-14,-5,-4,-1
4940,-5,0,-4,2,14,1,3,8
4945,-1,-5,6,-4,-9,1,0,4
4950,10,-3,-13,3,5,-4,-5,-4
4955,-18,-27,-3,-3,-2,3,-3,-9
4960,25,21,-3,1,3,-6,-4,0
4965,-10,-35,2,-3,-9,1,2,4
4970,7,20,10,-6,3,1,1,2
4975,-14,-28,-21,2,-1,-3,-2,1
4980,12,8,7,5,8,1,-1,-2
4985,-2,10,6,0,8,2,0,1
4990,1,-81,-39,-2,-7,0,2,5
4995,-1,21,9,-5,-10,-1,-1,0
5000,-20,-3,16,-2,-1,-2,-3,-13
5005,4,14,-8,0,10,-2,-2,-11
5010,3,29,2,4,9,1,-1,-2
5015,-4,19,8,-5,0,-3,-3,5
5020,-20,-37,-20,-4,-15,3,3,10
5025,20,21,1,3,15,-1,-3,-12
5030,6,24,8,-2,-6,3,-1,-3
5035,6,-17,-5,3,12,2,1,4
5040,-11,30,0,-2,-9,-5,-1,-1
5045,-16,3,-1,5,-2,-9,-2,4
5050,13,0,-6,-6,5,11,4,-1
5055,6,12,-12,-8,-12,-1,-5,-11
5060,-6,-44,6,1,-1,-4,-2,0
5065,1,-10,-5,1,-4,0,3,10
5070,-2,2,0,3,7,-3,-2,-3
5075,3,16,17,3,-8,0,1,-1
5080,-12,6,-20,0,12,0,-2,-2
5085,1,-1,-12,-7,-4,0,-3,-8
5090,-9,-20,17,-4,9,1,1,5
5095,8,-1,1,10,-14,-2,-2,2
5100,-1,-6,-10,-6,2,2,2,2
5105,-15,4,9,-5,7,1,-2,-12
5110,11,11,-1,-2,-10,-6,-2,5
5115,-1,-5,5,7,14,-1,-2,-5
5120,-6,63,-9,-7,-11,-4,-7,-9
5125,-5,-39,5,7,-1,-3,2,9
5130,11,-17,4,-13,-8,4,0,0
5135,-7,7,-14,-2,4,-4,2,-3
5140,16,11,18,13,-5,-3,1,8
5145,-8,-11,-15,-12,-5,-2,-3,-3
5150,-5,22,2,5,11,-1,0,-1
5155,0,-14,4,-7,-17,5,0,5
5160,4,-5,1,3,3,-5,-5,-4
5165,9,12,-8,-4,-12,4,0,-3
5170,2,-3,5,3,2,-3,-3,2
5175,-4,10,-2,3,-1,-4,-1,4
5180,-13,-14,-6,-11,2,6,-1,-23
5185,8,6,1,0,-6,-2,1,8
5190,6,17,-8,1,-12,-7,1,14
5195,-15,-15,-1,2,14,6,0,-5
5200,-3,3,-2,-3,-27,-4,3,4
5205,28,-3,2,4,24,4,-1,0
5210,-15,3,-9,2,-6,-3,-4,-16
5215,4,14,0,-6,11,-2,-3,-9
5220,-3,-18,6,2,-11,-7,-1,10
5225,2,34,2,-22,-24,1,2,3
5230,-7,-41,6,10,3,-2,0,0
5235,-12,-23,-7,-8,8,1,-3,-7
5240,16,-3,3,1,-3,0,1,-3
5245,0,10,0,8,5,-6,-2,7
5250,-6,38,14,-10,-9,-2,-3,5
5255,-5,0,-5,1,-6,-2,-1,-17
5260,-1,3,-4,1,18,5,-1,0
5265,-5,12,2,1,2,2,3,3
5270,1,-7,-17,1,10,2,1,5
5275,13,-3,1,-1,-8,-2,0,8
5280,-14,8,11,2,8,0,-1,0
5285,14,-29,-15,3,-8,-2,2,3
5290,-6,-10,-6,0,8,-5,-7,-15
5295,1,8,4,-11,-2,2,0,-2
5300,7,26,-5,-3,-5,-4,-4,-3
5305,-18,-17,19,5,-2,0,2,8
5310,17,-3,-22,-4,4,0,-2,0
5315,-7,10,6,6,7,-1,-3,-7
5320,7,19,13,12,19,-3,0,9
5325,-14,0,-6,-24,-33,-1,-2,0
5330,-6,0,-1,2,-7,2,0,-11
5335,-10,-8,1,6,12,-3,-2,7
5340,14,-4,-6,0,-2,8,3,-4
5345,-2,-16,-2,5,1,-4,-4,-1
5350,-11,-11,-2,-5,2,-1,2,9
5355,12,25,-3,-7,-10,-5,-4,2
5360,-4,-21,-1,-2,-6,-2,-3,-7
5365,-4,5,3,9,16,-1,-4,-18
5370,4,-10,1,-3,-26,-2,5,12
5375,-9,4,-9,-5,4,2,-1,-1
5380,-3,-20,3,-3,-11,-2,0,10
5385,0,15,10,10,23,4,0,4
5390,16,18,1,-10,-12,-3,-2,-10
5395,-8,12,15,2,-16,1,-1,-7
5400,-3,0,-6,-10,9,-3,-2,1
5405,-15,19,-10,1,-11,-1,1,-6
5410,8,-11,0,14,13,-1,-1,5
5415,-4,-16,-4,-19,0,1,1,5
5420,-11,-28,-10,1,12,5,-1,-1
5425,17,-12,19,1,-7,-5,-5,-8
5430,-4,29,-4,-7,2,2,2,2
5435,10,-23,-21,8,-2,-1,2,2
5440,-8,-3,15,8,-8,-4,-2,8
5445,-5,0,-15,-13,22,5,1,0
5450,4,-1,6,13,6,-6,-5,-2
5455,1,13,10,-11,-8,3,-2,0
5460,-2,-4,-10,-7,11,-1,-2,-2
5465,-4,-25,-9,3,-9,-2,-2,-1
5470,-3,12,-3,-6,-4,-1,-3,-1
5475,4,-37,6,4,-6,-3,0,3
5480,-1,22,4,0,1,4,1,-4
5485,-4,3,-5,-5,5,-3,-2,-2
5490,-8,2,-1,-8,-3,0,1,-1
5495,-3,-19,0,4,-5,0,2,15
5500,22,8,1,-4,-10,-3,-5,-25
5505,-9,6,5,-2,-1,1,0,1
5510,-6,-14,-11,0,-5,-2,-2,-4
5515,7,48,12,6,3,-2,1,4
5520,-44,-24,8,2,20,7,3,0
5525,45,10,-3,2,-18,-3,-1,-2
5530,-6,-18,-23,-6,-6,-1,-4,-3
5535,-2,20,9,3,9,1,0,-4
5540,-1,0,-9,-1,-6,-4,-1,2
5545,-19,-14,-1,-8,-4,1,1,-1
5550,14,14,20,6,-8,-7,1,15
5555,-10,-18,-13,-25,17,7,-3,-17
5560,-3,-1,10,4,-25,-6,-3,4
5565,-5,-8,-3,-2,14,5,-2,-7
5570,-5,-16,5,0,-5,-2,1,0
5575,19,28,-1,8,1,-2,1,-1
5580,8,-26,1,-1,4,-1,1,0
5585,-11,-10,9,-3,-15,-4,-2,-1
5590,-4,3,-11,4,12,-1,-3,-3
5595,-3,-12,-2,-3,-18,8,1,1
5600,10,13,-5,-2,13,-4,-1,4
5605,12,11,11,-3,-9,0,-2,4
5610,-14,-6,-3,-1,1,0,0,-10
5615,-6,-31,-8,10,6,-2,0,-2
5620,14,4,3,-5,-11,0,-3,-6
5625,-10,0,-8,1,-3,-2,3,2
5630,-5,28,10,12,30,0,-1,-2
5635,2,-1,-2,-19,-34,2,0,-5
5640,-5,-18,-31,-4,7,1,-2,6
5645,4,2,-2,2,4,-2,-3,0
5650,-7,-12,0,-5,-9,1,1,4
5655,2,26,15,14,8,-7,-2,0
5660,-9,3,5,-5,-13,0,1,-4
5665,14,-6,-13,4,13,1,-1,6
5670,12,11,3,-3,-6,0,-3,-8
5675,-9,-20,-11,-1,1,-6,-4,-1
5680,9,10,12,-1,7,2,-1,-4
5685,-23,-5,-17,-2,-3,-4,-3,-2
5690,0,-12,-2,-1,2,4,2,7
5695,-7,13,6,4,14,-4,-2,-8
5700,21,-16,-2,4,-6,6,2,-4
5705,-11,19,-4,-7,-20,-3,-2,-7
5710,2,-31,8,-4,3,-2,0,-1
5715,-9,-15,-14,-1,-2,-4,-1,-3
5720,-12,19,4,-1,-3,-3,-1,1
5725,9,21,10,14,12,-2,-3,-4
5730,-3,-50,-11,-18,10,7,2,-3
5735,5,27,7,-1,-11,-6,-2,9
5740,-5,-2,8,7,4,-4,1,-7
5745,5,-21,-3,-12,-6,3,-1,-7
5750,-16,5,-4,4,-6,-4,-3,-4
5755,3,-16,5,15,6,-5,-1,12
5760,7,-1,-19,-11,4,19,7,3
5765,-1,-4,19,5,-1,-1,3,-3
5770,17,11,-6,2,-7,-5,-8,-18
5775,15,5,2,0,2,6,6,2
5780,-4,-12,-2,4,-1,-10,-5,5
5785,-6,19,4,-3,-10,0,2,12
5790,-9,16,9,9,11,0,2,-1
5795,7,-5,-20,-4,6,3,-1,-8
5800,-9,-7,4,-10,-7,-3,-1,-4
5805,8,-8,-11,2,4,0,-1,1
5810,-5,-2,-3,-3,-22,-8,-4,1
5815,-6,7,-3,-2,6,0,2,3
5820,9,3,-1,-6,6,3,-1,4
5825,-6,-5,-2,1,-4,-4,-2,-3
5830,10,-11,-4,1,5,-1,-1,0
5835,-6,22,0,-1,2,-2,1,8
5840,-9,2,7,1,8,2,-1,-9
5845,-9,2,-9,-5,-2,1,-2,-3
5850,7,0,7,7,13,2,-1,-3
5855,5,0,11,-10,-9,-1,-2,-2
5860,2,4,-10,-5,-12,-7,-3,5
5865,-20,-12,0,3,-13,-4,0,2
5870,8,36,-3,4,29,11,8,11
5875,-16,-52,-22,0,1,0,-7,-27
5880,1,16,5,4,-12,-4,-2,3
5885,-3,-11,-4,-1,8,0,-1,-1
5890,-3,-6,1,-16,-22,-6,0,7
5895,-8,7,10,5,-3,1,0,5
5900,27,3,-4,-3,-11,-1,-3,-10
5905,-9,2,3,-2,26,3,0,-8
5910,3,16,2,8,-2,-1,-1,-1
5915,0,-4,-1,-10,-7,-5,-1,6
5920,-18,-30,-18,-3,-16,-3,-2,-2
5925,17,6,4,4,9,0,0,-6
5930,-7,3,3,-6,-4,2,-4,-9
5935,-6,-1,-1,0,1,-1,2,8
5940,9,52,5,10,7,-4,-1,-2
5945,7,5,-1,-10,-14,2,0,-2
5950,-14,-32,-28,-3,5,1,-1,-8
5955,1,-10,-6,0,0,-1,-2,-2
5960,-6,-11,11,-2,-5,-1,2,7
5965,-11,0,-19,0,1,-3,-2,-1
5970,10,22,7,3,-3,0,1,6
5975,-8,-16,8,-3,-3,-2,-3,-22
5980,-3,1,-2,-7,2,3,1,1
5985,0,-32,-19,5,5,2,1,6
5990,-6,3,11,-4,-21,-1,3,10
5995,-17,-38,-10,4,3,-4,-1,2
6000,27,26,12,4,8,-2,-4,-4
6005,-6,-36,5,-3,-4,-3,-3,-4
6010,-5,-9,-5,-10,-3,-1,3,0
6015,8,62,5,3,9,2,-3,1
6020,-3,-5,-2,0,1,0,1,-1
6025,6,11,8,5,-28,-9,-4,8
6030,-4,-1,4,10,48,6,0,-5
6035,-6,-17,-11,-25,-34,0,-1,-3
6040,0,-22,3,1,5,-3,0,7
6045,4,19,8,0,2,-1,0,-4
6050,-5,-15,-7,4,-9,-5,-2,-5
6055,5,18,2,7,15,0,-1,-1
6060,-4,-15,-7,-10,-14,-1,-1,-2
6065,3,-1,9,1,-1,0,1,8
6070,-15,1,-1,0,-5,-4,-1,-1
6075,20,-8,-3,4,5,-1,0,-7
6080,5,-20,-11,14,3,1,0,-8
6085,-1,28,-1,-8,22,3,-3,-3
6090,-2,-13,1,-9,-27,-3,-2,-4
6095,-12,-7,-3,3,4,1,2,8
6100,-4,10,11,2,4,-4,-1,4
6105,8,5,7,9,-8,-6,-1,-2
6110,9,10,-18,-8,4,3,-1,-8
6115,2,-33,-30,-6,-9,-4,-4,-4
6120,-15,10,1,5,11,5,1,-9
6125,1,3,2,-8,-6,0,-2,2
6130,5,12,9,4,0,-5,1,5
6135,-2,-9,6,4,2,-3,-1,-1
6140,-4,-20,-19,-7,-6,-3,0,3
6145,-6,-26,15,5,12,5,0,0
6150,-2,-8,-5,-9,-6,-1,-1,11
6155,15,18,11,1,1,0,-5,-12
6160,-5,-11,3,2,-2,-5,-2,4
6165,0,7,-7,-8,14,4,-2,-6
6170,3,1,2,-10,-19,-3,-1,1
6175,-23,12,8,-1,-8,-5,3,14
6180,14,22,-5,-2,-2,5,-1,-17
6185,-6,-4,-13,-10,0,-2,-5,-8
6190,6,6,16,7,3,-2,-1,-1
6195,1,-32,-32,3,-6,1,1,4
6200,-27,-7,1,-2,-2,-5,1,4
6205,15,46,7,7,2,3,1,1
6210,1,-46,-24,-7,-4,-2,-3,-8
6215,1,32,41,4,-4,-6,-2,-1
6220,-2,-3,-1,-1,2,0,0,7
6225,-2,-23,-7,-1,-6,-4,2,1
6230,-23,8,4,-1,6,1,-1,2
6235,31,9,0,7,6,-4,-6,-15
6240,-3,-3,-1,-12,0,3,-1,-4
6245,3,-4,2,-3,-19,0,0,3
6250,3,16,6,-2,12,-2,0,0
6255,-22,-56,-17,-9,-12,5,0,-1
6260,3,36,14,10,-6,-9,-3,4
6265,-2,-14,-11,-4,13,-4,-5,-12
6270,-3,5,-1,1,-4,6,1,0
6275,7,8,8,2,8,-1,-1,3
6280,3,16,-9,-3,-7,0,0,2
6285,-13,-28,5,-4,-16,-6,1,6
6290,8,0,0,0,-4,-3,-2,0
6295,-41,16,3,1,8,-1,1,-14
6300,37,2,7,4,11,6,1,4
6305,9,0,-22,-8,4,3,-2,0
6310,-6,-2,7,1,-6,-4,-2,-13
6315,3,4,0,-3,-9,-2,1,9
6320,-19,3,4,9,18,-1,-1,4
6325,-13,-31,-7,-4,-12,-6,-1,-4
6330,19,22,-7,-9,1,10,1,-9
6335,1,32,-11,-4,-4,-5,-3,5
6340,-5,-71,-4,1,-8,0,-3,-9
6345,1,4,8,0,3,-3,-1,8
6350,-22,5,6,7,-10,1,0,5
6355,13,-21,6,-3,3,1,-3,-5
6360,3,20,-1,-7,-12,-6,-3,-20
6365,7,-18,11,10,5,-3,1,6
6370,-2,23,3,-5,8,-3,-5,-10
6375,1,-17,6,-3,-14,2,1,4
6380,-4,7,-11,2,30,3,4,12
6385,-17,-3,-3,-7,-4,2,-2,-13
6390,15,17,1,-4,-8,-8,-4,-3
6395,11,-14,-11,2,-8,-1,0,4
6400,-10,-4,2,-14,-2,-2,-4,-13
6405,10,14,9,-2,-8,-6,0,8
6410,-18,-4,-2,3,-3,-2,6,18
6415,4,37,14,14,10,-1,-3,-15
6420,16,-21,6,-8,-16,-1,-3,-4
6425,-3,31,3,5,18,6,-1,0
6430,2,-20,-16,2,-2,-4,-1,0
6435,-11,-18,-3,-2,3,1,2,8
6440,10,29,-2,0,-4,-3,1,13
6445,-7,28,-6,5,-15,-5,-2,-16
6450,0,-30,-3,1,8,3,-2,-8
6455,1,21,6,-5,9,2,-1,-3
6460,-9,-20,-10,5,-5,0,0,3
6465,-2,-1,-4,1,-1,0,3,8
6470,20,-7,8,1,-25,-6,-2,-6
6475,-8,4,0,-6,7,7,2,-8
6480,-3,10,5,0,3,-1,-4,-2
6485,-10,-26,-13,-1,-3,-5,-1,8
6490,3,2,1,2,-3,-3,-4,-13
6495,8,2,9,-4,-10,-4,1,14
6500,-4,8,-4,2,15,-5,-4,-22
6505,1,-22,8,2,5,10,4,2
6510,10,-44,-3,-2,-2,-6,-3,5
6515,-2,10,-27,-2,-3,1,-1,-5
6520,-7,-3,3,1,-10,0,2,11
6525,-10,2,1,-2,-4,-6,-4,-9
6530,-5,38,10,-2,12,2,0,1
6535,6,3,7,5,0,10,5,8
6540,-1,-24,-2,-2,-6,-8,-8,-14
6545,6,43,-1,1,-6,-1,-1,-5
6550,-6,-34,-7,3,4,4,3,10
6555,-15,14,-5,-8,-5,-6,-2,1
6560,17,-1,3,-4,4,6,2,5
6565,0,-4,-4,-3,-7,-6,0,-3
6570,-2,3,-9,7,8,2,-2,-6
6575,-7,4,23,2,9,1,0,4
6580,-6,-43,-35,0,-7,-1,2,5
6585,0,10,0,-10,-17,-3,-4,-2
6590,2,-25,-6,4,18,-2,1,1
6595,15,23,0,5,4,2,1,-3
6600,-14,24,14,-8,-10,-3,-2,15
6605,2,-48,-23,0,12,1,-3,-15
6610,-11,16,-7,-4,-19,0,1,-3
6615,0,-13,8,-3,6,-4,-2,2
6620,-1,2,-4,-1,0,-1,0,-3
6625,-1,12,-2,4,9,0,0,2
6630,-11,17,16,-9,-19,-6,-3,-5
6635,21,-40,-18,4,12,-1,-5,-13
6640,-12,45,4,-2,1,3,-2,1
6645,11,-7,4,-6,6,0,-1,3
6650,0,-7,-7,-2,-3,-3,-3,2
6655,-25,-15,-8,1,4,-2,1,5
6660,11,21,12,-1,-4,-4,-6,-13
6665,-9,-12,-9,14,11,3,4,0
6670,0,15,16,-15,-10,3,-3,-3
6675,4,-28,-20,-7,-7,2,4,13
6680,-6,-3,-9,-2,-2,-3,-1,-9
6685,-3,3,12,2,0,-2,0,-2
6690,-5,6,-4,7,-14,-12,-3,1
6695,-3,17,2,0,40,5,3,0
6700,12,-31,3,0,-13,1,2,3
6705,3,26,-1,-4,-3,-2,-4,-10
6710,-3,4,-1,1,9,2,0,-1
6715,6,12,15,0,-15,-4,-2,2
6720,-19,-10,-1,-10,-4,1,5,7
6725,0,39,4,-1,1,6,1,0
6730,18,-37,-3,2,2,-2,-3,-2
6735,-16,-6,2,1,-5,-8,-5,-9
6740,-15,4,3,5,25,9,4,8
6745,10,7,12,-5,-18,0,2,-1
6750,14,21,-11,-7,-6,-2,0,6
6755,5,-52,-9,-3,12,4,-2,-3
6760,-14,2,4,7,1,-7,-1,-14
6765,-3,-22,-6,3,16,-1,-1,20
6770,13,11,-2,1,3,7,4,-22
6775,-5,-28,2,1,0,-3,-6,-4
6780,-14,1,6,-10,-20,-2,-2,8
6785,13,4,-17,5,13,-4,-3,-6
6790,-6,-43,-8,-11,-2,2,5,12
6795,-9,26,10,0,-14,-8,-5,-10
6800,-1,-17,-8,4,9,3,1,1
6805,0,-5,-20,-9,2,-3,1,11
6810,-1,19,1,17,15,1,-4,-10
6815,2,-5,1,-15,-5,3,-1,-2
6820,5,-15,-8,-2,-6,-3,-1,2
6825,-17,31,16,8,-1,-5,-2,-4
6830,8,-4,-2,-9,-6,-2,-4,3
6835,27,10,2,4,-2,2,8,23
6840,-19,2,-12,-6,-7,-3,-10,-34
6845,0,-33,1,-6,-4,0,-3,0
6850,-34,-21,-6,10,-27,-6,2,5
6855,1,23,3,-4,13,3,-5,-20
6860,48,19,-21,-5,-7,4,4,12
6865,-16,-22,-4,4,12,-3,1,0
6870,0,13,5,3,5,-3,-2,3
6875,-4,4,-2,11,5,4,3,7
6880,-23,-23,-5,-6,-20,-4,3,8
6885,31,2,6,4,8,5,-1,-7
6890,-13,18,0,-2,-13,-1,1,-1
6895,14,50,5,-1,-1,-4,-3,-12
6900,-6,-31,4,-3,7,-1,4,21
6905,3,9,13,13,-13,-8,-8,-23
6910,-8,53,19,-19,-5,9,3,1
6915,-14,-57,-53,-5,-15,-9,-2,-7
6920,21,40,16,9,16,5,0,6
6925,-17,-19,4,-3,-13,-4,-1,6
6930,-4,8,-3,-3,16,6,2,-9
6935,14,26,7,0,-8,1,1,3
6940,-7,-13,23,-2,4,-3,3,8
6945,2,5,-18,-8,-16,3,-2,7
6950,6,-25,9,11,18,-1,-1,-6
6955,-8,-20,6,-11,-12,-2,3,1
6960,2,34,7,7,13,-7,-6,-5
6965,-12,42,19,-18,-6,7,1,5
6970,-8,-29,-20,0,-13,-8,-4,-1
6975,16,12,4,2,-8,-5,-2,2
6980,6,10,6,7,10,-2,-5,-16
6985,-8,-25,-15,-8,1,5,2,-4
6990,-5,42,-13,-12,-1,2,0,10
6995,-7,-2,3,4,1,-3,-3,0
7000,10,12,-4,2,-8,-1,-1,-10
7005,-1,-5,7,7,6,-1,-4,-6
7010,-1,-27,-4,2,10,-1,0,1
7015,-2,-11,2,-2,-6,1,-2,5
7020,-28,2,-2,3,5,3,-6,-30
7025,20,-28,-8,-22,-19,0,1,2
7030,5,17,1,7,0,-4,-6,-18
7035,-5,10,7,-4,-11,-1,-1,9
7040,4,11,3,9,19,-8,-2,9
7045,2,-11,-3,-22,-12,5,3,-4
7050,-6,0,-7,2,-4,-5,-3,0
7055,0,2,1,2,-3,-2,0,-2
7060,-4,-35,2,-2,-5,1,-2,4
7065,2,2,-3,6,-4,-3,1,-4
7070,1,17,17,5,11,-1,-2,1
7075,4,-12,-12,-14,-19,-4,-1,-4
7080,-3,-10,-1,-7,-6,-1,1,10
7085,-7,2,-8,13,10,-5,-3,1
7090,-2,-36,-12,-7,-6,1,1,2
7095,-5,-11,15,6,13,3,2,5
7100,14,-6,-7,-7,-3,2,-5,-24
7105,3,19,4,9,7,3,6,9
7110,-1,17,9,2,10,-2,-1,2
7115,-6,21,-5,0,-1,-2,0,7
7120,-5,-40,-17,-5,-16,-3,-1,0
7125,-16,-40,-5,1,3,-3,-4,-10
7130,11,-18,-11,6,5,0,1,1
7135,-10,21,6,2,-3,4,-1,-9
7140,2,14,5,-8,3,4,0,3
7145,-2,30,-13,2,2,2,1,7
7150,3,-30,7,-5,-9,-7,-5,-3
7155,6,-7,2,7,11,-2,0,6
7160,-10,6,-6,-3,-12,2,1,-9
7165,-2,22,12,8,-6,-1,2,-3
7170,-5,-4,-6,-14,-9,3,1,-4
7175,6,-7,-2,8,44,5,-4,-8
7180,-4,18,2,1,-6,-3,1,3
7185,3,-45,9,-4,-2,-5,1,4
7190,10,7,-10,8,-5,-1,1,4
7195,-16,-15,-16,-9,-15,-3,-5,-14
7200,0,22,3,4,5,2,1,1
7205,-5,50,10,1,2,-3,-4,-4
7210,3,9,12,4,10,3,1,4
7215,-7,-13,-4,-2,4,-5,0,7
7220,4,16,-1,-17,-13,-4,-3,-7
7225,-1,-28,-7,1,-11,-5,-7,-7
7230,0,8,7,3,16,1,2,2
7235,-14,14,-1,-4,-10,2,3,-1
7240,19,-18,-9,6,-5,-5,-1,7
7245,-1,-11,-6,6,6,-1,1,5
7250,4,7,1,-6,3,-3,-6,-12
7255,-10,47,19,5,-16,-2,-1,-4
7260,5,-34,-3,-13,4,7,1,11
7265,0,-12,-6,-5,-20,-4,-1,9
7270,-8,-2,-3,1,1,-1,-3,-12
7275,2,7,8,2,-7,-2,-2,-5
7280,-3,-7,-2,8,16,0,-1,2
7285,-2,26,9,-5,-3,0,-1,3
7290,-11,20,-1,-2,-14,-1,0,6
7295,17,-22,-1,-5,9,9,1,-13
7300,-5,-13,6,3,2,1,2,5
7305,1,-2,-3,1,-6,-7,-2,4
7310,1,-17,5,1,11,0,0,-3
7315,-1,6,-5,-11,-6,-3,-3,3
7320,-16,-9,-5,6,-12,-1,-1,-5
7325,-6,-35,-8,3,19,1,0,-3
7330,3,-4,1,-11,-9,1,2,-1
7335,16,-11,0,8,-6,1,0,1
7340,-8,16,-1,-7,9,1,-2,-9
7345,-4,5,5,-1,-3,-4,1,4
7350,-11,-19,-2,-1,-6,-2,-4,-11
7355,-9,15,1,0,-2,-3,-1,2
7360,7,50,0,3,-2,-1,-2,3
7365,15,-3,0,-3,3,2,-3,3
7370,-5,19,-15,-2,-4,0,2,-8
7375,0,-11,0,8,11,-5,-3,-1
7380,8,10,2,1,-8,4,1,12
7385,-31,3,-6,-9,7,2,0,-2
7390,16,-53,2,-1,-4,-3,-5,-19
7395,10,4,2,6,1,-4,-1,2
7400,-4,3,-1,-7,-17,-2,0,5
7405,2,-30,-10,7,16,1,2,-2
7410,-5,26,15,-13,1,-1,-3,12
7415,-11,0,-10,2,-12,3,0,-3
7420,9,-25,-6,-15,3,-3,-4,-4
7425,8,28,6,-2,-6,3,1,-2
7430,-14,-59,-11,0,-4,-6,-3,-4
7435,10,7,2,-3,-6,-4,-1,7
7440,-13,-9,-7,7,7,-2,-2,-13
7445,4,14,21,-2,2,5,-1,-9
7450,-2,0,-11,3,-18,-4,-2,16
7455,6,-7,1,-4,9,0,-1,-15
7460,0,-3,12,6,-1,-6,-3,0
7465,-10,2,-22,5,-2,-1,-1,-11
7470,5,-10,-3,3,0,-3,-2,8
7475,-9,33,3,-12,-16,5,4,12
7480,4,8,2,0,11,4,-1,-8
7485,24,14,5,7,15,1,-1,-6
7490,-13,13,-3,-6,-8,-2,-1,0
7495,4,-2,-5,0,10,-1,0,8
7500,0,-8,-16,2,1,-4,-2,-5
7505,-9,20,16,3,-4,-2,-4,0
7510,9,-1,-10,-1,2,1,4,-3
7515,2,6,7,4,5,-3,-3,-10
7520,-8,-5,5,-3,-4,-3,2,6
7525,4,-17,-10,-5,-5,6,5,7
7530,-9,45,9,0,4,0,1,-2
7535,-12,-16,-4,-1,-12,-1,-2,-1
7540,8,-7,3,10,10,-7,-1,3
7545,-19,-20,2,-11,0,5,0,3
7550,30,41,7,7,8,6,2,-6
7555,-5,-24,-7,-15,-16,-6,-2,-2
7560,-8,-18,-31,3,6,-4,-1,-3
7565,1,22,7,-4,-6,-9,-6,-4
7570,-10,-9,0,1,-13,2,1,3
7575,-11,0,4,3,15,1,-1,-8
7580,7,14,-5,-4,6,2,4,18
7585,2,-41,26,4,-1,1,-3,-10
7590,0,-42,-5,0,3,1,0,3
7595,0,-8,-18,-2,-18,-6,-2,-4
7600,-1,-1,3,-3,-4,0,0,2
7605,-10,10,-13,5,-2,-5,-1,2
7610,6,-10,3,-5,4,1,-1,8
7615,-3,-11,5,4,4,-1,1,-15
7620,-8,-31,-9,-7,2,1,-4,-8
7625,24,61,6,-5,-11,-5,0,6
7630,-13,-10,-17,3,10,-2,-1,-3
7635,0,-11,-4,8,9,-1,-1,4
7640,-5,6,1,-15,-26,5,-2,-12
7645,-23,-21,-9,1,3,-8,0,-3
7650,22,5,4,1,4,1,-4,-8
7655,1,2,1,0,17,2,4,10
7660,4,-7,8,7,-7,0,0,-7
7665,-6,4,-10,-3,-5,-1,-2,-4
7670,-1,13,-1,-3,-3,-2,2,8
7675,-3,-23,-18,-4,-4,-4,-2,-3
7680,-16,-5,15,7,-4,1,2,3
7685,2,12,-26,-14,-7,-3,0,-12
7690,-2,35,10,10,3,1,-3,2
7695,4,11,6,-8,-13,0,-1,-4
7700,-4,16,1,2,9,0,0,-1
7705,-7,-19,-9,-1,-3,-3,-2,2
7710,-7,-17,7,-4,-7,-4,1,0
7715,-3,20,0,-2,-4,3,1,20
7720,13,4,8,1,13,-5,-2,-40
7725,10,-14,-16,-6,2,5,-2,-8
7730,-4,-13,8,-2,-1,1,-3,-5
7735,-3,-8,9,-4,2,2,-1,1
7740,-7,3,3,-1,-13,-6,-1,11
7745,9,4,7,4,-1,-3,0,4
7750,1,-7,-5,2,4,1,2,1
7755,-35,-3,-3,-6,-2,-3,-3,6
7760,31,8,12,-3,-3,6,3,3
7765,1,-17,-8,3,12,-3,-6,-13
7770,-8,-9,-4,-8,-12,0,5,16
7775,2,7,6,17,15,-5,-7,-12
7780,-7,1,-6,-19,-12,8,2,9
7785,1,10,5,1,-10,-3,0,2
7790,-1,-37,-2,4,2,-4,0,3
7795,-5,13,-1,-7,11,9,4,-7
7800,14,-26,-2,9,0,-6,-2,7
7805,-5,-2,-11,-4,9,5,-1,-11
7810,-1,14,1,0,-13,-2,-2,-3
7815,11,-1,-5,-2,-13,-1,3,4
7820,-9,-2,2,2,6,-3,-3,6
7825,-9,30,14,3,-7,-1,1,3
7830,-4,-5,-11,5,10,-2,-4,-22
7835,21,-3,-15,-2,-5,-6,-6,3
7840,9,11,-15,-6,-3,-1,-4,-3
7845,9,11,9,2,-1,-3,1,11
7850,-14,5,2,-2,16,3,0,-2
7855,-11,5,9,2,-23,-3,0,-6
7860,-1,-14,-7,5,5,-1,3,10
7865,1,9,-2,3,7,-1,0,12
7870,-6,-22,8,-16,0,14,-3,-15
7875,7,0,-5,-3,-7,-5,-5,-12
7880,-6,8,-1,1,7,-1,-2,2
7885,8,-10,-7,5,-8,-1,3,5
7890,-1,6,2,2,-7,-4,2,12
7895,0,-10,0,3,13,-1,-2,-2
7900,-14,10,6,6,-13,2,1,9
7905,-4,-12,16,-8,-3,5,5,-14
7910,11,-7,-20,-1,-1,-10,-11,-11
7915,14,17,7,-7,6,9,3,4
7920,-5,-3,6,6,-1,-7,-4,-10
7925,-8,-2,-15,-2,8,2,0,11
7930,-3,5,-6,4,5,-2,1,6
7935,-6,-28,-3,4,-11,-6,-3,-8
7940,-6,1,9,-10,15,1,0,12
7945,17,23,17,-4,-16,2,0,-17
7950,-2,-22,0,-1,0,-6,-4,-12
7955,-4,3,-12,-7,-6,-1,-4,0
7960,-6,-5,-1,0,0,-3,-1,-5
7965,-6,-29,-5,3,2,-3,-4,3
7970,2,20,0,-2,-6,-2,0,5
7975,-2,26,12,-1,-6,-2,1,0
7980,0,-13,-4,-1,-14,-4,2,9
7985,-13,-15,-1,5,33,9,2,-14
7990,21,58,-13,-11,-21,2,-1,3
7995,-8,-41,-7,3,18,1,-1,1
8000,3,16,-1,-1,-11,-3,-3,-7
8005,-8,-20,3,1,-6,-7,-1,13
8010,-13,18,9,1,9,0,1,-2
8015,9,12,1,-2,-2,-2,-1,-1
8020,-13,-9,-5,6,16,9,3,10
8025,2,5,12,-3,-17,-4,-6,-25
8030,18,-8,-2,-2,15,1,2,5
8035,-1,2,-5,-10,-25,-3,-1,0
8040,-5,-1,-5,4,9,0,-4,-12
8045,-9,0,-5,5,-19,-5,-4,0
8050,-8,-5,2,1,17,0,1,0
8055,-1,-1,13,0,1,0,1,3
8060,-3,-16,-8,-4,7,0,1,3
8065,6,17,-10,-7,-15,0,0,7
8070,9,15,10,5,-3,-2,-5,-5
8075,-3,-41,-8,-4,6,1,-1,-3
8080,7,7,-11,-5,-18,-5,0,-1
8085,-6,-11,-2,5,23,0,-3,-6
8090,-12,-5,5,-1,-18,-1,2,3
8095,-9,12,5,1,9,0,-1,-4
8100,8,-4,-18,-4,-4,-5,-4,-7
8105,2,3,9,8,19,0,0,9
8110,-14,-20,-23,-16,-15,5,0,-2
8115,4,35,4,4,-6,-6,-1,-2
8120,8,4,6,-7,8,3,-2,-9
8125,-1,-4,-12,6,13,1,-2,-7
8130,-4,-3,4,2,2,0,0,2
8135,-8,-7,-7,1,6,0,-1,0
8140,-2,14,6,-1,-19,-3,0,1
8145,3,-21,-1,6,30,5,0,6
8150,5,25,7,-1,-16,-4,-4,-4
8155,-17,-48,-17,0,7,4,3,1
8160,13,4,2,3,-9,-4,-4,-3
8165,18,0,1,-11,-2,-1,-1,2
8170,-9,-4,2,0,-4,-3,-3,-11
8175,7,5,2,2,5,-2,-2,3
8180,-16,-10,-6,-3,-5,-2,1,4
8185,-11,-8,1,-1,-19,-6,2,13
8190,12,20,22,2,9,-2,-6,-14
8195,2,1,-10,-6,3,2,-1,-4
8200,-7,-16,-3,-8,-5,2,0,-6
8205,8,25,-9,-7,-4,3,-2,7
8210,-8,-30,0,8,16,-1,3,11
8215,-6,0,1,-2,-14,-3,-3,-10
8220,9,-15,-11,10,4,-2,-3,-2
8225,2,24,-8,-10,11,0,-3,-5
8230,-15,-56,-4,7,-1,0,2,8
8235,13,35,2,-7,-6,0,-2,-4
8240,3,12,4,3,-1,-5,-1,1
8245,-4,-15,-8,-9,-20,1,5,10
8250,-4,8,-8,2,-8,-6,-5,-17
8255,-2,-11,17,2,31,7,1,2
8260,0,10,4,5,3,3,0,-4
8265,-4,10,-2,4,-14,-6,-3,1
8270,-1,-37,-7,-1,6,-5,0,11
8275,-4,21,3,-12,-15,4,1,-6
8280,3,0,-1,-6,-2,-1,-3,-3
8285,-1,-7,0,5,9,2,1,-3
8290,-13,23,2,-6,-9,-5,-4,-2
8295,27,-6,4,6,0,-5,1,1
8300,-9,1,12,-2,-6,1,0,1
8305,5,-20,-23,-9,10,-2,-2,0
8310,-21,8,-4,2,-6,4,4,9
8315,8,-31,-5,5,-4,-6,-2,-8
8320,-2,26,-1,-8,5,3,-2,-1
8325,-3,7,8,0,-16,-4,-1,-3
8330,6,16,-1,-2,6,0,-2,-8
8335,-7,6,-4,-1,-3,0,-2,9
8340,-3,-26,-6,2,3,0,0,2
8345,4,19,5,3,4,-3,-2,-7
8350,-7,-9,17,-5,3,8,2,4
8355,-1,7,-15,0,-13,-1,-1,3
8360,13,6,16,4,12,-1,-3,-8
8365,-9,2,-4,-9,-19,-4,-1,3
8370,22,1,-1,-2,-6,-3,-5,-8
8375,-10,-24,-5,7,7,-6,-1,2
8380,-11,16,16,-5,-15,-3,3,-1
8385,-14,-31,-8,1,42,6,3,5
8390,8,11,3,-7,-34,-1,-2,-16
8395,5,-6,-8,-4,3,-5,-5,1
8400,3,11,3,2,-15,-2,-1,0
8405,-1,-21,15,2,6,3,0,-2
8410,-1,17,-11,2,10,-1,-1,2
8415,-7,-9,-1,3,-1,2,3,1
8420,6,9,0,-3,1,-1,-2,1
8425,1,0,-1,-1,-16,-8,-2,-4
8430,2,12,0,4,9,0,2,5
8435,-11,-7,-1,-8,-10,0,-3,-12
8440,-5,-17,-5,1,12,0,0,1
8445,-2,11,0,1,-5,-2,-1,-12
8450,6,12,-5,-6,1,0,0,6
8455,0,-14,3,0,-1,1,-3,1
8460,-4,-15,-6,-1,1,0,0,0
8465,5,0,9,-7,-9,-3,-3,3
8470,-5,-12,1,12,17,4,3,-1
8475,9,10,6,-1,-5,5,-1,-7
8480,-4,11,-28,-8,11,-2,-4,-7
8485,-9,-35,2,2,-2,-2,1,0
8490,10,-18,-10,1,-11,-2,0,6
8495,-2,20,11,-1,3,2,2,2
8500,-5,-29,0,9,4,-10,-6,-3
8505,15,13,-5,-9,-17,1,-3,-7
8510,-1,8,3,-4,-6,-3,1,12
8515,-11,-18,-6,-2,-5,-1,0,-5
8520,7,18,5,7,12,-2,2,7
8525,-9,0,-2,-10,-23,-3,1,-1
8530,-5,-17,-3,1,9,-1,-2,3
8535,6,15,6,-1,-18,-3,2,0
8540,-4,-10,6,9,17,2,-3,-7
8545,11,12,-10,-5,-7,-1,3,9
8550,-7,1,-10,-3,9,-1,-4,-11
8555,-1,-28,1,-1,12,-3,1,12
8560,-15,-3,5,-3,-20,2,-1,-3
8565,14,-29,-15,7,7,-1,-3,-6
8570,1,14,12,-8,-15,-2,-2,-1
8575,-9,4,-8,6,7,-4,1,3
8580,-5,-8,2,-12,-6,-1,-2,1
8585,0,4,15,-2,1,4,-3,-6
8590,-12,11,-13,0,-3,-4,0,6
8595,14,29,7,5,7,1,-5,-12
8600,3,-28,-8,-9,-4,2,4,12
8605,-13,13,-6,11,6,-4,-6,-18
8610,-9,-17,0,-2,-1,-1,1,-5
8615,0,4,-5,-9,-2,4,2,9
8620,3,2,-12,0,5,1,-1,-17
8625,-2,-24,5,25,28,-6,-3,9
8630,7,-11,-6,-32,-16,13,6,6
8635,-31,-11,-1,1,-1,-2,-3,-7
8640,26,3,11,1,-7,-5,-1,4
8645,-7,-30,-19,-2,0,-1,-3,-14
8650,-1,6,1,12,3,-3,-4,-4
8655,1,-24,-4,-4,1,3,1,9
8660,-7,13,-2,-8,0,0,-2,-15
8665,6,35,16,0,6,-1,0,3
8670,-7,-32,-1,6,3,-1,0,0
8675,10,-6,-8,-3,-10,-2,1,6
8680,-11,27,1,4,-6,-2,-1,0
8685,0,-32,-3,-2,-6,0,-1,-4
8690,10,1,11,5,6,-3,-2,-5
8695,-2,21,5,-5,-11,0,-1,-6
8700,-10,-2,-17,-3,1,-3,-3,-2
8705,6,36,4,-2,6,1,2,13
8710,-10,-13,-1,3,-1,0,0,-8
8715,14,-11,-4,7,9,-4,-4,-1
8720,-9,21,3,1,-7,-4,-1,-2
8725,0,9,1,-15,-11,3,2,8
8730,3,17,-3,7,13,-7,-2,-5
8735,-7,8,5,1,-1,3,-1,0
8740,-8,-30,-19,-6,2,-3,-3,-7
8745,4,-5,-1,3,0,-4,-2,4
8750,12,17,0,2,-2,3,0,6
8755,-9,15,-6,-3,12,0,1,-7
8760,-12,-42,10,4,-17,-3,-3,-1
8765,0,20,6,-8,2,6,-1,-14
8770,15,23,-5,0,-1,-5,-4,-6
8775,-3,5,10,-5,-10,-9,-5,-3
8780,-2,10,2,3,9,3,4,7
8785,-9,-1,1,3,-15,-6,0,3
8790,-17,-17,7,2,7,0,1,3
8795,6,12,-2,-11,0,9,6,6
8800,16,7,8,7,6,4,-4,-11
8805,2,17,-11,-3,-6,0,1,4
8810,-8,-20,3,2,-1,-6,-5,3
8815,-15,9,4,3,5,-3,-1,9
8820,14,-10,-16,-5,-11,0,0,-2
8825,-10,6,2,5,-5,-5,-2,-3
8830,-6,-5,3,0,8,4,1,3
8835,10,9,0,5,4,-2,-5,-4
8840,3,-21,-2,-5,-3,1,0,1
8845,-6,-15,-1,-12,-7,0,-2,2
8850,-1,37,-6,-1,1,-1,2,-1
8855,0,-29,-1,0,-1,1,-1,1
8860,-4,2,0,-1,5,0,-1,3
8865,3,-3,10,13,17,2,1,3
8870,-1,3,-12,-20,-30,-2,-3,-7
8875,6,6,-3,8,12,-6,-5,-7
8880,-2,8,8,-3,3,3,2,4
8885,-9,-3,10,1,-3,-1,1,-2
8890,10,5,11,-2,1,1,-2,-1
8895,-7,-26,-22,3,-8,-4,-3,-5
8900,-3,8,-7,-9,0,0,-1,-3
8905,9,5,-4,-8,-4,4,4,14
8910,-7,15,10,14,6,-4,-4,-18
8915,-6,12,9,-10,-3,5,0,-7
8920,5,-15,-2,7,-6,-7,-2,1
8925,-5,-9,-8,-3,-2,2,-1,0
8930,5,-7,-1,-1,3,-2,-2,10
8935,-1,22,7,8,6,3,1,2
8940,-7,27,10,4,-3,4,1,-8
8945,6,4,6,-4,-15,0,-1,-1
8950,-8,-10,-1,0,20,-4,-2,-3
8955,7,-1,-11,-9,-12,-6,-1,-3
8960,0,9,3,4,-3,-2,1,11
8965,-3,-33,4,5,11,1,0,-1
8970,2,11,-1,-15,-14,-2,-2,-4
8975,-11,-22,7,3,-10,-1,1,-1
8980,8,0,-8,-2,4,2,-2,-1
8985,-2,-15,-10,-6,-11,-5,-2,-7
8990,-8,24,-3,3,11,3,-2,-3
8995,25,-32,-6,2,11,-1,4,10
9000,-22,-16,-4,-7,-7,0,-3,-5
9005,5,38,-4,-10,10,0,-1,-2
9010,-6,-18,-4,3,-16,5,5,8
9015,0,26,-3,-2,-1,-2,-1,-2
9020,4,-15,9,3,0,-4,-2,-1
9025,-2,-7,6,11,23,1,-4,-10
9030,-2,6,-27,-12,-13,-3,-1,-1
9035,-3,-13,6,3,4,1,-1,6
9040,-3,9,-5,-8,1,-3,3,7
9045,-10,-6,7,8,-16,-2,-2,-4
9050,16,-35,-3,-1,-8,1,-2,-2
9055,-9,-3,-1,-12,-6,0,0,-9
9060,2,16,-12,9,13,1,4,8
9065,7,-3,-17,-6,-14,-7,-1,-3
9070,-6,9,6,4,18,4,-3,1
9075,11,-58,-6,-3,1,-2,-2,8
9080,-10,14,16,10,12,2,-3,-15
9085,-2,29,-2,-16,-7,4,1,0
9090,7,-32,-16,3,-5,-6,-2,3
9095,-12,21,5,-1,-1,-5,-1,-4
9100,-2,-7,1,-1,10,1,-1,-1
9105,-4,-21,13,6,2,-1,-1,-2
9110,4,11,-5,-3,-7,-2,-1,9
9115,-2,1,-9,0,-7,-3,-3,-8
9120,-1,-4,-1,-5,-5,-1,1,7
9125,-8,5,-3,3,-3,-3,-5,-15
9130,24,7,7,-3,1,0,2,-1
9135,-6,8,5,1,6,0,-1,3
9140,-2,-13,-15,-6,-9,-2,-2,-7
9145,3,5,15,0,3,0,1,9
9150,-22,-7,8,5,2,2,1,-7
9155,11,22,-12,0,-5,6,0,-3
9160,-6,-15,4,-4,3,-5,-2,-8
9165,2,-21,-27,-4,-13,1,-3,1
9170,5,-5,2,-1,0,-3,5,16
9175,-1,41,13,7,-3,-4,-3,-11
9180,-5,-22,-9,-3,6,0,-1,1
9185,-21,15,-6,-1,11,3,0,10
9190,40,26,6,-14,-20,-2,-2,-15
9195,-9,-5,11,3,-15,-6,-2,1
9200,3,1,-16,-4,2,1,6,12
9205,-11,1,-10,6,4,-8,-6,-11
9210,2,-28,10,0,15,4,-1,-1
9215,-10,-2,6,4,-1,-1,0,-7
9220,10,14,6,2,-8,3,-2,1
9225,-8,-29,-9,-5,-3,0,1,3
9230,-15,19,3,0,-7,-1,-2,-4
9235,0,-23,-17,-2,11,1,-3,-4
9240,0,-9,-5,-5,-18,-6,-4,-3
9245,15,41,4,8,2,1,3,8
9250,-25,-7,13,-2,10,2,-3,-9
9255,7,-22,-15,-13,-7,2,1,3
9260,-1,12,8,-3,-11,-5,-1,3
9265,14,5,7,1,-2,-4,-1,-8
9270,-3,-43,-12,22,17,-1,1,0
9275,-7,56,-28,0,-4,-3,-2,6
9280,-1,-49,6,-15,-11,9,4,-5
9285,3,13,9,-4,6,-8,-5,-1
9290,-9,-15,-3,4,2,2,-2,0
9295,0,5,7,-9,0,1,2,11
9300,3,19,0,10,1,-7,-7,-14
9305,-3,-2,-5,-7,6,1,-1,-2
9310,-4,-21,-8,-7,-9,-3,0,3
9315,-6,-14,3,3,10,1,-3,-4
9320,13,33,2,3,1,-5,0,7
9325,-21,-39,3,-3,-2,5,3,-5
9330,15,19,0,-3,-13,-5,-4,-1
9335,-3,-9,8,5,24,-1,1,-2
9340,-9,-3,-2,-9,-3,2,2,13
9345,3,41,3,10,-2,-4,-2,-4
9350,1,-52,2,-3,-6,-3,3,7
9355,3,-37,-22,-22,-8,8,1,-1
9360,-8,6,2,2,6,1,-3,-14
9365,2,4,1,0,-1,-2,-1,1
9370,-2,26,3,4,-2,-6,0,3
9375,2,-9,3,5,-5,-4,-1,2
9380,6,-15,-4,1,-1,1,-1,3
9385,-19,0,11,-6,-16,-3,7,-1
9390,4,37,-3,1,4,-4,-7,-21
9395,23,-11,1,-9,-7,2,-2,3
9400,-3,18,3,2,-4,-5,-4,-3
9405,10,-40,-6,-5,-3,1,0,14
9410,-13,28,4,-1,-3,0,-2,-8
9415,-17,-4,-1,3,6,0,2,-6
9420,-3,36,3,1,-1,-4,-1,2
9425,17,-57,-5,6,5,-3,-1,7
9430,-11,-34,-5,-17,9,8,-4,-12
9435,-2,5,1,2,-4,3,-1,0
9440,-7,-13,1,4,8,-4,-1,-6
9445,-6,5,-5,-5,-12,1,0,8
9450,7,23,-1,6,-2,1,0,2
9455,5,-7,8,1,-7,-7,-4,-1
9460,-26,-28,-1,1,4,3,3,0
9465,7,47,2,-1,-9,-7,-3,-4
9470,13,-9,-25,-7,-3,8,0,1
9475,-8,10,8,-1,-5,-2,1,1
9480,9,-10,-4,-4,-4,-2,-2,2
9485,0,-7,-4,1,2,-1,-3,-5
9490,-11,14,15,-3,-12,-3,3,7
9495,-11,-8,-8,8,4,-5,-3,-1
9500,26,-13,-1,-1,-5,-1,-2,-11
9505,5,12,5,-15,0,7,1,-5
9510,-3,-14,-6,2,4,-2,-1,7
9515,-5,-2,-2,-1,-6,-4,-2,1
9520,-8,1,-1,7,22,2,0,-4
9525,7,23,3,1,-10,0,-1,0
9530,1,2,-3,-2,-4,-3,-3,-1
9535,-11,-7,-1,2,5,-3,-2,-5
9540,6,12,-5,-9,-22,-1,-2,1
9545,-15,-8,-11,3,22,1,-1,-4
9550,8,-18,9,0,-1,-1,-1,5
9555,9,-1,-16,1,-5,0,3,8
9560,-6,18,4,-1,-2,1,0,0
9565,6,-32,3,1,5,1,-4,-14
9570,-22,-17,-1,6,-1,-1,-2,1
9575,24,26,9,-10,1,1,0,-7
9580,-17,-30,1,4,5,-1,-3,-9
9585,6,8,1,2,-12,-2,1,7
9590,-4,0,-10,-10,23,7,1,1
9595,-4,-1,9,-1,-7,-3,0,3
9600,-1,0,2,3,9,-2,-1,-1
9605,-5,-4,-5,4,-1,1,-3,-19
9610,-7,8,-9,3,5,-6,0,8
9615,-7,9,22,-1,0,8,-1,-14
9620,21,-1,-14,-11,-4,1,0,5
9625,0,2,0,3,5,5,0,10
9630,17,-2,-2,5,3,-1,2,-4
9635,-17,-7,-2,-2,2,-3,-4,-16
9640,-36,-2,3,2,-4,-4,-1,-7
9645,42,42,12,-3,-9,1,-2,8
9650,-9,12,-19,0,-5,-6,-4,-5
9655,8,-44,9,3,7,4,1,3
9660,1,-10,9,-4,-6,5,2,4
9665,-16,34,-25,-4,0,-4,-1,-6
9670,3,26,20,4,-10,-4,0,8
9675,-12,-6,-8,-5,-1,-5,-3,-10
9680,9,11,-1,-2,-5,-3,1,5
9685,-6,-25,4,-6,-3,3,4,8
9690,0,2,-5,0,-5,-4,-2,-6
9695,3,16,-6,4,-5,-2,1,7
9700,5,3,1,-3,0,-2,-2,-4
9705,-6,-15,-9,0,7,-5,-3,-4
9710,-5,0,2,1,-5,0,1,-1
9715,1,-18,-19,-5,-1,3,0,-3
9720,-2,8,4,4,4,1,-2,-6
9725,-17,-21,4,-3,-5,-3,-2,0
9730,13,-8,-7,9,-1,2,2,6
9735,-5,-32,4,5,2,-5,-3,-3
9740,5,-3,-5,-14,-11,1,0,5
9745,-9,-11,-7,2,10,0,-3,-7
9750,5,-5,8,-6,-8,-3,-1,1
9755,3,25,-3,3,-4,-4,-1,4
9760,-7,-6,-3,3,3,-3,0,-5
9765,7,-15,-4,-1,-2,-3,1,-3
9770,-9,-17,4,-2,4,1,-2,-17
9775,17,11,8,-3,-13,2,-1,3
9780,-4,35,0,7,-3,-2,-2,-4
9785,-16,-16,1,-2,15,5,-3,-9
9790,5,16,8,2,-1,-3,1,9
9795,-10,-20,-2,-4,-9,-3,1,-1
9800,0,38,-3,4,13,-1,0,4
9805,19,-9,-7,-7,-27,-6,1,9
9810,-6,8,2,-2,4,-1,-3,-15
9815,0,28,8,2,3,-3,-6,-1
9820,1,-2,-2,-6,-7,-1,2,3
9825,-8,9,0,7,6,-2,-2,-1
9830,10,-15,0,-5,-6,-3,2,12
9835,-6,18,4,3,-5,-4,0,-6
9840,3,-9,-16,18,19,1,-1,0
9845,-21,-19,3,-15,-9,2,-1,3
9850,19,8,-8,-10,-7,2,-4,-22
9855,1,-4,-8,0,9,-2,1,-1
9860,0,-32,-9,1,-1,-2,-3,0
9865,-14,20,9,4,-6,-4,-2,2
9870,-8,-14,-3,4,-3,-2,0,4
9875,-1,12,-13,-4,9,8,-1,-2
9880,-3,-96,8,-4,-11,-4,0,-1
9885,16,16,5,6,21,3,1,8
9890,-21,-4,-1,-3,-3,-1,0,-7
9895,5,9,0,6,9,-6,-1,9
9900,-9,7,5,-2,-6,2,0,-4
9905,10,1,-3,-3,-4,1,-2,-8
9910,1,-1,6,-8,-12,5,0,5
9915,1,-7,-3,6,4,-4,0,4
9920,-18,9,-2,-10,-7,0,-2,-2
9925,39,3,-2,14,7,-6,-2,-13
9930,-12,-1,-8,-8,-8,-4,-7,-4
9935,7,5,9,-11,-19,0,2,2
9940,-1,14,1,-3,-8,-1,-3,-2
9945,-18,3,-3,-9,-18,0,0,-4
9950,1,-11,0,6,28,-3,-1,7
9955,-6,-15,-6,6,13,3,-2,-4
9960,10,21,6,-6,-9,2,2,9
9965,-9,-2,0,-8,-11,-2,-1,-8
9970,16,33,13,-7,1,-1,-4,3
9975,-22,-70,-16,4,-22,-7,-5,-11
9980,16,19,-1,-5,25,9,5,5
9985,-9,3,-2,1,1,-2,0,3
9990,-11,3,7,7,-6,-3,0,-1
9995,-15,11,-3,-4,2,2,0,-1
10000,25,28,-7,-6,-5,-3,-4,0
10005,-3,-1,3,4,4,-1,-1,4
10010,-8,2,-10,-6,-4,1,2,3
10015,7,10,8,4,7,-1,0,2
10020,-21,3,-2,-4,-6,-3,-6,-20
10025,10,-6,-1,1,5,2,-3,-8
10030,-4,-4,-2,5,-3,0,2,6
10035,3,16,0,-6,1,-1,-1,-8
10040,2,-11,-3,0,2,-2,0,5
10045,6,-11,-7,8,5,-2,1,12
10050,-13,-12,-10,-11,-11,2,-2,-12
10055,0,30,4,-1,0,-1,-3,2
10060,-4,2,16,3,-3,1,1,-2
10065,7,-2,-7,5,-9,-4,-3,-1
10070,3,-7,7,2,17,3,3,7
10075,1,-8,-10,-3,0,2,1,2
10080,6,11,-8,-1,2,-4,-5,-2
10085,-18,-16,-5,-4,-2,2,3,7
10090,5,11,-5,5,-3,-2,-3,-5
10095,2,-36,14,-8,-2,0,0,0
10100,-11,-17,-31,1,-9,-4,-4,4
10105,5,12,12,-3,6,1,2,-3
10110,-2,-1,2,-1,-6,-9,-4,2
10115,-3,11,9,7,16,12,2,-2
10120,3,8,-1,0,-2,-2,4,10
10125,7,-64,1,-4,0,0,-2,-5
10130,-10,-27,-3,-1,-4,-2,-5,-14
10135,-2,50,-3,-2,-7,-7,-2,2
10140,3,-6,7,1,1,2,2,7
10145,1,15,3,-3,0,1,-1,4
10150,4,-11,-1,3,8,5,1,-6
10155,-6,-14,-17,-4,-10,-5,-3,-3
10160,-4,-6,3,2,2,-1,0,2
10165,-7,10,6,-1,1,0,-2,-6
10170,4,7,7,-4,-7,-1,1,5
10175,-3,-18,-4,-2,-3,-2,0,-1
10180,5,0,3,5,7,-2,-2,-5
10185,-4,-4,-6,-5,-9,0,0,0
10190,-3,3,-4,4,16,-1,0,2
10195,10,5,-4,-11,-7,1,0,2
10200,-13,0,12,2,-4,-4,-3,-12
10205,-3,20,-3,-5,-4,4,0,-6
10210,14,15,-4,4,12,7,4,13
10215,-10,-22,0,0,1,-4,-2,-3
10220,14,-3,-1,1,0,-1,-2,-13
10225,-3,31,-9,-4,-8,-5,-3,-4
10230,1,3,0,-2,-8,-3,-3,-12
10235,11,0,17,-4,-4,-4,-1,10
10240,-13,-8,1,-4,-9,-6,0,-7
10245,-10,-18,-4,6,6,-1,-3,1
10250,-2,16,-11,-9,0,-1,-1,1
10255,0,-1,8,0,-6,-2,-1,0
10260,-5,-8,-23,2,-1,1,5,12
10265,2,17,15,-4,19,5,0,-10
10270,-4,-30,-21,5,-10,-2,0,-2
10275,0,-5,-2,3,-4,1,-1,2
10280,1,-4,1,-4,1,-1,-1,1
10285,-1,3,-4,2,-8,-2,1,6
10290,-3,5,3,3,10,3,2,9
10295,8,4,-7,-4,-9,-5,-4,-21
10300,-17,7,2,5,1,2,1,8
10305,19,2,-1,1,-1,-5,-5,-15
10310,-10,15,10,-14,-13,1,0,0
10315,3,-20,5,1,3,-1,2,-1
10320,2,-7,-1,-1,1,0,-1,-1
10325,-18,-14,3,1,10,5,1,3
10330,3,-11,-2,7,7,-3,-2,2
10335,4,20,-6,-4,-8,2,2,-3
10340,-4,29,5,-5,9,-2,-3,3
10345,-7,-53,-18,-3,-20,0,0,-10
10350,-1,-16,5,1,5,1,-2,-1
10355,-12,18,2,-2,-2,-5,0,7
10360,23,10,4,-1,2,3,-1,-4
10365,-27,6,6,6,-1,-6,2,19
10370,22,29,-7,-8,-18,-4,-4,-27
10375,6,-4,9,-8,-14,-2,-2,-1
10380,-4,-18,-6,-1,14,4,0,2
10385,6,6,9,2,0,-3,0,5
10390,-21,-30,-8,6,1,-1,-1,4
10395,-8,33,1,-8,-5,-4,-3,0
10400,11,2,12,4,-15,-3,0,-1
10405,-7,-26,-6,1,8,3,-2,-8
10410,-4,1,-12,4,-9,-3,0,4
10415,11,3,-10,0,12,1,0,-3
10420,-4,-10,-2,9,23,8,4,12
10425,0,14,-7,-14,-15,-4,-2,-4
10430,-7,6,14,-5,1,0,0,-7
10435,13,-3,-4,9,-2,-3,-1,6
10440,-12,-26,-6,0,-9,-8,-3,-11
10445,9,34,-12,-7,11,7,1,4
10450,9,7,12,-2,-6,-1,1,5
10455,-14,17,-3,8,12,-1,-1,-1
10460,-6,-15,0,-10,-12,3,-1,-7
10465,-5,-7,6,2,3,-4,-3,-3
10470,7,22,-6,-4,-6,-3,-1,3
10475,-10,-21,-1,2,12,1,1,-2
10480,1,21,-16,-2,5,4,-1,4
10485,15,-9,4,-2,-8,0,0,2
10490,-12,-1,2,3,14,-1,-3,-7
10495,-7,-18,-2,-4,-10,8,3,0
10500,20,16,2,-3,-9,-5,-3,0
10505,-12,-52,7,8,-5,-8,-1,-11
10510,7,15,-8,-6,22,15,3,3
10515,-5,-28,-16,-3,-6,-3,-1,2
10520,-11,2,-2,-15,-4,4,0,-7
10525,0,4,5,7,-7,-4,-4,1
10530,4,22,19,2,-4,-5,-1,6
10535,-14,-19,-14,5,6,3,0,-5
10540,13,1,2,6,27,5,2,5
10545,-7,26,4,-6,2,-2,-1,-1
10550,-18,-37,-16,6,-6,0,2,-2
10555,31,31,2,-14,-4,5,1,9
10560,14,-4,7,11,-2,-5,-5,-12
10565,-16,3,-5,-4,5,-1,1,-6
10570,-1,-3,-3,-1,-17,-5,1,3
10575,-11,-1,-6,6,7,-6,-2,2
10580,-12,-44,-4,-10,-3,1,0,-3
10585,11,27,14,8,0,3,-2,-3
10590,-7,-42,-23,-11,-17,-4,-3,-2
10595,2,9,-5,9,4,-6,-1,1
10600,-6,11,1,-1,-17,-4,-2,-6
10605,1,17,3,-6,10,4,2,8
10610,4,-42,3,6,7,0,-3,-8
10615,-8,-5,-1,0,-12,-5,0,5
10620,-7,14,5,-9,-2,0,-3,-13
10625,22,-3,-6,2,-1,-2,-4,-1
10630,4,-1,4,-1,9,-1,-1,3
10635,-4,6,8,2,-9,-1,-2,-7
10640,-5,-26,-1,4,9,-5,1,7
10645,-11,16,1,-12,-17,-1,-3,-1
10650,-7,-36,-16,-12,0,-1,-3,-4
10655,0,9,12,4,4,-1,1,-3
10660,-5,0,-17,1,-13,-5,-7,-7
10665,3,-11,-1,5,23,4,-1,1
10670,10,14,-1,0,-7,-1,1,6
10675,-5,-5,3,0,14,-2,0,-2
10680,3,17,-6,-18,-17,2,3,19
10685,-30,-16,4,2,-7,-7,-1,-24
10690,29,17,14,-2,-3,5,-4,-6
10695,9,-1,-11,1,1,-3,-3,-1
10700,10,1,0,6,2,-2,4,5
10705,6,3,-12,-5,-1,-2,5,26
10710,-31,44,20,6,4,-4,-4,-16
10715,-3,-43,-5,-14,-7,5,3,-3
10720,-9,12,12,1,-2,-3,-6,-14
10725,-1,5,-7,2,-5,-1,1,9
10730,8,14,10,-3,-3,-3,-1,1
10735,5,2,-5,3,-7,-1,0,4
10740,1,0,-10,3,13,-2,5,15
10745,-17,-22,8,-2,-2,2,-1,-21
10750,18,17,2,2,9,-2,-2,-3
10755,-4,-6,14,3,-1,0,-4,-7
10760,5,-19,-1,-6,-4,-4,-1,1
10765,8,13,-8,-1,-13,-1,0,2
10770,-1,8,-5,0,13,-2,2,12
10775,-24,-34,4,-1,-6,1,0,-17
10780,-8,-5,-4,8,-3,-1,0,-4
10785,-1,27,-9,6,7,-2,-5,-14
10790,1,8,15,-8,-6,3,0,8
10795,3,-8,-8,1,18,6,0,9
10800,2,9,0,-2,0,-3,-5,-15
10805,5,-25,-1,5,1,2,-2,0
10810,-14,-11,-9,0,-31,-9,2,6
10815,-7,21,10,3,40,12,-2,-2
10820,16,-21,5,-6,-8,2,2,7
10825,5,-12,-6,-4,-3,-1,2,9
10830,6,-4,-5,-1,-7,-2,-4,-15
10835,-4,18,12,-10,-20,-8,-4,2
10840,-21,11,1,4,7,-1,-1,0
10845,26,13,1,-1,3,1,-1,2
10850,-10,13,-4,-1,0,0,5,10
10855,-1,-17,-2,-4,-13,-7,-5,-10
10860,-4,21,1,-4,-2,1,-3,-7
10865,-5,1,-7,-9,-5,0,-1,4
10870,1,-7,2,-1,0,-4,-3,-4
10875,11,45,5,1,8,-2,2,0
10880,-8,-50,-13,-2,-24,-2,2,1
10885,-11,-12,-2,-2,26,3,-1,0
10890,12,15,-12,-3,-21,-2,-2,1
10895,-12,-42,0,4,3,-1,1,0
10900,16,42,13,-3,-11,1,-1,0
10905,-13,-17,-14,3,5,-5,1,-2
10910,-13,-32,8,-6,3,6,0,6
10915,11,17,-5,-2,-14,-7,-3,8
10920,-13,-13,-8,11,10,5,4,-17
10925,-4,23,11,2,-6,-1,-1,-1
10930,-3,-10,-21,0,17,2,-5,-4
10935,16,-10,-13,-7,-9,0,0,11
10940,-6,11,12,-4,3,1,-2,2
10945,16,6,5,0,-12,-4,-1,2
10950,-17,-10,-3,10,19,-5,0,-1
10955,5,8,-7,0,-8,1,2,0
10960,10,5,-9,-5,4,1,-3,1
10965,-3,-2,-3,-9,-6,-1,0,1
10970,2,28,8,-3,-1,0,-1,-5
10975,-11,-18,-13,-5,-9,-3,1,5
10980,-5,5,11,7,-10,-5,-4,-2
10985,7,6,9,-4,5,2,1,4
10990,-1,3,10,3,-9,-2,1,-2
10995,-2,10,-2,4,5,0,-1,-8
11000,-5,-18,-7,-8,10,3,1,2
11005,4,-5,-14,4,-17,0,-2,-2
11010,10,-10,0,-9,-9,0,2,3
11015,-16,-17,-8,9,11,5,2,4
11020,5,-37,5,3,-8,-10,-4,-16
11025,-5,65,8,-1,14,6,-1,-12
11030,11,-38,-8,0,4,0,-3,-9
11035,4,7,1,7,5,-4,-3,1
11040,-15,11,-1,-17,-5,0,-1,8
11045,7,-5,-1,2,0,1,4,7
11050,-4,-9,-8,-7,-7,2,-2,-5
11055,6,42,13,0,13,4,3,1
11060,-2,-21,-3,6,2,-1,-4,-6
11065,-5,-2,3,-3,-14,-5,-1,0
11070,-15,20,4,8,30,4,1,10
11075,6,3,-15,-11,-8,4,2,-20
11080,7,17,3,-2,12,0,-4,-1
11085,7,-17,-1,-2,-14,-3,-1,9
11090,-5,17,9,3,-14,-6,-2,-2
11095,-25,-43,-25,1,-1,-6,-4,3
11100,19,8,3,3,8,-2,3,5
11105,-4,-14,-14,-24,-25,-2,-5,-7
11110,-6,-7,-5,-4,6,4,0,2
11115,5,20,6,-1,2,-3,-2,-3
11120,-4,-8,-7,4,-12,-1,0,3
11125,7,-14,10,3,12,-3,0,6
11130,-11,17,4,-3,-23,-1,2,-2
11135,8,-32,-1,-1,-1,-2,-2,-1
11140,2,19,2,6,-10,-1,0,-7
11145,-19,-6,-6,1,11,-3,3,12
11150,12,8,-1,-4,-2,-6,-3,-6
11155,28,9,2,4,10,0,-1,-1
11160,-9,9,7,4,-1,-3,1,12
11165,-2,-8,-44,-11,-3,3,-3,-11
11170,-8,-6,-2,-1,-8,2,1,6
11175,-2,9,6,-3,7,-1,1,3
11180,-6,0,0,5,9,-2,-5,-5
11185,2,6,14,-7,-22,-1,0,4
11190,4,-3,2,8,32,2,1,-8
11195,-4,34,9,-14,-17,3,-2,-10
11200,-1,1,3,2,2,-4,1,10
11205,-15,-28,11,8,5,1,-4,-15
11210,5,11,-1,7,2,-7,1,6
11215,8,-13,15,-3,-3,1,-3,2
11220,-1,16,-1,-8,0,2,3,7
11225,-1,-2,-7,5,8,-1,-5,-4
11230,14,-12,-7,-7,-34,-2,-1,1
11235,-15,-32,-3,-1,12,-5,-1,-2
11240,1,0,4,-5,-8,2,0,-2
11245,-7,-4,5,-1,-1,1,3,-4
11250,-2,-5,-6,7,12,-3,-4,-6
11255,-2,-2,7,1,-4,2,1,2
11260,1,13,-6,-4,-6,2,-1,-5
11265,0,-1,2,4,-2,-8,-1,1
11270,-4,-28,-4,-3,6,3,-2,0
11275,-2,20,-2,4,-6,-4,-2,-2
11280,3,-21,-17,-5,12,5,1,2
11285,2,28,16,6,3,1,-1,0
11290,-4,8,-16,-2,11,2,0,1
11295,1,40,6,-4,-18,1,1,0
11300,-8,-67,0,-1,-14,-5,-3,-6
11305,3,-4,9,5,12,-1,-2,0
11310,1,25,4,-6,5,3,0,0
11315,0,-7,3,-11,-19,0,2,3
11320,-1,9,-16,1,0,-7,-4,2
11325,6,8,18,4,13,-2,-1,-1
11330,-16,2,11,-5,2,6,-2,-15
11335,6,13,1,5,3,-5,-5,-7
11340,30,-20,-21,-1,-10,0,1,9
11345,-19,-6,-27,4,0,0,0,-3
11350,-2,-20,8,-3,-9,-4,-4,-3
11355,-21,13,-8,-1,12,1,0,0
11360,3,-2,10,1,-10,1,2,-4
11365,8,-5,-12,-1,7,4,1,6
11370,0,27,2,7,2,-7,-1,2
11375,-11,-34,-16,3,-3,3,0,1
11380,0,35,4,-7,-5,3,4,17
11385,7,-8,9,-3,2,-2,-3,-27
11390,-3,-18,-2,4,8,-3,-5,-9
11395,-8,-25,-16,2,4,-2,-2,-5
11400,6,31,12,2,32,7,1,2
11405,0,-5,5,-20,-25,-3,-2,3
11410,0,-23,-6,6,-11,-4,4,12
11415,-6,-4,9,-2,5,-2,-5,-6
11420,-8,21,4,-3,-3,-3,-2,-10
11425,9,14,-10,7,7,-2,-1,12
11430,6,-7,-1,-9,-11,1,2,4
11435,-12,1,-2,-3,-14,-8,-1,7
11440,8,7,13,1,0,1,-2,3
11445,-20,-18,-26,-3,2,6,-3,-19
11450,4,26,7,3,-1,-1,-3,-6
11455,11,-29,-16,2,15,0,2,2
11460,-18,-34,-21,-7,-6,-4,-3,-15
11465,7,-18,16,-3,-6,0,3,18
11470,-16,14,-3,3,13,4,1,-5
11475,16,23,1,-4,-21,1,1,1
11480,-8,-38,4,9,5,-7,-3,-2
11485,-9,4,-5,-3,7,4,0,5
11490,10,11,0,0,-18,-3,2,5
11495,4,-10,12,-4,3,-3,-2,-2
11500,-1,37,13,2,7,-2,-3,-7
11505,-2,-33,-30,-9,-10,-2,-2,1
11510,-4,4,8,-5,-4,-3,-4,-3
11515,2,10,1,3,-1,-1,-1,0
11520,-1,-31,-7,-1,17,2,0,-2
11525,-21,10,-5,1,-21,-7,0,-10
11530,3,-18,-2,-3,11,1,-2,-12
11535,4,8,4,1,-5,-1,-3,-1
11540,1,7,7,1,-7,-3,1,9
11545,22,21,13,1,6,-5,0,0
11550,-14,-30,-9,-5,-8,-2,-3,-2
11555,-7,29,8,1,4,1,1,-2
11560,8,6,-18,0,-8,-2,-1,0
11565,-1,-17,3,9,12,-2,-1,5
11570,5,1,4,-5,-16,0,0,3
11575,0,-13,0,-2,15,-1,2,3
11580,-20,9,9,-5,-6,6,0,-1
11585,20,-4,-13,2,-6,-7,-5,-3
11590,8,24,7,-3,1,-3,1,3
11595,-12,-23,-6,6,1,-1,-3,-9
11600,2,3,-8,-3,0,1,0,-12
11605,-3,19,20,2,-14,1,1,9
11610,-4,-22,-6,-1,7,5,3,12
11615,3,2,-12,-3,-7,-3,-4,-5
11620,0,8,-1,3,2,0,0,-2
11625,3,45,21,6,5,-3,-3,-1
11630,-10,-62,-21,-7,-10,1,1,5
11635,10,5,12,-4,-3,-2,-3,-2
11640,-16,-29,-6,0,10,1,1,-1
11645,10,14,-11,-1,0,3,-1,-12
11650,-1,1,6,7,20,1,-3,-4
11655,1,12,3,13,-7,-6,0,3
11660,-5,-4,-7,-16,-1,7,2,3
11665,1,-3,7,-4,-11,-4,0,4
11670,-3,7,-2,-8,8,-2,-3,-7
11675,3,-5,-3,1,-4,1,-1,-4
11680,14,19,10,9,-6,-9,-3,2
11685,-15,-11,12,-5,17,2,2,3
11690,-2,-2,-5,0,-19,-5,0,-3
11695,-1,3,-16,-9,-6,3,2,-1
11700,-2,-56,-5,-4,-6,-3,-3,-3
11705,-15,11,-19,0,-1,1,1,2
11710,25,8,9,6,-4,-3,-2,0
11715,4,0,-5,2,20,3,0,0
11720,-1,-14,20,6,3,-1,3,6
11725,3,-20,-16,-4,-3,-1,-3,2
11730,-23,16,-9,-9,3,5,-2,-12
11735,4,-5,-2,2,-14,-6,-3,0
11740,6,23,-3,-3,8,3,0,1
11745,-2,-15,12,4,-10,1,0,4
11750,-10,-14,-2,-3,-3,-2,-2,-1
11755,5,6,14,-6,0,1,1,1
11760,5,8,-9,5,-7,-4,-3,-5
11765,2,22,9,2,15,1,-1,-5
11770,-3,45,-4,1,-7,-1,-3,-5
11775,-15,-29,-7,2,14,-1,-2,-4
11780,-2,-9,-11,-5,-18,4,5,5
11785,6,14,0,2,-6,0,1,3
11790,-24,-8,-1,2,-1,-3,2,3
11795,7,5,10,9,9,-2,-2,-3
11800,9,26,6,1,-8,3,-1,-10
11805,-8,-44,-27,-16,-2,1,-4,-14
11810,5,-6,5,2,1,-5,-2,7
11815,-10,14,3,0,2,3,2,7
11820,-7,-1,-4,5,11,-4,-1,-1
11825,11,15,13,4,-9,-3,2,0
11830,2,-19,1,-6,2,3,0,-3
11835,1,-4,-22,-8,-3,0,-2,-1
11840,-8,-34,-3,-6,3,-1,-5,-12
11845,0,12,2,0,4,-3,0,4
11850,8,5,-3,4,-5,1,2,7
11855,-2,4,9,0,-1,0,-1,-4
11860,2,6,2,4,2,1,2,10
11865,-13,7,4,-1,6,-2,-1,-2
11870,24,0,-6,-4,-3,-5,-2,-7
11875,-7,-2,-1,-7,-8,-3,-2,-3
11880,-11,8,2,1,0,-3,-1,-5
11885,-8,18,6,1,-5,1,1,4
11890,1,18,-1,2,11,2,3,3
11895,20,-1,6,6,-4,0,0,-12
11900,-1,14,-9,-8,-12,-2,-4,3
11905,2,-29,4,-11,21,7,2,4
11910,8,8,-4,2,-25,-7,-3,1
11915,-18,-11,-15,3,17,-1,0,-1
11920,4,23,5,-3,-15,-5,0,-1
11925,4,-6,-1,-4,-1,7,3,-3
11930,-12,12,14,4,-2,-4,-3,-4
11935,4,-27,-2,-6,-2,-1,-1,6
11940,4,34,2,9,3,0,-2,2
11945,-9,-2,-17,3,19,-5,-5,-4
11950,9,22,-12,-13,-22,-3,-1,0
11955,-8,19,19,5,8,3,2,1
11960,-2,-20,-2,-7,2,2,1,4
11965,5,-19,0,6,-8,-7,-5,0
11970,-3,12,7,-3,-5,1,-1,-2
11975,-3,-7,-8,3,5,-2,0,2
11980,-3,29,-8,-10,-1,-1,-1,-3
11985,12,1,11,-10,-25,4,3,3
11990,-5,2,-6,2,2,2,-2,-2
11995,-1,44,12,0,3,-2,0,4
12000,-11,-50,-23,-8,-6,-5,-2,0
12005,0,3,2,10,1,-3,-2,-10
12010,-2,7,10,3,12,0,-3,-7
12015,6,-30,-15,-4,-18,1,-1,13
12020,-19,14,7,6,21,3,1,-18
12025,26,-23,-9,-1,-7,-1,-1,12
12030,-2,2,-7,-3,1,0,-1,2
12035,-6,-4,7,3,0,-1,3,3
12040,4,7,-5,-3,-2,-1,-4,10
12045,1,12,9,3,0,-2,-2,-5
12050,-19,-19,-14,-8,6,6,-2,-10
12055,16,28,-3,5,-6,-9,-6,-11
12060,1,-73,2,-9,-24,0,-4,-12
12065,2,36,12,-3,9,2,0,-5
12070,-6,-2,0,4,-5,-6,-2,13
12075,-5,-7,-2,6,17,3,4,1
12080,0,-8,-11,-8,10,3,2,-3
12085,-5,8,7,3,-13,-7,-4,-4
12090,4,-3,5,-2,0,0,0,1
12095,-12,-26,0,-3,-3,4,0,1
12100,12,11,3,6,9,-4,1,8
12105,-18,-20,-12,-11,-29,-3,-3,-6
12110,11,0,0,0,17,2,0,5
12115,-13,-1,-4,-6,-22,-5,-6,-25
12120,-1,29,-3,1,7,-6,-7,-4
12125,17,-10,0,10,8,-2,1,7
12130,4,-13,0,5,1,0,3,16
12135,7,-5,-7,-23,-21,3,-5,-17
12140,-21,18,0,9,20,2,0,0
12145,-1,33,-1,0,-3,-4,-2,-3
12150,4,-56,11,1,-1,-2,0,-1
12155,-5,21,-18,1,-1,-1,2,11
12160,2,-3,9,5,13,2,-2,-2
12165,0,10,-1,-11,-3,8,4,7
12170,0,-13,-6,-2,4,-4,0,-7
12175,-5,7,4,1,-6,-4,-2,8
12180,-8,-8,6,0,-25,-8,-1,-3
12185,1,20,-3,8,11,-4,0,-1
12190,9,-53,-1,-4,16,12,2,-10
12195,1,11,8,-1,-4,-4,-2,2
12200,-4,3,-7,-1,-2,-2,-2,2
12205,-16,-56,-23,0,0,-4,-3,-3
12210,0,18,2,-5,0,2,1,3
12215,-3,-5,3,2,-2,-9,-3,4
12220,9,13,4,-1,5,7,0,-2
12225,-3,-17,-5,-16,-3,9,1,-2
12230,-10,15,-10,0,-11,-11,-7,-5
12235,-3,-36,0,1,-2,-2,-1,-1
12240,-4,55,16,2,-10,-9,-4,-5
12245,15,28,11,-3,7,-6,-3,6
12250,18,-34,-10,2,11,7,0,-7
12255,-35,-16,1,-2,-10,-1,1,-6
12260,17,-16,-6,3,14,1,-1,-3
12265,-13,37,13,-3,-4,-2,-1,-6
12270,-10,9,1,0,2,4,3,2
12275,20,-6,-14,-2,-11,-5,-7,-4
12280,1,-25,13,2,5,0,4,7
12285,-7,-48,-18,-10,-8,-2,-4,-10
12290,-20,35,13,6,-11,-8,-3,1
12295,16,-11,-8,-6,4,6,5,8
12300,12,49,14,2,-3,-4,-1,-9
12305,4,12,3,12,18,-1,1,9
12310,-5,-24,-31,-7,-10,3,-1,-3
12315,-14,14,3,-1,13,4,-1,-4
12320,7,-4,-3,-9,-18,-4,0,12
12325,2,11,1,5,-3,0,0,1
12330,-1,27,4,5,11,1,-3,-8
12335,-2,-22,-10,0,-6,0,1,5
12340,6,-23,-6,1,-6,-3,-1,-8
12345,-8,-16,6,4,-2,2,-1,5
12350,-2,33,-3,-11,-19,-7,-1,-1
12355,13,6,10,2,12,-3,-1,5
12360,7,25,-5,-3,-9,12,5,10
12365,-8,-31,-21,1,16,-5,-7,-18
12370,-3,19,9,-3,-19,-2,2,4
12375,-13,-3,5,12,25,0,0,-4
12380,3,-5,-2,-8,-10,1,1,5
12385,15,15,12,-1,-5,2,4,14
12390,-21,-38,0,0,-4,-6,-5,-15
12395,3,12,-1,-7,-1,-3,-2,-2
12400,8,8,6,3,26,8,0,-9
12405,-7,10,-4,10,0,-7,-5,-2
12410,0,-6,3,-13,-9,3,4,8
12415,9,28,7,1,-3,-1,-2,0
12420,-15,-74,-14,5,-5,0,0,6
12425,-16,62,-10,-2,-9,-1,-2,-5
12430,10,-28,-8,3,14,-3,-1,-4
12435,2,-5,3,-10,-2,7,0,-3
12440,2,31,4,-1,-19,0,3,10
12445,-17,-93,-29,-6,1,-5,-7,-24
12450,14,17,-1,10,13,3,-1,3
12455,-21,15,-2,3,9,4,0,-2
12460,7,1,-2,-11,-12,-9,-5,-4
12465,16,-21,13,4,0,3,3,16
12470,-13,17,5,-5,-3,-2,-3,-15
12475,9,-15,-4,5,1,-2,0,2
12480,-11,-39,1,-1,1,-2,-3,0
12485,-5,-4,10,-3,-2,0,4,4
12490,-6,-44,-28,1,11,-1,-6,-1
12495,7,43,6,0,-10,-2,1,-1
12500,-19,-27,-8,6,-12,-5,-4,-9
12505,20,9,2,-7,9,5,3,6
12510,2,-3,9,3,1,-3,-1,4
12515,3,17,19,-10,-3,-1,-3,1
12520,-13,-20,-25,-1,-2,-2,-4,-4
12525,-3,2,-2,-3,10,1,-3,-3
12530,12,27,3,-3,-9,-2,0,3
12535,1,-16,-8,3,-8,2,-1,0
12540,-4,17,15,3,7,-2,-2,-4
12545,-2,58,1,-9,-9,-2,-3,-5
12550,-8,-2,7,5,7,1,-2,-6
12555,-1,-9,-9,-4,-1,-2,-1,-2
12560,17,-15,7,6,21,1,3,11
12565,-3,-2,-15,-10,-27,-2,1,-1
12570,4,8,7,4,5,4,1,2
12575,-6,5,2,-2,0,2,0,-14
12580,-5,25,-3,2,-11,2,0,1
12585,-4,12,11,-4,-6,0,0,0
12590,11,-12,-29,2,-5,-6,1,9
12595,-2,-16,-1,-4,-4,0,-2,-5
12600,-7,-3,-14,-5,1,6,0,-3
12605,7,-8,9,12,0,-3,2,6
12610,-11,-8,10,-4,4,4,2,-3
12615,15,-5,-3,12,-11,-7,-6,-6
12620,1,21,-20,-16,23,2,0,1
12625,-8,-11,-3,2,2,-2,-5,-7
12630,-9,-30,-5,1,-4,1,2,5
12635,7,-7,-2,2,13,1,0,5
12640,-9,5,5,-8,-15,-6,-2,2
12645,22,-6,-2,4,-2,0,1,6
12650,-4,54,5,1,-1,-3,-3,-11
12655,-1,-36,-33,-12,-15,5,4,11
12660,-8,-19,3,9,15,-3,-4,-5
12665,-20,-6,-3,-8,-7,-3,-2,-9
12670,23,52,16,5,-7,1,0,2
12675,-11,-25,-6,-8,7,-2,-2,-2
12680,6,4,-4,3,4,0,1,7
12685,-8,-21,-2,-1,-9,-2,0,-3
12690,-4,8,3,-2,20,2,-1,-2
12695,0,-6,12,-3,-5,4,2,12
12700,4,29,15,0,7,-4,-6,-22
12705,-6,-23,11,-7,-3,-2,-1,4
12710,-3,-4,0,0,-10,0,1,-1
12715,5,15,-2,-2,5,1,1,4
12720,2,0,9,-3,12,0,1,5
12725,1,-6,-16,2,-10,-5,-8,-13
12730,-5,-11,7,-2,-6,-2,-2,-3
12735,-7,-23,-1,0,3,-1,1,0
12740,3,2,15,5,-15,-5,0,1
12745,3,47,8,-3,9,9,7,7
12750,-8,-20,-21,5,19,-6,-6,0
12755,-5,-20,0,-13,-34,6,1,-5
12760,-1,-1,6,-1,3,-1,-1,0
12765,0,8,5,5,-8,-3,-1,1
12770,6,-4,4,6,13,-3,1,8
12775,-4,24,2,0,-3,-3,0,1
12780,-7,-59,-8,-2,-11,-1,-2,-5
12785,12,-1,0,3,8,4,-1,3
12790,-3,-11,-7,-4,-14,-3,2,-6
12795,-1,7,2,7,9,-4,-3,-4
12800,-5,5,0,-1,-7,-2,0,3
12805,-17,-19,-3,3,13,-4,-3,-1
12810,18,-1,-3,-3,-8,1,1,6
12815,5,26,11,5,6,-2,-3,-10
12820,-1,9,-22,-4,-6,0,-1,0
12825,-3,-34,-4,1,3,-2,-2,-3
12830,-6,13,0,-8,-8,-2,3,7
12835,6,5,8,0,3,-1,-4,-7
12840,0,15,4,0,-1,0,0,-9
12845,-12,-3,-12,-4,-3,-1,-1,-9
12850,-9,6,-2,-2,-2,0,-1,0
12855,21,-15,0,-2,5,-5,-3,5
12860,-1,28,9,1,-11,-2,-3,-5
12865,-10,-5,1,5,2,1,-2,-2
12870,-5,-49,9,-2,-1,-1,-3,3
12875,-12,11,-8,-5,6,2,1,-7
12880,4,3,-2,-2,7,-4,-4,3
12885,4,-37,8,-14,-30,3,2,4
12890,0,-9,6,-3,-10,-3,-1,-9
12895,-2,-3,-13,3,1,-3,0,5
12900,-3,-38,-1,2,-2,1,-2,4
12905,-1,10,-24,11,17,0,2,7
12910,-2,-1,7,-4,4,1,-3,-8
12915,-1,11,2,0,-12,-3,0,-5
12920,8,23,-5,0,7,2,0,1
12925,-1,-6,6,2,6,-3,0,1
12930,3,-6,-2,-6,-6,1,-2,0
12935,7,18,-9,5,17,-4,1,7
12940,-2,-17,-2,-1,-11,-2,-3,-19
12945,5,18,12,-11,1,7,-1,-3
12950,-12,-5,-6,10,10,-4,-1,2
12955,-1,8,0,-14,-18,-2,-2,-3
12960,2,18,3,4,9,-3,1,15
12965,6,-11,-4,1,5,-1,-2,-6
12970,1,32,2,-7,-26,-2,-1,-6
12975,-7,-21,-1,13,32,4,-1,5
12980,-5,-30,-8,-15,-18,2,2,3
12985,-2,17,-15,-2,10,-3,-2,-10
12990,15,-8,3,1,-22,3,1,2
12995,-1,-7,-4,4,-3,-1,2,2
13000,-11,-6,-1,3,14,5,1,4
13005,10,24,1,0,-14,-4,-3,1
13010,-15,-8,0,-1,-9,-7,-2,1
13015,6,-46,4,1,16,1,-3,-11
13020,4,54,-5,-2,-1,0,1,4
13025,4,-21,-3,-9,-9,4,-1,-7
13030,-9,11,-3,4,12,-4,-2,-4
13035,-15,18,10,1,-5,2,2,6
13040,19,-14,0,-4,-8,-3,-1,-2
13045,-4,7,3,5,14,0,-1,4
13050,5,17,12,-1,1,0,1,14
13055,-14,-22,-18,-9,-5,-2,-3,-12
13060,-1,-14,-6,-6,-8,-3,-6,-23
13065,-6,5,5,0,5,-3,-2,2
13070,7,-4,-4,-1,15,2,-1,-5
13075,-8,5,5,3,-20,-1,-1,1
13080,-1,-9,0,-3,10,0,2,6
13085,6,42,5,-2,-8,-2,1,-1
13090,-12,-42,10,1,8,-4,-4,1
13095,22,-11,-18,-2,-5,-1,1,10
13100,-4,19,-1,0,-6,-1,0,-12
13105,-1,-3,8,4,6,-3,-1,4
13110,3,10,-9,-7,-4,1,-2,-4
13115,-2,10,5,-4,-5,-1,0,10
13120,-4,-9,2,-1,2,2,0,-3
13125,-2,5,1,10,-1,-3,1,2
13130,-7,-15,-31,3,15,2,0,-4
13135,-5,16,23,-20,-10,5,1,-12
13140,3,-8,-11,4,-1,-8,-5,-1
13145,0,-8,-2,5,-6,-4,0,4
13150,1,34,4,-12,-31,0,1,7
13155,-8,2,12,5,35,1,-2,-12
13160,-7,24,1,1,-12,-3,-1,-15
13165,8,-11,10,0,9,-5,-2,-10
13170,4,15,5,2,-14,-1,-2,-1
13175,-9,-4,6,0,-16,-8,-2,0
13180,-5,-11,-6,1,1,0,-1,4
13185,2,-47,-21,9,18,6,0,-5
13190,-2,21,8,2,5,-1,1,0
13195,-24,-3,-8,-2,-7,-4,-6,-5
13200,40,-7,9,-1,-6,0,-1,8
13205,-11,4,2,3,7,-3,-4,-6
13210,1,-32,-12,-11,-21,1,0,-9
13215,0,19,3,5,22,2,1,6
13220,-10,-37,-9,-3,-6,-3,-2,4
13225,8,23,3,-3,-2,-1,-5,-3
13230,-4,-2,8,-1,9,1,2,4
13235,8,15,-10,-3,-13,-4,-4,-8
13240,-4,-11,10,0,-2,1,0,4
13245,-3,9,2,-8,-13,-1,1,-1
13250,-2,-35,-8,9,20,0,1,4
13255,16,31,8,4,10,4,1,0
13260,-20,-18,-12,-8,-1,2,-2,2
13265,0,-24,0,-5,-13,-3,1,5
13270,1,23,3,1,0,-7,-7,-10
13275,3,-26,-9,4,8,0,0,-6
13280,-7,32,10,6,2,1,-1,1
13285,-27,8,-17,-6,-4,0,0,4
13290,41,-24,-20,-6,-1,0,-1,5
13295,-15,-3,14,3,-20,-7,-6,-22
13300,9,16,-4,-4,12,6,3,3
13305,-11,-7,0,1,-10,-5,-2,2
13310,-6,13,5,4,6,-3,-1,1
13315,0,-11,-14,-6,-14,-3,3,9
13320,7,6,5,2,3,-6,-1,1
13325,3,18,19,0,-6,1,-4,-7
13330,-14,-39,-23,-8,8,0,-1,-7
13335,0,7,9,1,-4,-1,-1,-1
13340,-2,11,5,1,-9,1,-2,-1
13345,14,19,7,0,5,-4,-1,8
13350,-4,-11,-2,-1,2,1,2,-3
13355,-23,6,-6,4,-5,0,1,4
13360,25,-24,-15,-3,17,2,-1,-8
13365,2,-8,-1,-12,-17,3,-1,3
13370,-10,-16,1,0,9,-2,-1,3
13375,-13,-8,2,-7,-3,-2,-3,-8
13380,-2,12,15,5,0,-1,-4,-12
13385,5,15,-5,0,4,0,0,-2
13390,1,-3,2,1,-10,1,1,2
13395,6,14,-12,0,1,1,3,12
13400,-13,7,-4,-6,-11,-7,-1,4
13405,3,-48,-4,-5,2,4,0,-1
13410,1,22,8,7,10,2,-2,0
13415,15,-16,-7,-5,1,-2,-3,-10
13420,-8,26,4,-4,-6,3,-2,-5
13425,-5,-13,-16,6,-2,1,1,4
13430,7,24,9,1,-6,-3,1,1
13435,16,-19,0,-10,4,6,4,1
13440,-8,-5,3,5,4,-1,-1,2
13445,-3,-25,-2,3,1,1,1,3
13450,-8,13,2,-9,-13,-5,-6,-10
13455,-1,3,-16,-5,-10,-2,-1,1
13460,1,-12,2,-6,-10,-1,2,12
13465,18,26,4,-2,5,-4,-4,-9
13470,-3,-3,5,7,14,3,1,3
13475,-6,21,8,2,0,1,-1,-7
13480,-16,-15,-2,0,4,4,-1,-3
13485,1,20,8,-3,-21,-9,-3,-5
13490,-7,-3,4,-7,19,4,-1,-6
13495,23,18,-2,5,10,1,-1,3
13500,-14,-29,-3,-4,-29,-3,1,6
13505,-6,-13,1,9,-3,0,-2,-1
13510,11,67,6,-4,-8,-4,-1,-2
13515,-5,-33,-7,1,9,3,-1,11
13520,-3,9,-5,1,-8,-4,0,-3
13525,6,34,-2,-4,13,5,0,-4
13530,-28,-32,4,-9,-17,-2,-2,-4
13535,19,25,2,5,4,-4,-1,4
13540,10,-7,1,0,7,-1,0,5
13545,-22,-4,-23,-3,-9,-7,-6,-8
13550,5,-19,-8,10,15,0,2,0
13555,-15,10,-2,-17,-16,5,-1,-15
13560,5,11,11,0,2,-2,-1,7
13565,-6,-31,-12,9,11,2,4,-2
13570,1,-2,2,7,6,0,0,-4
13575,-1,-29,-14,-15,-18,-3,-1,3
13580,4,12,-4,3,3,-1,1,3
13585,-8,-2,6,-10,7,3,0,10
13590,14,-3,-7,8,-13,-6,-5,-11
13595,-10,21,19,5,8,1,1,2
13600,-2,-57,-5,-7,4,0,-4,-11
13605,-3,25,1,-14,-29,-1,0,-4
13610,-6,-25,1,-5,6,1,-1,-4
13615,4,13,9,6,11,-1,-1,3
13620,10,26,11,2,-7,-1,2,9
13625,-8,-28,-17,5,26,1,-1,-9
13630,3,4,-6,-4,-8,4,3,6
13635,-9,-12,0,6,-4,-4,-1,-5
13640,9,17,-2,-13,-5,0,1,8
13645,1,9,8,1,3,1,0,-4
13650,-3,19,4,-6,-4,-1,-3,-9
13655,-7,-41,-4,3,-9,-4,0,3
13660,-13,-3,0,4,3,0,0,0
13665,13,21,-2,6,23,0,1,1
13670,-1,-6,-7,-11,-22,-6,-4,-1
13675,1,-2,-3,-1,6,8,1,0
13680,-11,-18,-9,4,4,2,0,-5
13685,14,7,-16,-3,-5,-4,-2,3
13690,-9,-32,8,4,4,-3,-2,1
13695,0,8,-9,3,1,-5,-4,-10
13700,-12,-3,-2,-1,-1,-2,-2,0
13705,21,-22,-5,-13,-6,5,3,6
13710,7,25,-13,2,7,-4,0,4
13715,-2,-23,5,-3,-5,-6,-2,-3
13720,-6,11,2,4,13,0,-2,-3
13725,-19,4,7,-1,-14,-2,-2,-5
13730,11,0,9,-3,-9,-1,-1,4
13735,-4,69,7,11,6,-8,-2,-9
13740,7,-12,7,-16,2,16,2,-9
13745,-3,-25,-3,3,22,4,-3,-2
13750,-4,2,6,1,-6,0,-2,-1
13755,-2,4,-16,-4,-10,-4,-1,5
13760,0,-12,0,0,2,-7,-2,2
13765,10,23,8,0,-4,-1,0,5
13770,-17,3,7,4,-7,-1,1,2
13775,9,-48,-26,-3,15,2,-3,-10
13780,2,23,3,-6,-17,2,1,-3
13785,-3,-30,2,6,2,-7,-2,5
13790,-1,9,-3,-2,6,2,0,6
13795,11,4,5,-1,-8,-4,-4,-3
13800,-3,-5,-7,3,3,-2,-4,-3
13805,-4,-4,6,0,-7,-1,-1,-3
13810,5,45,-1,4,12,2,4,9
13815,-12,-47,0,3,-4,-4,-4,-2
13820,10,2,-8,-6,27,20,5,4
13825,0,-4,6,-3,-11,-5,0,1
13830,-5,-8,1,-3,1,-1,-1,-7
13835,2,12,5,-4,-10,1,2,-1
13840,-7,15,0,7,-4,-10,-2,-6
13845,7,3,0,0,-4,-5,0,4
13850,6,-32,-10,2,-1,2,1,-1
13855,-18,11,-6,8,5,-6,-3,-2
13860,10,-34,-3,-17,1,16,7,6
13865,6,-13,-17,-6,-1,-1,-2,-5
13870,2,3,5,-2,-7,-5,-5,-9
13875,-1,10,14,-1,-1,-2,1,10
13880,-5,16,-1,3,-10,-12,-6,-3
13885,-6,-14,-10,9,1,0,1,-1
13890,-1,-5,-2,1,11,3,5,9
13895,-2,19,-7,-10,-26,2,0,-11
13900,23,9,6,-3,5,-5,-2,-2
13905,-10,-12,2,-8,-2,3,-4,-6
13910,7,-4,-2,13,-6,-12,-4,-2
13915,-6,-18,-8,-9,10,8,0,5
13920,-5,28,-3,9,-6,-8,-3,-5
13925,-6,21,14,0,-9,-6,-2,-5
13930,0,-7,0,-9,-1,4,-1,4
13935,9,30,3,-2,9,1,-1,10
13940,-2,-54,-15,5,-5,-7,-2,0
13945,-1,6,-4,-1,3,-1,-3,-8
13950,-7,17,2,-7,1,4,2,0
13955,8,-6,11,0,-3,1,-2,8
13960,-11,13,6,5,-2,-5,-2,-4
13965,-5,-11,-11,-1,2,0,2,-1
13970,-1,-4,-9,-4,-8,-3,-2,-3
13975,4,10,-2,5,14,8,2,1
13980,-15,-17,9,-4,2,-3,-4,-7
13985,1,-1,10,-9,-6,-3,-2,1
13990,15,-2,-5,0,4,-1,-2,-3
13995,-7,-35,-1,4,-4,-3,1,1
14000,-4,-4,-2,-5,5,-2,-2,4
14005,-4,7,-2,-13,6,9,1,3
14010,-8,-22,8,8,1,3,0,-5
14015,7,35,8,-1,2,0,-3,-7
14020,11,8,-26,-1,4,-4,-1,4
14025,3,-28,12,16,-18,-11,-6,1
14030,-2,-3,0,-17,7,4,4,7
14035,-15,-11,11,-3,-4,1,1,-10
14040,-11,17,0,2,-10,0,-2,-7
14045,14,6,-9,0,8,0,0,2
14050,-7,-19,-2,10,4,-4,-1,-3
14055,1,25,4,-8,-15,-3,1,6
14060,5,-19,-8,-6,1,-2,0,-3
14065,-7,-17,-3,2,-3,-3,-2,-2
14070,-1,5,-2,-1,-3,-1,-3,-9
14075,1,28,-2,-7,2,1,1,0
14080,8,-7,-11,5,-4,3,4,5
14085,-10,-3,13,-3,6,2,-3,-3
14090,-1,4,-7,0,-6,-5,-4,-3
14095,10,2,4,5,2,-3,-2,-1
14100,-6,14,-6,-2,-3,-1,1,1
14105,-2,-1,-3,-1,-5,-4,-2,-7
14110,-1,3,2,-3,-1,1,-2,-11
14115,-8,-20,-6,2,4,-1,1,6
14120,-3,-17,11,4,-2,1,-2,-6
14125,8,25,-1,-6,2,2,0,3
14130,7,-4,4,-7,9,-3,-3,-2
14135,7,-48,-11,3,2,1,2,10
14140,-19,13,1,-5,0,-4,-3,-4
14145,-7,-1,9,9,3,4,-1,-9
14150,5,4,0,2,6,2,0,9
14155,3,-11,-22,-1,7,-3,-3,-5
14160,6,26,22,-13,-12,7,1,9
14165,-5,7,-6,0,-15,-5,-4,-4
14170,-7,-5,9,-1,7,-8,-2,-4
14175,-1,-4,13,-5,-1,6,0,7
14180,-20,-1,-2,0,-11,-3,2,-2
14185,32,27,2,0,11,1,2,0
14190,-1,-15,2,8,-7,-3,-2,-4
14195,-4,-22,-11,-14,7,-1,-4,-4
14200,-1,6,3,5,-26,-7,-3,-2
14205,-12,-9,-4,0,8,1,2,5
14210,5,9,-4,4,-14,-1,-1,-3
14215,-4,5,4,4,-2,-2,-3,-1
14220,4,-5,3,7,5,-2,-1,-4
14225,-18,2,-24,-12,-13,4,1,-2
14230,20,19,0,-2,1,1,0,5
14235,1,5,-2,6,2,1,0,-3
14240,-7,-15,-13,-7,5,-3,-2,2
14245,6,26,13,5,-7,-4,-2,-5
14250,-22,-34,-19,-2,2,4,1,-6
14255,0,16,7,-5,-3,-4,-1,-3
14260,16,-25,1,5,12,2,3,4
14265,-5,36,0,1,3,-3,2,8
14270,-9,-17,6,-10,-14,-1,-2,3
14275,1,18,3,7,3,4,0,-3
14280,4,-4,-5,-4,6,-2,-3,-8
14285,-14,-8,5,4,-4,-4,-1,-3
14290,17,21,4,-2,10,4,1,10
14295,-13,-18,0,3,-7,-2,-3,-14
14300,4,12,5,-3,8,4,3,2
14305,-3,-18,4,5,-2,1,2,0
14310,-3,6,-18,-2,4,-1,-1,3
14315,-7,-19,6,-5,-17,-4,-1,5
14320,5,6,-21,2,-2,0,-3,-5
14325,-4,-8,-7,-10,27,4,-2,-5
14330,0,8,9,2,-9,-1,1,2
14335,1,-2,5,3,8,0,0,-4
14340,-11,8,7,1,4,-4,-1,-4
14345,9,-19,-18,-16,-25,-4,1,16
14350,-7,64,2,-1,6,6,-2,-24
14355,-19,-30,-6,-1,-3,-1,-2,-1
14360,33,22,27,1,-3,-4,-5,-6
14365,-14,-30,-10,2,9,-1,0,-8
14370,1,19,-5,-2,-9,-4,0,6
14375,-1,-16,-6,-1,-6,-3,0,3
14380,-5,-3,9,2,7,-1,-1,-1
14385,10,26,-6,0,-17,-2,-2,-4
14390,1,-11,-8,1,-8,0,-1,-2
14395,-6,12,7,1,1,0,0,-2
14400,-12,-45,-2,5,-6,-5,-1,7
14405,12,25,6,-8,1,1,-3,5
14410,-19,-4,8,1,5,6,1,-7
14415,23,-11,-6,-2,0,-9,-1,11
14420,-11,-1,-8,-9,3,7,0,1
14425,-13,-5,5,4,-8,-8,-3,-13
14430,4,-36,-12,-6,-9,-4,-2,2
14435,2,23,17,2,0,2,-2,0
14440,5,1,-13,-7,-2,-3,2,16
14445,3,0,15,0,9,1,-2,-17
14450,-5,-10,9,9,6,-1,-3,2
14455,-1,1,-24,-9,-18,-2,1,2
14460,-6,3,7,2,17,0,1,1
14465,1,4,-4,-6,-8,2,-1,5
14470,-6,-5,4,3,2,-3,1,-2
14475,11,11,1,-1,1,0,-2,-4
14480,-6,21,7,5,-11,-4,-2,-2
14485,6,-20,-6,-11,-10,2,0,8
14490,-5,8,1,-2,19,-3,-4,-18
14495,-2,6,1,2,1,0,-4,-7
14500,-1,17,1,0,-5,1,-2,-6
14505,-15,-38,1,10,1,-1,4,12
14510,19,-12,-8,-5,-12,-4,0,12
14515,2,4,-6,5,4,-2,0,2
14520,-1,7,-7,-5,-2,3,-2,-21
14525,7,-7,2,4,10,0,-1,0
14530,-11,38,4,-2,-3,0,0,-1
14535,-3,15,-17,-6,-11,-3,-2,1
14540,-6,-67,-6,1,-9,-3,-2,4
14545,5,6,-9,5,6,0,-2,-8
14550,5,-10,4,-3,4,4,1,0
14555,-1,17,6,-2,-1,2,0,3
14560,8,8,0,0,3,-1,-2,-6
14565,-5,7,5,-2,0,0,-1,-9
14570,-1,1,4,-2,-11,-5,-3,1
14575,-11,-10,5,-6,-3,0,0,0
14580,7,9,-9,15,29,3,2,9
14585,-7,-19,5,-13,-12,5,-1,-4
14590,4,-10,-9,-1,5,-1,-1,-8
14595,-1,-9,0,5,-2,-1,0,2
14600,8,17,6,-6,-10,-2,-2,-6
14605,0,-2,-10,14,20,0,3,7
14610,-9,13,1,-3,-1,-2,-5,-2
14615,-21,-33,-3,1,-6,1,3,0
14620,16,-17,-10,8,5,-2,-3,0
14625,1,54,7,-5,-10,-2,0,1
14630,-7,-7,1,-5,-1,-2,0,11
14635,-2,-48,-34,0,-1,-5,-6,-12
14640,-9,20,3,-6,9,8,3,-3
14645,-6,-10,-5,7,-12,-8,-6,1
14650,1,21,1,-5,5,1,2,6
14655,21,28,17,3,11,2,2,4
14660,-10,-13,-5,-7,-23,-7,-4,6
14665,0,-7,-3,1,12,0,-1,0
14670,3,-4,-19,0,-10,-3,-4,-6
14675,2,-25,5,-4,12,2,0,-8
14680,-5,-19,-19,6,6,-1,0,-2
14685,-3,12,11,-7,-3,7,2,5
14690,-7,-34,-2,12,-7,-7,-2,-3
14695,8,30,15,-11,24,6,1,5
14700,-6,-34,-42,-10,-22,-4,-1,-5
14705,-9,12,-3,5,1,-7,-3,-4
14710,5,-11,2,-5,-7,-1,0,14
14715,-6,7,4,5,-4,1,-3,-26
14720,-4,51,15,-4,17,2,0,0
14725,4,-9,3,1,-8,-4,-1,-3
14730,-5,-30,-4,-1,-10,-2,-2,-6
14735,3,13,3,-4,3,-1,1,14
14740,-2,22,9,-3,-15,-3,-2,-7
14745,3,-3,-11,-1,4,1,0,7
14750,-3,27,5,2,-2,-2,0,-5
14755,5,0,7,3,-8,-1,-5,0
14760,-1,-25,-4,-5,3,-1,-3,-1
14765,-1,-14,3,8,-6,-2,0,-1
14770,0,-3,-1,-7,1,1,-2,1
14775,-4,24,-1,-2,-1,4,2,5
14780,-3,-45,-4,0,-4,-4,-2,-1
14785,-6,-1,11,2,9,-4,-3,-3
14790,-2,7,1,1,2,-1,0,-1
14795,3,-19,-2,-4,1,0,-3,-9
14800,0,23,8,4,7,0,0,6
14805,1,-32,-7,-9,-4,2,1,-1
14810,-8,-17,-6,-3,-2,2,-1,-1
14815,2,11,-2,0,-8,-4,0,3
14820,-4,21,8,2,3,0,-4,-7
14825,-1,-21,6,-8,-3,1,1,-5
14830,7,3,-13,6,14,-1,1,5
14835,-6,12,8,1,-15,-4,-1,2
14840,-3,-2,-1,1,5,0,1,8
14845,5,19,-3,-6,3,4,-1,-3
14850,13,-19,11,3,0,-2,-1,-11
14855,6,12,-8,1,5,-6,-5,2
14860,-16,-11,-7,5,0,-5,-3,-12
14865,16,-16,9,-13,6,8,1,7
14870,-13,-14,-11,2,-3,-1,0,-6
14875,-3,5,-2,-4,-14,-4,1,4
14880,1,-37,1,-1,7,-2,-3,4
14885,-3,44,-4,0,-22,-7,-2,1
14890,-3,-6,-1,1,19,-2,-3,-13
14895,0,-16,1,7,-11,2,0,-4
14900,3,26,5,-8,-6,-2,0,7
14905,2,11,0,3,-1,-3,-1,-8
14910,2,-14,-4,-4,-3,2,0,1
14915,-10,-14,-2,7,14,-1,-3,-3
14920,3,5,18,4,-9,-1,3,2
14925,0,-62,-38,0,2,3,2,15
14930,9,10,7,-1,5,-2,-5,-18
14935,-9,-11,5,-3,-1,12,3,-11
14940,12,18,-24,1,8,2,-1,-3
14945,-11,20,15,-1,-1,-4,-1,2
14950,2,10,4,4,-3,-1,0,8
14955,-6,-29,-14,-6,-11,-3,1,7
14960,0,-1,9,-1,-5,-3,-4,1
14965,-1,49,-5,1,15,0,-4,-16
14970,9,6,0,-3,-9,0,1,10
14975,-10,0,2,-1,3,-2,-2,1
14980,5,0,3,-2,-6,-1,-1,1
14985,-4,-17,0,7,4,-2,1,0
14990,-12,9,4,-9,-11,0,-1,3
14995,15,25,1,-1,12,-2,2,19
15000,-1,-58,-17,-11,-4,-2,-6,-17
15005,-2,13,1,3,2,-3,-3,-3
15010,-3,-3,4,0,3,4,1,4
15015,-7,-22,-18,11,9,0,2,2
15020,3,-12,2,-4,-6,-2,1,1
15025,-9,-16,6,-4,-3,-4,-3,-3
15030,1,16,-4,8,-3,-3,-1,16
15035,13,3,4,-8,2,-3,-4,-26
15040,7,20,5,-3,17,4,0,-2
15045,-1,-21,-15,-5,-23,-2,0,-3
15050,-11,-6,-1,-1,0,0,1,8
15055,0,2,-1,3,-4,-6,-5,-2
15060,-9,15,1,2,-4,2,2,3
15065,12,31,16,11,2,-8,-4,7
15070,-3,-51,-6,-21,4,12,6,-6
15075,-11,15,-9,-7,-5,-5,-5,-10
15080,5,15,6,2,-1,-3,-2,-1
15085,-2,-8,-3,3,2,-1,2,6
15090,-1,18,12,2,-1,-4,-4,-5
15095,0,-5,5,-1,-4,1,-2,-1
15100,-13,2,-5,-1,-6,3,4,5
15105,-14,1,8,2,2,1,1,10
15110,34,8,-14,0,-12,-10,-8,-39
15115,-8,0,3,-6,10,4,-2,-3
15120,-4,-8,8,3,1,2,-1,0
15125,1,-20,-17,6,12,1,2,3
15130,-13,-9,2,4,-7,-2,1,9
15135,4,5,2,-5,-6,-4,1,5
15140,-3,6,-3,0,-8,-4,0,-2
15145,-3,31,19,1,4,2,-1,0
15150,2,-3,-14,-8,1,4,1,-9
15155,10,23,-2,4,-2,-5,-5,-6
15160,-7,-1,-2,-4,-5,-2,-1,-2
15165,-12,-20,-1,0,2,0,0,-2
15170,13,27,8,7,-1,-6,0,10
15175,-7,-24,4,2,3,8,2,4
15180,1,22,1,4,9,-1,-1,-5
15185,0,12,-4,-11,-22,1,-5,-17
15190,-5,-2,4,-2,13,-2,-2,7
15195,3,-4,-6,0,8,-1,1,9
15200,-17,-25,3,5,10,6,3,-8
15205,23,5,-2,3,-13,-5,-3,-3
15210,-13,-6,7,0,6,4,0,0
15215,3,14,7,-14,-15,-5,-2,1
15220,-6,-14,-8,5,-6,-7,-4,-16
15225,1,-15,5,-11,-5,4,1,-3
15230,-2,-6,-16,10,9,-2,0,2
15235,-11,-5,0,0,-10,-3,-1,6
15240,12,26,3,-4,-6,1,-3,-2
15245,-5,-39,-4,-1,7,0,0,-2
15250,13,40,7,0,-9,-6,-3,2
15255,-19,0,-26,-2,10,5,1,-5
15260,1,-1,-1,3,-5,-6,-3,1
15265,9,31,-9,-3,0,-2,-2,1
15270,-23,-11,11,3,-9,1,0,-7
15275,10,10,1,-2,13,1,3,4
15280,6,-15,-4,-6,-5,0,-1,-1
15285,-5,11,-5,9,3,-6,-3,-3
15290,-7,13,-2,-14,22,11,3,2
15295,-2,-75,-14,8,-2,-2,-1,-3
15300,5,17,-12,-15,-11,2,0,4
15305,12,-21,9,-2,-9,-7,-3,-15
15310,-15,8,-5,0,-1,-2,-1,3
15315,16,24,11,11,8,-3,1,-7
15320,-13,-66,-6,-14,-20,3,1,3
15325,-8,18,-4,-4,-1,-4,-2,1
15330,3,3,-1,4,1,-3,-2,4
15335,-5,-7,-3,-16,-2,-2,-1,-8
15340,4,-5,8,7,-12,-6,-3,-1
15345,-7,26,1,-2,1,0,-2,-3
15350,2,-27,-3,2,-4,2,4,3
15355,6,-12,3,3,-5,0,-1,12
15360,-7,32,-8,5,13,-3,-3,-6
15365,-4,-43,-22,-9,11,5,-1,-2
15370,-10,13,8,-1,-15,-4,-6,-17
15375,16,1,3,0,-16,0,2,-1
15380,2,0,3,-2,13,-1,3,7
15385,-14,-5,2,10,10,-2,-2,1
15390,-4,11,2,-8,-2,-1,1,3
15395,-2,-8,8,7,-9,-3,-1,-1
15400,4,24,-1,-16,-2,2,-4,-17
15405,-10,-25,-9,0,-6,-3,-2,1
15410,10,-50,-4,4,15,4,-1,6
15415,1,40,16,1,-3,1,2,6
15420,-18,-40,0,9,11,-6,-3,3
15425,12,15,-18,-10,-18,-3,-2,-3
15430,2,14,0,-4,16,7,0,-6
15435,3,5,-4,-6,6,-1,0,8
15440,-1,-29,5,4,-5,-4,-2,2
15445,-14,-1,22,-6,4,4,2,-2
15450,14,11,-9,-4,-14,-6,-2,-3
15455,-9,7,-18,-3,-1,-1,1,4
15460,4,39,-1,2,9,-2,-2,-2
15465,14,15,4,5,-5,-2,0,-4
15470,-9,19,9,-4,4,7,3,5
15475,3,-7,-4,-2,9,0,-2,-1
15480,-1,8,-8,0,-7,2,2,6
15485,0,4,-3,5,7,-2,-1,4
15490,-3,-35,-5,-5,-17,-7,-3,1
15495,-7,-7,2,-6,-5,7,1,-12
15500,4,-23,-1,2,5,0,-3,-1
15505,2,20,3,-2,8,1,-1,0
15510,1,8,-2,4,-13,-8,-3,0
15515,-6,8,8,-2,-4,-2,-1,1
15520,3,5,3,3,3,-5,-1,-4
15525,0,-41,-2,-4,3,6,3,3
15530,3,13,-5,-10,-9,1,0,-3
15535,-3,11,-4,-4,0,-3,-6,-7
15540,-8,-21,-10,9,-2,4,2,-4
15545,-3,18,-7,7,8,-2,2,-11
15550,14,11,13,-4,-4,-2,-3,6
15555,-10,6,-25,-10,-15,-1,1,-4
15560,0,-39,-8,-1,-3,-2,0,2
15565,-9,-19,5,-7,-3,3,0,3
15570,-6,0,0,11,0,-4,-2,-5
15575,4,14,8,2,16,4,0,0
15580,8,43,6,-9,-4,0,1,5
15585,-7,-45,-15,-2,-5,-1,1,0
15590,-14,-8,2,2,8,-3,-1,-3
15595,10,-15,6,3,-15,-7,-2,-2
15600,-5,34,-2,0,12,0,-1,-2
15605,9,-2,14,-3,0,-1,-3,0
15610,-10,-9,-21,-2,-18,-3,-1,1
15615,9,20,12,7,3,-3,-3,-5
15620,-18,-1,16,-5,-12,5,2,-6
15625,3,-5,-14,1,32,-5,-4,-7
15630,3,-13,-9,3,-9,2,0,1
15635,-20,27,1,7,-4,-7,-3,-5
15640,2,-21,1,-18,-19,-2,0,0
15645,14,18,29,-1,-15,1,-2,-4
15650,-10,-17,-21,5,13,-4,-1,0
15655,4,1,2,-7,-7,0,-1,2
15660,-2,28,7,6,7,-4,-1,7
15665,-4,-12,-7,4,-3,-2,-1,1
15670,5,-1,11,-10,-2,-4,-1,2
15675,-9,-14,-6,2,-6,3,1,-5
15680,13,-6,-7,1,4,2,0,1
15685,-11,-2,-2,-3,8,-3,-1,5
15690,-7,-52,-4,-2,-14,2,-3,-8
15695,-13,4,-4,-11,17,5,0,5
15700,14,24,-6,1,3,-3,2,3
15705,10,5,3,-4,-13,-6,-4,4
15710,10,42,5,11,4,-4,-2,-6
15715,-19,-32,4,-16,-3,0,-1,-2
15720,17,5,9,8,-7,-5,-3,1
15725,-10,28,-29,-16,8,5,-1,-1
15730,-12,-34,-15,-4,-16,-2,1,5
15735,14,2,4,8,17,4,0,-1
15740,-12,-29,3,-4,3,-2,-2,2
15745,3,20,7,8,-30,-8,-4,0
15750,4,0,16,1,33,7,1,-1
15755,-4,-27,-11,-8,-8,-5,-4,-13
15760,-3,8,-12,4,1,1,0,2
15765,-5,20,19,0,-9,-2,3,12
15770,12,13,-2,0,6,2,-3,-21
15775,0,-38,7,9,5,-1,0,1
15780,-15,13,1,0,2,-3,-4,-6
15785,7,-33,-1,1,-3,4,2,2
15790,-12,9,10,-7,9,-6,-2,1
15795,6,28,-21,-12,-25,-5,-7,-8
15800,-4,-8,-1,-10,6,4,2,1
15805,-11,-1,20,10,-3,-2,-2,-2
15810,-4,-20,-2,-2,13,1,-4,-14
15815,9,-1,-6,3,-1,-7,0,6
15820,-10,19,0,0,-2,-2,1,6
15825,16,37,-4,3,0,-2,-4,-14
15830,-6,-6,11,-7,-20,0,2,14
15835,3,-6,1,7,26,5,1,-3
15840,9,14,-4,-7,-14,-2,-1,-3
15845,-5,-2,-14,-5,10,4,1,5
15850,-7,-85,-11,11,-4,-8,-2,1
15855,2,41,4,-11,-3,10,4,5
15860,-4,-5,1,4,-6,-8,-4,0
15865,-12,-26,-8,-6,19,7,4,0
15870,23,79,14,2,9,-5,-7,-6
15875,5,-48,-4,-9,-21,-4,1,-1
15880,-11,-49,-18,6,22,3,-1,-3
15885,2,18,-6,-1,-1,-4,-3,-9
15890,-15,14,16,-6,-21,1,2,10
15895,1,18,7,6,1,-5,-2,0
15900,17,11,-2,4,-5,-2,-3,-3
15905,-13,-105,-10,-10,-11,-1,2,5
15910,-21,17,-8,0,7,0,-5,-20
15915,18,23,8,-2,-20,-6,-2,3
15920,-3,-24,-16,6,20,6,0,1
15925,-3,56,13,0,-10,-5,0,-3
15930,2,-27,-9,-3,-1,3,0,2
15935,-20,-9,7,2,-15,-8,-1,0
15940,2,21,-2,-15,-3,-1,-1,-3
15945,10,26,-4,3,16,5,-2,-3
15950,12,0,-10,-1,7,-2,0,11
15955,-5,10,2,8,1,-5,-4,-10
15960,0,12,22,-1,-12,0,0,1
15965,-17,-36,2,-2,4,-7,-5,-6
15970,23,13,-9,-2,-15,-1,2,8
15975,4,-8,-8,-4,-2,4,1,5
15980,-2,-3,6,3,10,-2,-1,-7
15985,-4,-23,-3,-4,-13,-1,0,0
15990,-12,11,-3,-3,-5,0,1,0
15995,-1,-6,1,3,1,0,0,1
16000,-2,18,2,-1,6,0,0,-7
16005,-3,8,8,11,-14,-3,-3,-8
16010,0,-5,-8,-8,-11,1,3,5
16015,-2,-16,-7,-4,-7,-3,-3,1
16020,-5,-28,-1,-1,-5,-3,0,-4
16025,6,13,-1,0,15,2,3,2
16030,8,31,13,7,3,-4,-3,0
16035,-12,-14,-5,3,5,8,2,6
16040,9,16,0,-4,-27,-12,-3,-5
16045,-9,-29,0,1,11,8,0,-19
16050,-1,14,-7,-2,1,-4,-5,-4
16055,-10,18,-3,6,2,-4,-1,-4
16060,3,-18,-3,2,-2,-3,0,9
16065,10,17,-23,11,-8,-5,2,15
16070,-20,12,4,-21,17,13,5,-7
16075,13,5,1,-1,-4,-1,-2,-7
16080,-2,-27,-4,2,-2,5,1,5
16085,-5,15,5,-5,-5,-4,-4,-5
16090,-2,-30,-10,13,11,1,0,1
16095,-15,-31,-1,-1,14,-2,-1,1
16100,13,31,9,-11,-15,2,-1,-6
16105,-7,-44,1,0,1,-4,1,1
16110,8,-22,-5,-5,-6,-4,-3,2
16115,4,23,1,-2,1,1,-2,-4
16120,-5,2,-1,3,2,3,1,-1
16125,-7,11,-5,-5,12,2,-2,0
16130,16,16,-1,1,-9,-3,0,2
16135,-2,-15,5,0,5,-3,-2,-1
16140,0,-15,-5,22,13,-3,-3,2
16145,-9,36,1,-27,-19,4,0,-5
16150,2,-48,-5,6,-2,4,3,5
16155,8,11,-30,-3,-29,-10,-1,6
16160,-16,1,7,-5,27,3,-4,-16
16165,11,34,-5,4,-6,-4,-4,-1
16170,-7,-47,12,5,0,-4,-3,-2
16175,-3,49,4,-4,3,3,4,12
16180,-15,-29,-2,-4,-9,0,0,-16
16185,10,-1,-9,5,8,-1,-3,-3
16190,-4,-18,-5,-8,-18,-3,-2,-5
16195,-6,3,3,4,7,-4,-3,3
16200,-2,15,3,-10,4,-2,-1,4
16205,4,-4,-4,0,-1,4,1,-5
16210,-5,8,-18,0,1,0,-2,-3
16215,-4,0,12,5,12,-1,-1,-4
16220,9,-3,4,-6,-24,-1,-1,7
16225,-2,-20,-20,5,19,-1,0,1
16230,2,48,11,-4,2,-2,-1,2
16235,-5,-30,-13,5,-5,-2,-1,-4
16240,15,20,-2,0,-15,2,2,6
16245,-5,-18,1,0,2,2,1,-1
16250,-11,28,7,1,4,0,-1,-11
16255,-7,-12,-2,-8,2,1,-3,-2
16260,21,15,-7,4,-6,-5,-2,5
16265,1,-3,8,-6,-10,-5,-1,0
16270,4,10,-5,7,0,-1,1,5
16275,-2,-13,11,-5,6,5,6,5
16280,2,-8,-14,0,5,-3,-7,-14
16285,7,17,15,0,-11,1,1,8
16290,-10,-18,0,-4,7,1,-2,-3
16295,10,-15,4,3,5,-1,-4,-6
16300,-18,8,-3,-3,3,-4,1,8
16305,9,-4,-8,-2,-2,3,0,-1
16310,-1,-3,5,-3,1,7,-1,-6
16315,1,-3,0,-1,-12,-5,-1,-1
16320,2,-14,-12,3,14,-3,0,3
16325,-24,-6,0,2,11,2,-1,-10
16330,5,28,0,7,12,3,1,6
16335,5,-6,-4,-14,-28,2,2,1
16340,0,-41,-8,-4,-8,-3,-10,-29
16345,12,22,10,5,4,-4,1,12
16350,11,5,-13,-6,4,-1,1,5
16355,-7,-35,2,8,1,1,-1,-1
16360,-10,25,0,-1,-8,-3,7,12
16365,-3,-12,0,0,-2,-2,-3,4
16370,2,29,2,6,14,0,-1,-2
16375,-21,21,-1,-15,-9,3,-1,-12
16380,5,-35,-2,-7,-4,0,2,9
16385,6,4,5,2,1,-1,-1,-1
16390,-1,10,-5,-8,-16,-4,-4,-4
16395,14,46,-1,3,5,-5,-1,-4
16400,-14,-26,-6,6,17,3,2,5
16405,-3,19,8,-3,6,3,-2,-1
16410,20,-28,-17,-14,-25,-5,-2,6
16415,-4,24,0,6,22,4,3,0
16420,-1,8,15,2,-3,2,0,-6
16425,4,9,-2,-5,-9,-3,-2,6
16430,-16,-27,-8,0,1,-5,-2,-1
16435,-3,2,1,2,-4,-1,-2,-8
16440,4,47,5,-4,3,4,5,11
16445,-1,-9,6,1,-8,-5,-4,-3
16450,-7,10,-18,-1,-9,2,0,-1
16455,3,1,-7,4,2,0,-1,7
16460,-8,-75,5,1,5,-3,0,9
16465,-6,13,-2,-5,-9,-2,0,-24
16470,1,21,19,0,-3,-1,-4,-6
16475,-6,-42,-7,0,0,-5,-1,6
16480,4,40,0,-3,8,5,-1,4
16485,-25,-28,2,-1,-2,0,0,8
16490,31,-3,9,2,7,-5,-3,-5
16495,2,12,6,-5,1,2,-1,-2
16500,-4,5,3,2,-6,-2,-1,-6
16505,2,-9,-2,-7,-7,-4,0,6
16510,-15,8,2,1,-11,-7,-4,-10
16515,5,-34,-4,1,14,5,-2,-2
16520,-2,1,6,-5,2,-1,-1,-4
16525,1,-17,-5,6,3,0,2,3
16530,-18,-15,3,3,9,0,3,-1
16535,28,19,5,1,0,-2,1,3
16540,-25,-5,-14,-3,-36,2,5,-5
16545,2,-51,-18,-4,17,-7,-9,-22
16550,-12,5,1,8,7,2,0,6
16555,11,-6,-3,-6,-11,-3,0,6
16560,24,27,2,2,12,-1,-3,2
16565,1,20,-3,-8,-13,-1,3,6
16570,-6,-5,3,3,-3,-2,-1,-2
16575,-16,-10,-2,5,11,0,0,-2
16580,-1,-6,-4,0,-7,1,1,6
16585,0,10,4,-3,2,2,1,7
16590,18,26,-4,-2,-1,-2,-5,-20
16595,-9,-24,2,6,1,-1,-1,-1
16600,-3,-12,-8,0,21,2,-6,-15
16605,5,19,4,-12,-21,6,6,15
16610,1,3,5,-7,-6,-1,0,9
16615,-14,8,-2,-2,-1,-4,-2,-11
16620,0,26,4,9,23,1,-3,-7
16625,4,-1,2,2,-5,1,1,1
16630,17,-7,-7,2,-10,-8,-1,6
16635,-2,-36,-13,-10,6,6,-2,-1
16640,-13,0,3,-7,-10,-9,-3,4
16645,-14,8,-2,7,-5,-3,-2,-7
16650,6,-3,2,-8,-1,0,1,3
16655,5,14,10,13,5,-3,-2,-11
16660,-10,-4,-2,-3,12,1,-1,-9
16665,3,0,-7,-3,-16,2,1,0
16670,-14,-11,1,3,-12,-7,3,13
16675,11,12,13,-10,8,4,2,0
16680,5,-5,-12,7,-3,-8,-6,-6
16685,-14,3,-4,-8,-21,-6,0,-1
16690,8,-26,-11,10,27,11,1,-8
16695,11,10,5,4,-12,-5,0,11
16700,8,15,10,-14,-13,3,3,1
16705,-8,12,11,9,10,-6,-5,-10
16710,-18,-24,-16,-8,-6,-2,-1,1
16715,10,19,8,-6,-1,-3,-2,-1
16720,2,4,-3,7,-2,0,0,-6
16725,2,3,7,-7,-1,-3,-4,-8
16730,-12,6,5,3,-1,1,-2,-7
16735,3,21,-6,-3,-2,-1,-4,2
16740,-14,-70,-3,-12,-11,2,3,4
16745,8,-8,-5,2,8,-5,-4,-1
16750,8,49,12,-6,-6,0,2,5
16755,-21,-44,-11,7,12,-5,-4,4
16760,-7,-14,-6,4,-18,0,2,4
16765,29,-11,-15,5,22,1,-2,-5
16770,-8,5,14,-2,8,6,2,2
16775,-2,-16,-12,-10,-46,-2,1,14
16780,3,24,-8,12,16,-7,-4,-4
16785,10,-29,6,-4,27,7,2,4
16790,-2,37,-1,2,-12,-4,-1,-1
16795,-11,-16,10,2,6,-5,-4,-2
16800,-2,-3,2,-14,-9,-4,-4,-8
16805,1,3,-6,5,-17,-4,-1,3
16810,5,11,2,-1,19,3,-3,-4
16815,-17,-7,-13,-1,-2,0,1,-3
16820,-3,-13,4,2,0,-5,-4,3
16825,-3,2,-6,5,5,5,3,1
16830,5,-19,0,-1,-12,-6,-5,-10
16835,4,23,9,-6,-2,0,-1,-4
16840,7,17,-3,-13,-12,2,-1,1
16845,-10,4,7,1,7,-2,-3,6
16850,-17,-79,7,-5,-9,-5,-1,-4
16855,10,45,-9,12,5,-6,-3,-8
16860,-5,-20,-12,-11,-10,7,2,0
16865,-1,24,17,3,-7,-2,9,15
16870,8,-3,-10,-7,2,0,-6,-6
16875,3,3,4,10,5,-1,-2,-8
16880,6,-10,9,-10,4,1,2,7
16885,-10,10,-15,5,5,6,2,-6
16890,16,-9,-8,-4,-5,-2,1,14
16895,-18,22,-1,-6,-6,-4,-6,-19
16900,10,8,6,6,6,-3,-4,1
16905,-13,-20,0,-5,-1,-2,-2,-3
16910,4,10,12,-4,-1,4,0,1
16915,10,-3,-21,4,-6,-4,0,1
16920,-9,18,-4,-2,10,1,0,-4
16925,5,7,4,-8,-1,1,-3,-5
16930,-13,-14,-1,2,-4,-4,0,-2
16935,6,-13,-5,5,25,4,3,7
16940,4,21,8,-2,-17,-3,0,-3
16945,-2,-2,1,6,-19,-3,-5,-1
16950,-2,0,-5,-2,29,3,1,7
16955,-4,1,-1,-8,-16,1,-1,-4
16960,1,0,-1,4,11,-5,-2,-2
16965,3,1,0,-1,2,4,-2,0
16970,-6,0,0,-2,-3,0,0,-4
16975,-2,-16,5,-1,-4,-2,-1,-1
16980,-3,16,-4,3,-7,0,-1,0
16985,12,-10,-11,3,10,-3,-4,1
16990,-1,4,4,3,-15,-6,0,0
16995,-7,-1,17,-5,19,4,-2,4
17000,-4,42,8,-5,-26,-5,-1,5
17005,-1,-33,-9,-1,-3,-1,-2,-11
17010,3,32,-7,6,13,1,-1,-3
17015,5,-4,8,-12,-16,-2,1,3
17020,-8,15,4,16,32,0,-2,3
17025,15,-11,-2,-14,-8,3,3,8
17030,-5,4,-6,-2,-11,-1,-3,-1
17035,-8,-16,7,6,-17,-3,1,-3
17040,13,14,-6,10,34,-1,2,8
17045,-10,-50,-11,-13,-10,4,-1,-10
17050,-13,-10,-7,-11,-22,-2,-1,-3
17055,25,1,-10,-3,6,-3,0,3
17060,-12,-20,1,4,-17,-4,-3,-2
17065,12,43,11,6,20,-6,-4,-3
17070,-14,16,-3,0,-3,-2,-2,1
17075,18,-9,-1,-5,-23,3,0,1
17080,-7,7,-6,5,26,-1,-1,-3
17085,-7,16,-6,-5,-22,-3,-2,-6
17090,-1,-11,-8,8,12,2,-2,-6
17095,2,28,0,3,-3,-2,1,9
17100,-4,-70,-11,-4,-8,-1,-5,-17
17105,1,-2,-30,-2,8,-4,-1,8
17110,-3,13,11,3,1,2,3,-2
17115,-13,6,7,-8,-4,-3,0,-5
17120,14,-10,-3,3,-7,1,2,4
17125,-9,-9,17,1,14,6,3,0
17130,3,-16,-3,2,-33,-10,-7,-10
17135,-6,-9,-12,-3,36,11,1,0
17140,-10,-9,3,-7,-6,2,1,3
17145,1,18,-3,0,-1,-1,1,6
17150,29,-28,-4,4,2,1,1,1
17155,-17,13,4,3,8,-2,-3,-13
17160,7,-31,-9,-7,-17,-1,-3,0
17165,-13,4,5,4,-1,3,5,2
17170,13,11,26,7,18,-4,-4,-3
17175,-7,-39,-20,-9,-6,0,-5,-3
17180,9,17,2,-5,-2,0,2,6
17185,-6,25,15,2,-9,-1,1,-7
17190,-10,-8,-26,-4,15,1,0,-3
17195,6,46,9,3,6,0,-1,-3
17200,-17,-34,10,-2,-18,-6,-4,-1
17205,2,-17,-4,-2,8,-3,-4,-4
17210,0,-7,14,2,15,4,3,10
17215,7,27,4,-2,5,5,2,10
17220,3,19,-14,-7,-12,-4,0,-9
17225,14,4,12,10,-4,-6,-4,-1
17230,-9,14,8,3,4,5,-1,1
17235,-2,-3,4,-12,-10,-1,-2,-2
17240,-12,-23,-17,2,8,1,2,-3
17245,1,3,7,-2,-9,-2,-3,-1
17250,-3,-5,-10,3,-2,-7,-3,-1
17255,2,-1,-14,-8,-12,3,2,3
17260,-2,60,29,-4,-10,4,-1,-8
17265,-6,-95,-11,1,6,-1,-1,5
17270,-13,1,-8,-9,-11,-4,-4,-3
17275,21,1,3,9,3,-6,-1,-6
17280,-5,21,-14,7,5,1,-1,-3
17285,9,26,10,2,-5,-2,1,8
17290,1,-5,7,-11,2,3,0,-4
17295,-21,23,-14,-1,-8,1,1,3
17300,12,-25,-2,-2,-1,1,-3,-1
17305,-12,29,5,12,31,-3,-2,0
17310,15,3,9,-6,0,3,3,7
17315,-9,-5,-26,-9,-20,-4,-6,-12
17320,9,0,-9,-4,-6,5,4,11
17325,-17,3,13,-1,-3,-3,-2,-15
17330,6,-2,-12,4,-4,-7,-1,1
17335,-9,-81,2,7,24,6,5,9
17340,-7,-2,2,-8,-16,-7,-3,-16
17345,10,0,-9,-10,-8,-1,-6,-3
17350,1,6,-5,-1,-6,0,3,-1
17355,-7,7,14,6,-7,-8,-4,-9
17360,1,-9,2,5,13,4,3,8
17365,-1,20,-5,-6,-10,-1,0,10
17370,-7,-20,4,0,8,-4,-3,-4
17375,-13,-6,-3,-4,-1,0,-1,-5
17380,5,11,3,0,2,4,5,8
17385,17,9,2,6,-11,-4,-1,2
17390,-11,3,0,-5,-6,7,0,3
17395,12,-20,-13,4,-3,-5,-2,0
17400,-14,-13,2,0,11,-5,-3,-2
17405,4,41,-10,-1,18,1,1,-8
17410,5,-51,-5,-3,-6,2,-1,2
17415,-5,12,11,-11,-18,-1,-1,-1
17420,4,2,1,8,10,-4,-1,2
17425,-9,2,-4,-8,-13,-1,-1,7
17430,-9,10,2,2,8,0,-2,-12
17435,0,-2,0,-3,-2,-5,-3,-7
17440,5,15,4,3,4,-2,0,11
17445,-7,-3,2,-2,-13,-2,-2,-4
17450,-15,9,-5,-4,3,-1,-1,0
17455,26,10,8,1,-2,0,0,-2
17460,2,-11,-3,4,-4,-5,-1,2
17465,-3,14,-1,-7,7,3,-1,-5
17470,-12,-11,-9,-7,-22,-3,2,7
17475,-11,31,7,3,-4,-5,-5,-12
17480,-6,-32,11,3,21,5,2,2
17485,15,31,-11,0,-7,-4,-2,0
17490,0,-15,5,8,-16,2,-2,-2
17495,-20,-10,-22,-3,30,2,0,7
17500,5,28,8,-5,-16,-3,-4,-16
17505,-4,-31,3,3,-4,-4,0,2
17510,-5,12,-6,6,23,7,4,7
17515,14,8,13,4,-1,-3,-2,-4
17520,8,-9,2,-15,-24,2,-1,3
17525,-14,4,-7,-2,11,3,0,-3
17530,0,0,-17,4,7,-3,0,5
17535,7,-17,0,7,-2,-2,-3,-8
17540,-5,6,-7,-7,-8,2,-4,-8
17545,-3,-24,8,3,0,0,-1,-2
17550,1,33,8,-7,-6,-4,1,9
17555,-7,-23,-25,2,-4,-1,-1,0
17560,3,27,5,-2,-4,-4,-2,-6
17565,-5,-13,-3,2,15,3,2,2
17570,4,15,9,-4,-1,2,-2,-5
17575,2,-23,3,2,14,5,6,11
17580,3,3,-6,1,-12,-8,-4,-1
17585,-5,-5,11,-2,-8,-2,-1,-4
17590,-4,-13,-1,-3,-7,0,-3,0
17595,12,18,4,2,1,1,1,6
17600,-4,-7,-6,0,11,-3,1,7
17605,-1,-10,3,7,4,-2,0,2
17610,12,31,2,-11,-4,1,-6,-12
17615,-15,14,10,0,-3,-1,0,0
17620,-4,32,-4,-2,5,0,-1,3
17625,13,12,4,8,13,1,4,17
17630,-6,-2,-6,-6,-18,-1,-2,-23
17635,-2,14,-8,3,9,-1,-1,-1
17640,0,-6,-7,5,17,5,1,-4
17645,-2,-22,10,-4,-11,-2,-1,-2
17650,7,-6,3,-6,-6,-1,1,7
17655,-10,-7,12,-2,-10,-3,1,1
17660,0,4,-10,-1,6,3,-3,-5
17665,0,-6,7,-2,-11,-3,-3,-5
17670,-2,-35,-16,-2,9,2,4,-4
17675,2,20,1,0,9,-4,-4,0
17680,0,-28,-12,-4,-12,1,0,2
17685,-9,9,-2,-6,-6,-1,1,5
17690,4,-45,3,6,7,-5,-3,-3
17695,7,-18,-5,-3,-10,-1,3,7
17700,-29,1,0,10,0,-2,-2,-4
17705,23,-29,-2,-16,5,2,-2,-2
17710,-8,23,-5,7,-3,-3,-2,-3
17715,1,7,4,0,15,2,1,2
17720,4,-25,-4,-2,-5,-7,-5,-4
17725,-10,20,-9,-2,-10,1,0,-3
17730,0,-14,13,4,3,-2,-1,3
17735,-1,-7,-32,-5,-4,2,2,1
17740,-5,17,22,9,4,-12,-6,-8
17745,2,-35,-15,-21,-9,15,4,1
17750,7,11,6,1,7,-1,1,3
17755,-11,-9,2,-1,-9,-4,-1,6
17760,23,52,9,1,7,2,4,7
17765,-15,-49,-13,7,-13,-7,-2,-15
17770,-1,13,0,4,16,2,-3,2
17775,-13,-7,8,1,-23,-7,-2,2
17780,-12,5,-4,-9,5,9,2,2
17785,26,37,-3,-2,23,-3,-3,2
17790,-1,0,-4,-7,-13,-2,3,0
17795,-2,-21,3,6,-2,-1,-2,1
17800,-4,16,-10,8,10,-1,-1,-3
17805,-11,14,-11,4,-12,-2,-1,-5
17810,5,18,10,6,-9,-5,-1,-1
17815,4,-5,2,-6,-8,4,0,-2
17820,-5,-25,-15,-8,7,-2,-2,-3
17825,-2,-6,-6,5,-1,-6,-2,3
17830,12,53,4,4,4,4,2,2
17835,-6,-28,3,0,-1,-3,-4,-13
17840,14,-26,1,-5,-1,4,2,12
17845,-20,20,3,4,-14,-3,-4,-13
17850,1,-9,-7,-5,3,-2,2,6
17855,3,12,8,-5,-3,5,0,2
17860,-7,-11,2,-1,0,-3,0,-4
17865,3,7,-1,1,2,-2,-3,-8
17870,7,-2,4,10,-1,-3,0,1
17875,-3,14,1,-19,-11,3,3,-6
17880,-6,-56,-1,2,4,-3,-6,-12
17885,12,70,-3,-4,-19,0,2,10
17890,-18,-38,2,0,31,2,-4,-11
17895,3,5,-8,10,0,-4,-2,2
17900,-7,-21,-12,3,-3,1,2,4
17905,-2,-27,10,3,4,-4,-3,4
17910,2,4,-24,-11,-35,-3,-5,-34
17915,9,33,2,9,32,1,-3,0
17920,-1,-2,13,-7,-12,1,0,-1
17925,1,-9,-5,7,10,6,1,5
17930,-9,1,-1,-1,-4,-5,-1,4
17935,-5,-12,1,1,-3,-3,-1,1
17940,4,24,-8,3,-6,-2,-6,-13
17945,12,-15,0,-14,-4,1,-4,-8
17950,0,-7,6,0,-3,-1,1,11
17955,6,3,4,12,15,2,2,-4
17960,-6,8,6,-18,-19,-3,0,11
17965,-17,-35,-2,5,13,2,2,4
17970,7,89,3,-7,-13,-4,-3,6
17975,-2,-62,-13,8,-5,-5,-5,-14
17980,-7,1,3,-4,31,1,0,2
17985,17,7,13,1,21,5,0,-5
17990,-11,-15,8,-6,-21,-2,-3,6
17995,0,19,2,-1,0,-2,1,2
18000,7,7,2,3,-11,-2,0,-1
18005,-16,-12,4,0,-8,-5,-1,2
18010,19,19,-11,8,31,1,0,6
18015,-9,-17,-9,-6,-28,-4,-7,-9
18020,-3,-12,-2,-13,-12,6,-1,-6
18025,-7,8,-1,5,10,4,3,3
18030,-5,-28,7,5,-4,-4,1,0
18035,-5,3,2,-2,9,1,-1,2
18040,-15,22,0,5,-3,-2,3,18
18045,30,-60,-19,6,-5,-7,-5,-28
18050,2,-1,10,-27,-23,15,4,1
18055,-2,5,-8,-6,13,-3,0,-3
18060,-1,-1,4,5,-4,3,3,2
18065,-11,26,5,5,-2,-5,-1,10
18070,-9,-21,-8,2,-10,-6,-5,-6
18075,4,-22,-3,1,12,2,2,6
18080,5,49,12,11,10,-1,2,-1
18085,2,16,-1,-15,-30,1,-3,-6
18090,-3,-41,-35,-1,14,1,-3,-6
18095,-5,-14,-1,-8,-11,-2,0,6
18100,3,-11,2,12,11,-9,-3,0
18105,-4,14,-1,-1,-1,1,0,0
18110,-7,-5,8,1,1,1,2,2
18115,0,10,5,3,-1,-2,-3,0
18120,12,4,-9,-3,-6,-1,1,16
18125,-40,-70,-2,0,23,6,-1,-28
18130,25,47,21,-8,-8,-7,-8,-20
18135,-10,9,-6,-1,-7,-1,2,7
18140,18,-15,1,-5,-11,-2,-4,-19
18145,-5,23,-5,-4,-6,-3,2,21
18150,-10,-12,3,14,13,-5,-1,7
18155,4,6,1,-3,-3,2,1,-6
18160,-10,-20,-2,0,3,0,-2,0
18165,9,27,10,-3,-3,3,2,14
18170,5,42,6,-2,-6,3,0,-6
18175,7,-8,-12,-10,2,-1,-5,-6
18180,-6,-50,-27,-2,-11,-1,-1,-3
18185,-2,5,11,2,5,-4,-5,-4
18190,-8,-31,-4,-1,-13,-5,-2,1
18195,2,51,21,-4,-1,-4,-2,1
18200,5,12,7,4,19,4,1,-3
18205,-12,-9,-15,-15,-16,4,1,11
18210,2,-13,-2,2,-2,-4,6,16
18215,10,43,8,-4,-4,-2,-5,-14
18220,7,-10,4,1,-3,-5,-6,-14
18225,5,13,-13,4,3,-3,-1,5
18230,-18,-19,-10,-1,8,1,1,8
18235,-4,-26,-1,0,-8,-2,0,3
18240,5,11,4,-4,2,-1,0,-2
18245,-1,13,4,-2,-2,-1,-1,0
18250,-1,-7,1,5,1,-3,1,-2
18255,-12,4,0,-5,-6,-1,-1,1
18260,4,-50,-5,3,0,2,-1,-10
18265,15,-5,1,-7,-8,-2,1,4
18270,-14,-11,-8,-9,-12,-1,-2,-10
18275,-4,-7,8,12,28,4,3,10
18280,-5,55,3,-3,-1,2,-1,-7
18285,-2,2,7,3,-3,-5,-8,-15
18290,19,6,0,-3,3,2,1,11
18295,-12,-15,6,-4,-20,-2,-4,-2
18300,-11,-12,-45,-3,6,-4,-3,-1
18305,0,9,3,3,11,-3,1,0
18310,-2,2,-2,-7,-5,-1,-2,0
18315,7,16,8,9,7,3,3,-5
18320,-1,-50,6,-7,-6,-1,-3,9
18325,8,-19,-7,4,-13,-6,-3,-6
18330,-6,3,0,-8,11,10,3,7
18335,4,-25,-3,1,-1,0,2,3
18340,1,29,-7,-4,-11,-4,-2,0
18345,3,0,-3,6,5,-2,3,-1
18350,-19,-26,1,7,6,-5,-8,-4
18355,20,-2,-11,-2,5,1,-3,-10
18360,-12,23,13,-3,-4,1,1,1
18365,8,-14,-11,0,-4,-3,-2,5
18370,-6,21,0,-3,1,-2,-1,-3
18375,6,-9,-4,0,2,0,2,0
18380,4,-7,6,7,3,0,1,7
18385,-9,0,-4,-8,-14,6,4,-4
18390,0,-10,1,5,2,-4,-4,-7
18395,-7,7,-4,-1,-5,-5,-3,-1
18400,3,13,5,-2,4,2,3,7
18405,-8,7,4,2,-3,-1,-3,-12
18410,-10,-1,-3,14,19,0,3,-4
18415,17,4,-7,-20,-21,-2,-4,-5
18420,8,3,11,-5,-6,1,1,-1
18425,-1,9,7,-1,-5,-3,-1,1
18430,-5,30,-1,0,3,-3,1,1
18435,-6,-17,7,10,7,-3,-2,1
18440,-8,29,-2,-3,-15,-1,-1,6
18445,-3,-58,-2,1,11,-1,-3,-8
18450,6,1,-6,0,-4,-3,-2,-8
18455,-1,8,0,-2,-15,5,3,10
18460,2,14,9,-4,5,2,-1,-4
18465,-9,8,0,0,3,0,1,7
18470,10,-14,-3,3,1,-4,-5,3
18475,-10,7,-1,0,0,2,0,-17
18480,-17,14,11,-9,4,0,-2,-4
18485,16,-3,-8,-1,-4,0,1,8
18490,3,-17,-3,0,3,3,1,4
18495,-13,19,-5,-3,-6,-2,0,3
18500,20,-29,-31,0,-1,-6,-8,-2
18505,-5,13,1,-3,14,4,-2,1
18510,2,-1,8,-1,-7,1,1,-1
18515,-6,7,-11,1,0,-2,0,4
18520,-12,-37,2,1,-4,-4,-1,-2
18525,-1,7,-4,0,0,0,2,1
18530,4,35,1,0,-10,1,-1,0
18535,-16,-59,-33,-7,20,0,-1,-3
18540,20,12,11,3,0,1,2,-6
18545,5,16,-6,1,-5,0,-5,-6
18550,0,9,16,-5,-5,-2,1,-3
18555,-3,2,6,5,-6,-3,-1,3
18560,3,9,-4,-8,4,1,2,6
18565,2,7,1,5,9,3,4,10
18570,-8,-30,-8,0,4,-3,-3,-6
18575,0,-8,5,-2,14,0,-4,-11
18580,-29,-6,0,-10,-24,0,-1,-3
18585,27,3,0,6,9,-2,4,3
18590,12,18,-11,-5,2,4,-2,12
18595,1,6,2,5,1,-6,-2,2
18600,-6,6,5,6,6,7,0,-4
18605,-21,-5,10,-9,-12,-3,-3,-4
18610,-12,-19,-18,-7,-6,-5,0,3
18615,37,13,3,6,1,-1,-1,1
18620,-18,-18,1,3,-8,-2,0,-11
18625,-6,0,4,-2,19,1,-2,-2
18630,10,5,6,9,-10,3,4,2
18635,-12,18,8,-8,-4,-1,-4,-4
18640,15,-11,-5,4,-2,-4,1,10
18645,2,1,-4,-6,-5,-6,-1,1
18650,-27,-25,-6,0,5,-2,-7,-25
18655,0,10,3,-7,-7,5,4,2
18660,13,17,1,4,8,-1,-1,6
18665,-3,-23,-7,2,-12,-3,-3,-9
18670,2,2,18,-2,-11,-8,-4,4
18675,-4,2,-13,-5,4,4,2,1
18680,-5,-19,-9,-1,3,-2,-3,-10
18685,-5,21,8,-1,-5,-3,0,5
18690,6,14,0,0,-3,0,-1,-3
18695,-14,-58,-6,8,7,-6,-1,1
18700,-8,2,-17,-5,5,8,4,6
18705,8,-1,2,-3,-6,-3,-1,2
18710,10,2,-4,-4,1,-4,-2,-19
18715,-1,7,11,4,-17,3,3,-3
18720,2,25,9,6,29,2,0,4
18725,-12,-5,-5,-4,-14,-1,0,0
18730,1,-8,-10,-2,2,0,2,5
18735,2,6,-2,-8,-11,-4,-2,1
18740,-1,-4,3,0,-10,-3,-1,-4
18745,5,-2,-5,2,6,0,-2,6
18750,-29,-22,-7,-9,-5,2,-1,-8
18755,26,19,1,0,9,-4,-2,-4
18760,-1,18,0,7,8,-1,-3,-1
18765,2,3,-5,-3,-5,-1,-1,-3
18770,2,10,-4,3,8,0,0,8
18775,-13,-16,3,0,-2,1,2,10
18780,8,6,-2,-1,-8,-5,-1,-10
18785,-11,14,17,3,2,-2,-1,-2
18790,4,-62,-63,-5,3,3,-4,-16
18795,7,33,-1,2,10,4,5,11
18800,4,-2,25,0,-9,-4,-1,2
18805,-9,-14,-8,-5,-1,2,-2,2
18810,-3,15,15,0,-7,-6,-1,-2
18815,-10,-13,-14,-1,3,-4,-3,1
18820,-1,-9,-5,5,18,5,2,-2
18825,0,5,1,-10,-21,-1,-4,-6
18830,6,-17,9,-5,-5,-1,1,8
18835,-1,11,1,-1,9,-2,-2,-5
18840,-8,-31,13,-7,-16,-4,-3,1
18845,-8,15,-1,2,15,1,-1,-6
18850,8,-7,9,4,3,4,3,8
18855,-8,-10,8,-8,-13,0,0,13
18860,21,28,-9,0,1,-3,-7,-29
18865,-7,-9,-4,-1,10,1,-3,-12
18870,-1,-1,-12,0,-6,-1,1,0
18875,-11,-18,-3,1,-3,-4,-2,3
18880,0,-5,2,-1,0,-3,0,6
18885,-2,20,2,-1,1,4,3,12
18890,4,-27,3,1,6,-1,1,-1
18895,1,20,-1,-5,-17,-1,-5,-18
18900,-5,-2,-13,-1,-6,-1,-2,2
18905,8,-40,-5,4,5,-3,-1,0
18910,9,5,7,8,-4,-5,-2,6
18915,-4,-11,-2,-8,1,1,-1,2
18920,-1,17,-1,0,-2,2,1,0
18925,-11,-3,8,7,9,-5,-4,-5
18930,15,22,-13,-18,-12,-1,-2,-3
18935,0,-13,0,4,13,1,-2,-6
18940,-3,-8,-1,-3,-17,1,1,2
18945,-1,17,2,1,16,4,3,5
18950,-8,38,30,0,5,-3,-2,3
18955,2,-17,-13,1,-6,2,1,-4
18960,-5,4,-8,-6,-6,-6,-6,-2
18965,3,-21,-5,2,-8,-3,1,-1
18970,-7,4,2,-1,6,2,1,-2
18975,14,23,11,2,2,-2,-2,-5
18980,-16,-12,2,1,-4,-1,2,10
18985,24,-21,-7,-2,5,2,-4,-7
18990,-30,6,6,0,0,-3,-3,-1
18995,29,15,7,1,-1,0,-2,-19
19000,-6,-24,-24,-4,-3,-2,-2,-2
19005,-4,12,14,-4,1,1,1,6
19010,0,-19,-20,6,9,3,1,-3
19015,-18,-11,-2,0,-14,-5,-2,0
19020,8,19,29,-1,27,8,-1,1
19025,-2,12,-29,0,-3,-2,0,4
19030,-1,4,5,-6,-10,-3,0,5
19035,-10,3,4,-4,-5,-2,-4,-7
19040,14,-8,4,3,4,-1,4,0
19045,-9,-9,0,5,3,1,-4,-1
19050,-6,-5,5,1,-2,6,5,-1
19055,-13,-2,-8,-7,-7,-5,0,7
19060,17,16,8,-5,-13,-3,1,4
19065,-4,22,2,0,5,-1,-6,-15
19070,-1,6,4,8,-9,-1,-3,-5
19075,-3,28,-1,-4,22,7,4,5
19080,-13,-38,-17,-1,-3,-4,1,5
19085,2,4,-1,-1,-19,-5,-2,-3
19090,4,3,-4,-5,10,4,-1,-3
19095,2,6,13,7,-6,0,2,7
19100,-15,-7,-12,-9,16,5,0,-5
19105,11,-5,9,2,-16,-8,-1,-1
19110,5,6,4,-5,-9,5,3,-2
19115,4,-14,-9,7,8,0,-3,0
19120,-2,15,9,0,-8,-2,-2,2
19125,-13,-18,0,-7,-4,2,3,5
19130,-5,-2,-10,3,2,-7,-2,-12
19135,12,34,1,-9,16,9,0,-7
19140,0,-26,13,1,-20,-8,-4,7
19145,-4,12,-5,-4,-4,-2,-4,-15
19150,3,11,7,-3,11,1,2,7
19155,-12,-26,-13,-4,-5,-5,-1,3
19160,-4,7,2,1,3,0,-1,-8
19165,-13,-3,7,-1,-3,-2,0,-2
19170,25,-6,-4,-2,-8,-4,-1,16
19175,-18,22,-3,1,1,-1,-1,-19
19180,7,23,-7,0,3,1,-2,4
19185,-5,-10,-16,-5,-1,1,0,4
19190,5,4,13,6,12,3,3,-6
19195,29,-12,1,5,-9,-4,-3,0
19200,1,19,-13,-6,4,3,1,-1
19205,-1,-9,-2,-5,-2,-1,1,6
19210,-19,-2,-10,-3,5,-2,-3,1
19215,24,-2,9,3,8,-1,-2,11
19220,-19,-21,-2,9,2,1,0,-20
19225,9,5,-22,-6,-1,-4,-1,6
19230,-17,-59,1,-7,-19,-4,-6,-8
19235,-20,-17,17,6,6,-4,-1,6
19240,24,6,-3,-17,-22,-1,-5,-14
19245,-5,-9,6,5,8,1,0,1
19250,-1,19,-5,-6,-5,-1,-3,-10
19255,8,-29,-17,6,4,-4,0,13
19260,-15,-9,2,-1,0,1,-2,1
19265,8,-9,1,3,-1,3,3,-2
19270,1,25,-13,6,0,0,1,3
19275,-22,-37,-4,-9,12,10,2,2
19280,-7,10,-12,1,3,-5,-3,-4
19285,18,23,2,-1,9,4,0,-8
19290,-2,-11,9,4,-8,-5,-2,3
19295,14,26,7,-4,-13,-3,2,7
19300,-16,-8,5,6,3,-6,-1,-13
19305,-15,10,9,-9,-5,3,-1,-1
19310,10,0,-1,4,7,-4,-3,-2
19315,-6,6,-1,-4,-14,-2,0,-9
19320,18,-7,7,2,12,1,0,6
19325,2,16,26,5,5,-2,1,8
19330,-3,4,-19,-5,-14,-4,-5,-5
19335,-7,-59,-9,-7,4,6,2,3
19340,-12,13,5,16,1,-5,-3,0
19345,0,-3,-10,-15,-13,9,2,-1
19350,6,9,-1,-6,19,4,0,-3
19355,-2,24,-1,-1,2,-5,-1,-2
19360,3,10,-4,-8,-20,-1,2,12
19365,-3,-42,15,2,10,-7,-7,-8
19370,-12,0,4,-5,6,1,1,1
19375,-11,0,-8,-5,-16,-3,-2,-6
19380,11,-12,0,-2,1,-3,-4,-12
19385,0,25,-12,2,-2,-5,-4,2
19390,9,-7,10,2,2,0,1,11
19395,1,41,7,-5,-2,1,-3,-14
19400,-7,-25,-15,-6,2,4,2,6
19405,-3,14,3,1,-4,-4,-3,-12
19410,-4,-2,-25,-2,0,0,1,4
19415,-7,-15,9,6,-1,-2,-3,-5
19420,3,31,0,2,10,0,-1,2
19425,-5,-22,-19,-6,-15,1,2,4
19430,13,-29,0,-2,-13,-3,0,-3
19435,4,-2,-2,0,24,3,-4,-5
19440,-12,28,-2,-4,-4,1,0,5
19445,4,1,-2,9,10,-1,-4,1
19450,0,21,12,1,-9,-2,-2,-9
19455,-7,-33,-13,0,3,-3,-1,0
19460,11,-7,3,-5,-8,0,2,18
19465,-3,-8,-10,1,-1,0,0,-13
19470,0,-11,8,1,3,-2,-3,-2
19475,-2,49,7,3,-4,-1,-3,-4
19480,-1,-17,1,1,1,0,-2,-2
19485,-9,-2,4,-3,11,0,0,6
19490,0,-5,4,-5,-11,1,2,2
19495,11,9,8,2,0,-4,1,0
19500,-18,-38,-12,-1,-2,3,-1,-10
19505,20,2,5,2,-14,-6,-3,4
19510,-8,-1,5,4,19,3,0,-8
19515,-16,28,-13,2,-19,-6,-1,7
19520,9,8,7,-11,24,8,-1,0
19525,-3,-12,-22,11,5,5,1,-8
19530,7,-9,-7,-3,-8,-3,-1,3
19535,-6,-4,-5,-4,-12,-3,1,-4
19540,0,-1,5,1,-6,-6,-2,-1
19545,4,9,1,-4,-5,-4,-1,7
19550,-24,8,12,-1,0,-2,-3,-4
19555,15,-76,-4,1,-2,1,1,-8
19560,-3,36,-14,-5,-13,-8,-8,-12
19565,-3,-21,3,0,15,6,-1,2
19570,5,9,-6,-7,-14,-3,-1,5
19575,-4,-3,16,-2,4,1,0,1
19580,4,5,4,11,3,1,4,6
19585,-17,-8,2,-4,-3,-5,-2,-1
19590,20,-43,3,-2,0,4,0,-6
19595,16,55,-2,-1,-6,0,-6,-4
19600,7,-9,-13,-8,6,3,0,2
19605,-3,18,0,2,-3,-7,-2,4
19610,-17,-30,0,2,8,-2,-2,-2
19615,1,3,0,-3,-8,-2,2,7
19620,-8,9,4,10,-4,-4,-4,2
19625,1,-56,-3,-9,-22,2,2,3
19630,-1,62,20,-8,8,0,-5,-21
19635,-2,-4,-13,0,-2,-4,-5,-3
19640,-7,0,-3,1,-7,-3,2,6
19645,13,15,2,1,7,-3,-4,-1
19650,-1,3,0,1,-4,0,1,5
19655,-7,-6,-1,2,-12,-4,-2,1
19660,0,-16,11,4,26,7,3,3
19665,-26,-48,5,-20,-18,4,0,1
19670,2,8,-3,9,9,-2,-3,-16
19675,14,27,-2,2,-2,-2,-3,-1
19680,-2,-8,-1,-4,1,2,1,-4
19685,7,25,1,4,3,-3,0,-1
19690,-11,-6,-9,0,1,-1,0,18
19695,-15,-19,-3,1,1,-1,2,-5
19700,1,4,9,-4,-4,0,-1,-1
19705,11,28,8,5,7,-3,-2,4
19710,-10,-19,-18,-4,-2,-3,1,-8
19715,3,15,6,-2,13,5,1,3
19720,6,-13,-6,-2,-9,-6,-3,-1
19725,1,23,14,0,4,0,0,-1
19730,3,-9,-8,13,-9,-6,-3,1
19735,-10,-12,-6,-9,11,5,1,-4
19740,-4,14,-12,-4,-5,-3,-3,-3
19745,-6,7,1,1,3,-1,0,2
19750,11,24,5,-5,-4,-2,-4,-5
19755,2,-12,-1,2,-3,1,2,7
19760,13,2,1,3,-9,-5,-1,3
19765,-1,0,-7,-5,15,4,2,0
19770,-2,-6,-12,4,-17,1,2,10
19775,-27,-12,-1,2,19,0,-3,-19
19780,4,11,-1,-18,-15,-5,-5,-9
19785,8,-14,-7,8,-9,3,4,0
19790,-5,17,8,-1,8,2,0,5
19795,9,-5,2,-9,-2,3,1,11
19800,-5,-10,-2,5,-1,-3,1,-1
19805,-3,-22,-2,-1,-1,-3,-4,-12
19810,-10,-15,3,1,3,1,-1,-3
19815,0,-4,0,0,-4,-4,4,9
19820,3,-10,2,-5,3,-3,-6,-3
19825,-22,45,-4,0,-2,3,-1,-11
19830,12,9,7,2,-1,-3,0,6
19835,27,-6,-11,-3,-8,-5,-3,-1
19840,-11,-3,5,-4,-4,2,2,-5
19845,1,-3,-3,2,0,-6,-2,0
19850,-8,1,-7,1,4,3,0,1
19855,-7,8,-3,-4,-8,-4,-4,0
19860,6,-19,-5,10,-13,-3,0,4
19865,-3,0,-9,-11,15,6,-1,-7
19870,-1,-13,3,2,-10,-4,-1,0
19875,5,15,15,2,5,1,0,4
19880,-5,-37,-13,0,3,-1,-1,-3
19885,-5,-7,1,-6,-20,-2,-1,-8
19890,-4,-23,-18,-2,3,-3,-3,-5
19895,-8,11,15,-1,-14,-1,-1,4
19900,4,16,7,8,20,1,1,-3
19905,13,10,-1,3,8,5,-1,-2
19910,14,3,0,-6,-7,-1,-4,-3
19915,-13,-29,-21,-1,1,-1,-3,3
19920,-15,-4,8,1,3,3,1,-3
19925,21,15,-5,-4,-13,-7,-1,13
19930,-14,11,6,3,-2,1,-1,-10
19935,6,-19,-5,-6,4,-2,1,-1
19940,-4,4,1,-4,-3,-1,0,3
19945,-6,1,-3,0,-5,1,0,1
19950,6,9,-1,-5,-4,-4,0,3
19955,-7,20,1,4,-1,1,-1,-9
19960,1,-4,-3,1,7,2,1,-1
19965,5,15,2,2,4,-2,0,6
19970,-1,5,-2,-8,2,-1,-1,3
19975,-15,-14,-5,2,1,-2,-2,-16
19980,12,14,0,-7,-13,-2,-2,-4
19985,3,4,9,1,4,3,-4,-10
19990,5,8,7,-2,4,2,2,12
19995,-7,14,17,0,4,-3,-1,2
20000,-3,-45,-4,2,2,0,-1,5
20005,-20,-10,-39,-7,-2,-2,0,-2
20010,27,5,12,4,10,0,1,0
20015,-2,-3,-8,-7,-10,0,-2,-6
20020,-3,10,16,5,8,0,1,-2
20025,-7,-12,3,5,1,-2,-2,3
20030,-9,-2,-13,-14,-12,2,1,-2
20035,25,16,-2,12,4,0,2,20
20040,-26,-17,-1,-10,-3,4,0,-26
20045,-2,-31,4,5,3,-7,-7,-12
20050,5,4,-10,1,5,1,0,2
20055,-1,-6,3,0,-3,-2,-1,-3
20060,6,20,-10,3,-5,-5,0,12
20065,0,12,10,0,-4,-1,0,5
20070,-12,-22,15,1,-8,1,0,4
20075,-14,21,-27,-7,-4,-1,-6,-4
20080,33,-22,-23,2,-4,-1,-1,-5
20085,-3,58,1,-5,1,-5,-5,-8
20090,2,18,3,1,1,-4,1,5
20095,-16,-52,4,12,17,4,2,4
20100,-8,11,7,-18,-20,3,1,4
20105,2,-8,-3,2,-8,-6,-5,-6
20110,-8,-2,-4,-4,6,3,0,11
20115,4,24,12,12,1,-6,0,-15
20120,-9,-12,-9,-9,-2,1,-5,-17
20125,5,-20,-17,-2,22,3,1,6
20130,-2,18,1,0,-2,-4,1,5
20135,4,-5,-6,0,20,4,0,-7
20140,-6,-4,14,4,-15,-7,-3,10
20145,16,19,9,6,4,-1,-1,-7
20150,1,-7,-6,-5,-17,-1,0,-3
20155,-8,2,6,-3,6,-5,0,2
20160,15,-16,-11,0,3,4,-1,1
20165,-11,21,11,-7,-15,-2,2,4
20170,-1,-14,2,6,11,2,-3,-9
20175,-2,-12,2,-5,-10,2,0,5
20180,-6,22,9,3,4,-4,-1,1
20185,-4,18,16,5,-4,-7,1,18
20190,7,-37,-25,-7,16,6,-7,-37
20195,-7,0,9,-14,-31,-1,-3,-6
20200,-3,17,1,7,22,2,1,-1
20205,5,-7,-3,-2,-11,-3,-3,-1
20210,-11,-13,-28,-1,-2,1,3,11
20215,1,3,-3,-3,-5,-2,-1,-3
20220,7,17,2,-3,-5,-1,-2,7
20225,-6,-9,1,13,11,-2,-1,1
20230,13,0,24,-2,-17,-2,1,-7
20235,6,-1,-13,-1,13,0,0,-1
20240,-2,13,5,-6,-13,-2,0,7
20245,-7,-5,-1,2,6,3,1,-1
20250,-6,-9,1,4,-5,-1,1,3
20255,-5,0,9,-9,-13,-4,-3,4
20260,0,-1,-5,5,11,-3,1,2
20265,1,-47,-11,-8,-14,-1,-1,-18
20270,4,8,7,1,14,-1,-2,-1
20275,1,-4,-3,-1,-4,0,-1,4
20280,-12,2,10,-2,-1,-4,-5,-3
20285,4,-1,-5,-3,-7,3,-2,-3
20290,3,-18,3,3,3,-5,-1,13
20295,-12,15,3,2,2,1,1,-19
20300,-9,39,2,3,-4,-2,-4,-11
20305,13,-22,2,-11,-1,3,2,2
20310,-5,6,-7,-2,-15,-1,-2,-1
20315,5,-1,-5,4,10,2,-2,8
20320,0,0,5,2,-6,-5,-1,1
20325,-7,-10,2,-3,-1,5,1,-5
20330,-20,23,-3,0,4,-6,2,8
20335,26,-20,-5,0,-11,2,-4,-2
20340,-8,41,-1,2,15,4,0,-3
20345,-3,-8,-4,0,0,-4,-4,-4
20350,9,22,1,-6,-6,-1,-1,-4
20355,-6,-7,-2,2,-4,-3,0,2
20360,17,-6,-8,6,6,3,3,11
20365,-12,-14,4,-4,-9,2,0,-2
20370,10,0,-3,5,1,-2,-1,-1
20375,-9,-7,0,-6,-1,-3,-2,-4
20380,6,-10,-14,-6,1,2,-2,4
20385,-7,7,-1,2,11,-3,-4,1
20390,1,-5,2,2,-4,-1,-4,-1
20395,0,12,5,12,5,1,3,0
20400,-16,-22,-2,-13,-27,1,2,1
20405,10,-6,-1,4,27,2,0,5
20410,-4,18,-4,-7,-10,-3,-4,-7
20415,-7,-50,0,0,11,-3,-7,-11
20420,-3,19,4,2,-17,-2,0,-1
20425,0,-32,-5,0,-2,-6,-3,2
20430,-11,-9,-4,6,6,5,2,-2
20435,9,22,2,-20,-27,-3,2,13
20440,-7,-28,5,7,27,3,-3,-20
20445,9,17,-2,-2,-10,-3,1,1
20450,-4,-25,-10,9,9,4,2,3
20455,-7,15,-8,1,9,4,0,4
20460,6,-22,-6,-2,3,-2,-2,4
20465,3,7,9,-3,-5,-6,-2,-8
20470,-14,-11,-13,1,-8,0,-5,-14
20475,0,46,-4,3,2,0,1,10
20480,17,-31,-8,-3,0,-2,-3,-5
20485,-9,-39,-8,-1,-4,2,3,11
20490,-3,10,4,-5,-1,-5,-4,-1
20495,-27,3,4,4,2,3,-1,-11
20500,28,26,-4,0,-6,-5,-1,4
20505,1,30,6,-7,-2,2,-1,-1
20510,-6,-1,13,-4,16,0,-2,1
20515,12,-4,0,4,-14,-4,0,1
20520,-16,-38,-7,-7,8,2,0,-1
20525,1,30,-3,6,0,-4,-1,-4
20530,-8,-23,-2,-4,-2,1,-1,-5
20535,7,-9,-8,1,-19,-4,-2,3
20540,-9,3,3,-4,25,3,-1,1
20545,7,27,13,8,18,2,-1,-10
20550,-8,-53,-29,-1,-12,-3,0,-1
20555,2,10,-5,1,2,-6,-3,6
20560,-3,-23,6,2,-7,-5,1,3
20565,-3,1,-1,-5,-6,6,-3,0
20570,14,36,23,-5,0,-2,2,9
20575,-21,-19,-14,1,2,-2,-2,-18
20580,15,-11,-3,2,-1,-3,-2,3
20585,-18,33,3,3,-19,-5,-3,0
20590,20,10,6,-1,20,3,2,0
20595,9,-44,7,-9,-4,2,-3,3
20600,-15,14,-12,0,-4,-3,-2,-4
20605,-2,-20,-2,1,-7,-4,-3,1
20610,2,16,-3,-1,-22,0,0,-4
20615,-4,-6,0,1,27,0,-1,-10
20620,-12,13,14,-2,-24,4,-1,-18
20625,1,-9,-25,-1,14,-1,1,7
20630,-7,44,-3,3,-16,-7,-3,0
20635,9,-18,8,-5,40,5,-2,10
20640,10,19,-6,-5,-28,-4,-2,-7
20645,-7,12,11,-13,-9,-2,-5,-5
20650,-1,7,6,4,2,-1,-2,0
20655,-2,8,8,2,-10,-2,0,-2
20660,-7,-10,-13,0,13,-2,-2,5
20665,4,0,-1,0,-4,-3,0,4
20670,0,-1,1,-7,-10,-3,-1,1
20675,7,24,-4,-1,-8,-1,-1,0
20680,-8,-5,15,3,12,3,1,14
20685,1,-45,-5,0,-8,-3,-6,-20
20690,-1,-6,-2,-1,4,-2,0,0
20695,-4,-7,-16,-2,-1,-4,-3,-11
20700,0,20,-2,-1,-11,-2,3,4
20705,-4,-29,-8,-1,3,3,4,6
20710,-1,-3,17,7,11,-4,-1,1
20715,4,9,-5,-12,-15,-1,2,10
20720,-15,32,2,6,3,-2,-4,-15
20725,15,-33,-4,-1,0,1,-2,0
20730,-10,12,5,8,12,2,2,-3
20735,8,-22,1,-5,0,3,-1,-3
20740,-3,-2,-17,1,4,-3,-1,6
20745,-5,30,18,-16,-28,-4,-2,-7
20750,3,-18,-9,-4,-5,11,1,-1
20755,-9,10,-1,2,0,-2,-2,1
20760,7,-2,7,3,1,-2,0,6
20765,8,31,5,2,0,-3,-2,-2
20770,-2,-53,-16,-7,-4,-6,-5,1
20775,-1,-4,-2,2,6,3,2,-1
20780,4,-2,-4,-2,-7,1,-1,-3
20785,-11,5,-4,3,5,0,2,4
20790,5,11,6,-2,1,-3,-2,-1
20795,-6,28,-4,3,-4,1,0,1
20800,9,-3,4,-5,0,-2,-4,-3
20805,-13,-5,-2,2,9,2,2,1
20810,-4,-2,-4,0,0,-1,-2,-6
20815,2,-3,8,-4,-7,-5,-2,0
20820,9,15,5,2,4,1,-1,-1
20825,-3,0,-11,0,2,2,0,-1
20830,-5,3,-7,-6,-27,-5,-4,-7
20835,3,15,5,-1,14,6,4,3
20840,-8,-19,-19,7,-5,1,2,3
20845,4,-13,-3,-5,2,-2,-2,6
20850,-8,9,3,11,16,1,0,-10
20855,1,-23,-3,-9,-16,0,-2,-5
20860,-11,17,7,-4,5,0,0,0
20865,4,17,7,-1,-8,-1,0,5
20870,-2,-15,1,6,20,1,2,6
20875,6,11,-12,-6,9,3,-2,0
20880,0,-27,2,-8,-4,-6,0,3
20885,-15,-20,-5,9,3,0,-1,-5
20890,19,21,8,-8,4,0,-4,-6
20895,0,-17,2,5,-14,-5,-3,2
20900,3,-4,-5,-6,-11,-2,0,-4
20905,-3,1,4,7,4,-3,-2,3
20910,-6,1,-9,-10,20,3,2,4
20915,-2,-22,-9,0,-3,-2,-1,1
20920,-11,12,12,-10,-22,0,-2,-10
20925,6,-23,-22,6,10,-1,2,0
20930,-5,34,7,5,3,-1,-2,0
20935,11,13,-5,9,3,-5,-1,2
20940,-4,9,7,-15,-9,2,-2,1
20945,-12,-37,-27,2,3,-1,0,3
20950,9,6,7,-2,1,-1,-3,-6
20955,-6,-8,5,2,-2,1,2,2
20960,-5,29,1,8,-2,-6,-1,9
20965,5,-20,2,-2,10,6,0,-4
20970,12,0,-3,0,-3,2,2,1
20975,-4,-3,0,1,4,1,-2,-5
20980,13,-21,-6,1,10,0,-2,1
20985,-7,43,5,-9,-7,-4,3,14
20990,-22,-89,-12,1,-13,-2,-3,-19
20995,2,58,11,-10,-6,2,-3,-10
21000,-14,-19,7,12,31,-2,-6,-3
21005,6,21,2,-10,-14,3,0,0
21010,0,37,18,-8,-9,-4,-1,6
21015,1,-3,0,1,-8,-2,1,3
21020,-10,-35,-3,3,-4,-1,-1,-5
21025,-4,25,14,3,7,-3,-2,-4
21030,14,21,-2,-3,-3,0,0,2
21035,-2,-21,0,-1,-2,-1,2,6
21040,1,17,0,2,-1,-1,0,-12
21045,2,-24,-7,-10,-6,5,-2,-5
21050,-5,-2,-2,-2,6,0,0,5
21055,-2,8,-1,1,0,-4,-1,-1
21060,3,-3,-5,-4,-4,1,1,3
21065,0,-7,-17,1,-5,-2,0,-4
21070,-5,-15,-5,3,4,-4,-3,-2
21075,-1,21,-3,-2,-12,-1,0,-3
21080,4,-3,1,-4,5,5,2,4
21085,1,9,8,2,4,-2,-2,-1
21090,-13,8,-5,0,-11,-3,0,-6
21095,19,-7,-4,1,12,0,1,1
21100,-10,6,7,-9,-12,-4,-1,2
21105,-11,-20,4,-2,-14,-2,2,7
21110,24,-24,1,1,15,1,-4,-4
21115,-11,15,-6,-2,-16,-5,1,1
21120,5,9,7,8,13,-4,-4,-7
21125,-2,-11,6,-10,-19,4,0,4
21130,-2,15,-11,-1,7,-1,2,12
21135,-8,-21,6,0,-8,1,-2,-12
21140,11,34,1,-2,1,0,0,5
21145,-7,1,-5,11,17,-3,-1,-16
21150,0,11,0,-9,-16,0,-1,-4
21155,-6,-5,9,-2,10,-1,-3,4
21160,14,4,-10,4,4,1,0,14
21165,-8,-10,2,-4,1,-4,-6,-32
21170,-4,24,1,3,-10,-2,-1,0
21175,-10,-17,0,1,-7,0,1,1
21180,-1,-26,1,3,-3,-3,-2,4
21185,10,1,-11,1,-8,-5,-4,-1
21190,-4,1,1,3,8,1,2,3
21195,9,-7,-1,-6,-7,-1,0,3
21200,0,-13,-16,1,0,4,0,-8
21205,2,14,22,-4,3,-4,-2,9
21210,-16,19,13,-2,-8,-2,-3,-8
21215,-12,-33,-4,-1,11,-4,-2,3
21220,11,4,-4,-3,-13,1,1,-5
21225,3,35,8,2,-2,-3,-1,6
21230,-13,-18,-2,1,4,1,-4,-2
21235,10,-4,-12,-7,2,-1,1,-1
21240,-2,23,4,13,11,3,1,3
21245,-8,-18,-21,-8,-12,-1,0,-7
21250,16,3,1,1,-3,-3,2,11
21255,-9,-12,-5,-2,-10,0,-2,2
21260,-10,10,3,-3,15,1,-3,-15
21265,10,-6,-11,6,-8,3,0,2
21270,-7,-19,5,0,-8,1,2,1
21275,2,25,14,-3,26,6,-3,-12
21280,-22,-62,-10,1,-4,-2,-1,-1
21285,15,-15,9,1,4,-1,-1,2
21290,-4,3,-30,-3,-19,-4,-2,-7
21295,3,-19,2,2,-9,-3,0,7
21300,-4,7,2,-5,-5,-2,0,0
21305,8,8,-2,0,4,-1,-4,-12
21310,-1,9,13,1,2,0,3,6
21315,0,-10,-4,0,3,-2,-1,0
21320,-10,3,-26,-4,-2,-2,-3,-3
21325,2,14,7,4,13,0,2,2
21330,0,-11,-9,-15,-25,-2,-6,-9
21335,5,5,-2,1,1,0,-1,3
21340,-8,-13,16,-1,-7,-5,-2,-1
21345,-1,5,-8,-2,-5,-3,0,0
21350,0,16,-7,6,22,6,3,3
21355,-2,-27,1,-1,8,-3,-3,-10
21360,-2,-16,-4,-4,-20,-4,0,4
21365,-1,9,-3,2,8,0,-1,6
21370,-15,-9,6,4,6,-4,0,0
21375,7,-4,-10,4,3,3,-3,1
21380,7,6,-4,-18,-11,0,3,0
21385,-1,10,5,-7,-13,-2,-1,1
21390,1,-2,0,3,14,3,2,5
21395,-6,21,8,7,-7,-5,0,-3
21400,9,-3,6,-5,19,9,2,2
21405,-2,81,10,1,-3,0,-1,0
21410,-1,-57,-20,5,-5,-1,-2,-7
21415,3,46,1,4,-1,-7,-1,-1
21420,-9,-23,-8,-4,-2,1,-2,-2
21425,-8,-12,2,2,7,-1,3,16
21430,13,21,10,-3,10,-3,-5,-17
21435,-2,-4,10,0,-8,2,-3,-7
21440,-3,-1,-12,1,-4,-3,1,4
21445,4,-22,2,-3,2,0,1,5
21450,-12,-12,-21,-2,-20,-4,-4,-3
21455,5,8,-4,-3,2,-2,-1,-3
21460,3,-4,5,-3,-1,-1,-2,0
21465,-2,-19,-7,6,15,-1,-1,2
21470,-16,16,17,-8,-12,1,1,-2
21475,-4,-24,-7,2,-2,-2,0,-2
21480,-1,3,3,-2,-2,1,-4,-10
21485,4,15,0,3,-2,-4,-2,-4
21490,11,-35,-15,-8,5,-1,-1,11
21495,-7,-10,1,-6,-7,0,-4,2
21500,-1,11,8,5,-3,-4,-4,-10
21505,0,-29,-12,3,6,2,0,-5
21510,5,28,14,0,1,0,-1,1
21515,0,14,-8,-1,-9,-4,-2,0
21520,-2,-13,10,1,2,-4,-1,4
21525,-5,-33,4,1,-26,-1,-1,1
21530,0,20,-17,2,15,-4,-1,1
21535,2,7,-1,-12,3,15,3,-3
21540,-3,11,-2,2,-2,-3,-1,-1
21545,9,13,7,1,1,-4,-2,-12
21550,-1,-15,-3,5,-8,-2,-1,3
21555,-5,-4,-9,-6,0,1,2,2
21560,3,15,1,1,3,-5,-1,6
21565,-8,-26,-5,-9,1,5,0,11
21570,10,6,14,-6,-5,1,1,-8
21575,-10,-2,1,-3,12,4,-3,-19
21580,0,-18,-10,-2,-8,-2,-1,-2
21585,-3,-4,-7,1,-3,-4,-2,4
21590,-16,-13,8,2,6,-1,1,2
21595,12,35,3,5,-10,2,7,11
21600,7,8,-3,-5,-2,-2,-3,-11
21605,5,-1,3,-1,-3,3,1,-4
21610,-19,-7,-6,-7,0,1,-3,-4
21615,13,0,-4,4,-7,-9,0,4
21620,-8,4,3,-1,2,-3,-1,-2
21625,4,19,-4,2,11,3,0,1
21630,2,13,-1,-3,11,1,-1,-1
21635,-10,-64,2,4,-5,1,0,-6
21640,-7,28,3,-5,2,0,-1,0
21645,10,-23,8,-3,2,0,0,3
21650,-5,15,-11,10,0,-12,-5,-5
21655,17,16,-6,-2,7,4,1,12
21660,-2,-9,8,-3,2,3,2,1
21665,-17,9,-27,-6,-3,-3,-2,-14
21670,6,-40,-1,2,-19,-5,-1,5
21675,3,26,5,1,0,-9,-5,-4
21680,-5,-11,-8,8,-2,0,0,-4
21685,1,17,10,-7,-10,-3,-3,1
21690,13,39,6,-2,17,9,3,-1
21695,-21,-31,-7,-10,-9,-7,-3,-5
21700,13,7,2,7,8,-1,1,4
21705,-10,-1,-7,-7,-9,-5,-3,5
21710,-9,-9,8,6,10,2,-4,-22
21715,-2,26,11,-5,-19,-3,-3,-2
21720,2,7,-4,-1,-3,-1,2,5
21725,6,24,4,7,7,-4,-4,-5
21730,3,-4,4,-5,4,5,3,5
21735,-4,-26,-13,-5,5,0,0,0
21740,-10,11,0,2,1,0,2,5
21745,11,20,5,2,0,1,1,2
21750,-11,2,-5,-9,-14,-4,-1,2
21755,15,14,1,7,6,-2,-2,-2
21760,3,-24,-19,-3,-5,-3,-3,5
21765,0,-16,3,-6,-7,1,-1,-3
21770,-5,-6,16,7,2,1,-1,-11
