time,emg1,emg2,emg3,emg4,emg5,emg6,emg7,emg8,hand,pose,orientation,testPerson
0,-12,16,-5,-44,-34,-4,-1,-1,1,0,100,BueBaby!
5,24,3,-6,-10,5,4,1,-23
10,-23,-3,14,1,-12,-3,-7,47
15,-11,-5,-7,-38,-20,-3,4,9
20,-31,44,7,31,21,5,3,-2
25,-19,-3,-1,39,8,-3,-3,-23
30,45,24,-21,-18,-4,2,9,25
35,1,-10,2,82,44,-4,-10,-20
40,24,-9,7,-57,-86,-4,0,18
45,15,-4,-6,15,-11,-3,-8,1
50,-14,37,18,78,39,0,-1,-20
55,-12,-16,-9,-70,-22,1,0,-3
60,25,-18,5,68,34,3,-1,-6
65,25,-22,-20,-63,-4,-1,-1,-4
70,-22,-8,-6,-34,-57,-15,-7,-20
75,20,4,-3,15,24,3,5,10
80,-4,21,5,0,3,1,-1,-17
85,-23,-4,-1,-89,8,3,-3,9
90,-55,-16,-3,93,2,-2,-2,-11
95,43,14,1,-67,-11,1,9,33
100,-32,-4,9,61,19,2,-5,-10
105,-14,0,-11,33,-15,-8,2,21
110,13,5,14,58,2,1,-3,16
115,39,35,-11,-76,-25,-2,-1,-27
120,59,-52,9,71,6,-1,-1,32
125,5,4,-4,15,12,-1,-4,-10
130,-9,-32,-17,-80,-14,-5,2,19
135,14,71,6,-23,22,3,-2,2
140,0,-16,4,47,21,5,2,3
145,-43,-12,-7,-76,-21,-1,7,0
150,10,12,17,22,-11,5,-3,-13
155,41,-34,-7,12,-7,-8,-2,-18
160,-26,20,-13,72,47,0,-5,22
165,2,2,5,-49,-21,-2,-3,2
170,35,-7,-16,-21,-43,0,5,14
175,5,-16,14,74,7,-4,-5,7
180,-16,8,13,10,-19,-2,1,-23
185,11,-22,4,93,56,-3,-8,-9
190,40,33,18,-40,-6,9,5,3
195,-46,-41,-28,-32,27,-6,-5,-14
200,25,17,1,-56,-12,2,9,40
205,29,10,-7,40,-25,-4,-4,-12
210,-3,-49,-3,-42,20,-5,-7,-26
215,-16,-11,3,127,48,7,6,37
220,-16,-28,-8,-105,-22,-9,-12,-30
225,-12,9,8,-28,-13,0,2,13
230,-20,8,2,72,24,2,-4,-20
235,-9,-10,12,42,-10,1,-2,8
240,-11,6,-21,-100,-12,-2,3,-11
245,32,-20,2,-24,-7,-1,-1,9
250,-53,13,-4,27,1,0,0,-8
255,-45,-6,11,67,16,-6,-6,-16
260,36,13,9,-9,-13,5,4,-3
265,-15,5,-4,3,72,4,-5,-8
270,0,1,-22,-85,-62,-6,5,3
275,-17,-1,9,-4,-11,2,-2,-2
280,-15,26,0,-4,8,-1,-4,4
285,8,5,-3,61,15,9,15,10
290,-12,-5,-4,-80,0,-3,-3,-32
295,25,-11,-22,-74,-40,-4,1,43
300,-14,-3,-2,10,-14,-6,-10,-12
305,-39,-9,26,107,36,3,-2,-15
310,85,9,9,14,7,-2,-1,-25
315,-24,19,4,-34,-37,4,12,61
320,17,14,-13,-27,11,1,7,-2
325,4,2,-16,18,-39,-7,-7,-11
330,3,-13,-7,-16,25,-3,-7,17
335,20,14,12,-45,-14,-5,-8,-13
340,-2,26,-1,14,-12,4,4,-11
345,19,11,2,-56,-42,-2,3,27
350,-34,-8,2,87,43,1,-1,0
355,-8,-2,-2,-22,-34,-6,-4,-29
360,8,-16,4,63,29,8,4,11
365,18,21,-15,-73,-33,-2,-2,-7
370,-40,36,-8,48,-6,-4,-3,8
375,4,-1,11,44,25,-2,-3,-10
380,-2,-31,-2,4,12,-4,-6,-23
385,-47,34,11,66,17,5,-1,-14
390,16,-6,-7,-63,-29,-6,7,50
395,-48,-1,3,67,38,6,-4,-10
400,9,6,-24,-66,-90,-13,1,-3
405,-32,-24,8,34,18,-1,-4,-1
410,-5,-27,-9,-58,10,8,8,-1
415,7,-21,3,45,-6,-6,-5,-48
420,-37,-7,18,2,51,1,-4,38
425,-1,-15,-23,-115,-45,-7,-2,1
430,-4,-4,13,73,32,3,-4,-19
435,-5,-46,-11,-63,-29,3,5,-3
440,-1,18,11,34,5,2,2,-6
445,19,-16,-4,-1,-14,-4,3,32
450,-15,14,-15,-6,-13,-2,-4,-1
455,19,-16,25,55,36,5,-3,-16
460,-35,15,-3,-8,16,-1,-2,1
465,20,-7,1,-59,-23,2,2,0
470,-8,0,-4,24,22,2,0,2
475,-13,11,-1,-20,-34,-5,-7,0
480,26,6,-16,-58,-20,-1,5,-20
485,0,-34,4,72,-2,-8,-9,-12
490,-8,0,23,94,50,1,-5,-15
495,-4,-6,-27,-63,-27,0,11,16
500,3,43,13,10,15,5,-5,13
505,29,24,-3,5,5,-2,2,-12
510,-25,6,-7,7,7,4,-1,19
515,-37,-11,-10,-43,-15,-5,1,8
520,-15,-12,13,73,6,-1,-3,-20
525,12,71,4,41,29,4,-3,-6
530,-7,-76,-7,31,-29,-15,-7,-10
535,51,36,-5,-34,38,7,1,-5
540,-2,-27,-12,-3,-38,-7,-3,12
545,-17,4,3,-7,17,2,1,-2
550,59,18,-3,-63,-6,-1,1,-11
555,-40,2,-21,-15,5,1,-2,4
560,14,-1,10,-4,-7,-10,-4,15
565,-40,-27,-15,-9,7,2,0,-4
570,-6,14,10,46,-14,-4,-5,3
575,22,9,16,37,6,8,11,-6
580,-8,-8,-13,-18,-10,-2,-2,6
585,10,29,-7,-8,17,1,1,10
590,42,4,-3,-45,-32,-1,1,3
595,-24,18,5,25,38,-3,-7,-2
600,5,2,-12,-17,-25,-12,-8,-22
605,24,17,20,-4,4,8,2,3
610,41,-27,-2,-7,-20,1,4,12
615,-61,32,-4,22,9,-1,-13,-19
620,39,-16,3,58,13,4,14,21
625,-3,-2,-10,-31,-23,-5,-7,-9
630,-26,9,17,26,2,7,2,-13
635,-7,-32,-26,-5,-2,-8,-5,-14
640,-2,6,1,34,26,-2,-4,-13
645,-24,-13,7,14,-40,-6,1,-4
650,0,14,9,-32,23,4,1,1
655,35,-7,14,67,4,1,3,20
660,-23,-23,-58,-106,-29,0,-5,-20
665,35,11,22,105,12,-5,3,24
670,-12,7,7,4,5,0,-5,-31
675,33,0,10,25,11,1,-1,14
680,-59,-16,-12,-1,5,4,4,-10
685,24,5,3,-40,-1,4,3,12
690,-31,6,-15,0,-6,-4,-3,2
695,16,4,2,12,-2,-3,-1,0
700,6,0,19,49,5,1,-1,-6
705,-9,-26,-7,2,28,-4,-6,-21
710,5,44,-22,6,-42,-10,-6,16
715,15,0,4,-84,1,6,7,7
720,14,5,17,32,2,1,-4,-8
725,-12,-17,0,10,5,1,-1,-7
730,-59,-3,-6,-38,8,-2,-6,-29
735,28,-6,-8,-76,-45,-1,2,41
740,-19,11,11,79,18,-7,-6,1
745,35,-26,-6,-71,-7,2,3,-5
750,-7,10,13,43,24,5,3,8
755,11,8,-15,-86,-50,-6,-1,-20
760,13,-40,22,52,8,2,-2,-6
765,-44,9,-10,58,22,1,0,-12
770,57,5,22,4,-8,-1,0,18
775,-6,6,11,58,12,-3,-3,15
780,25,3,-12,4,6,4,3,1
785,-25,-2,-2,-24,-21,-4,-5,-8
790,-20,-22,0,-26,-3,2,3,8
795,35,15,-10,36,23,2,4,-22
800,-19,-2,16,7,-13,-4,-4,31
805,-33,4,-2,4,-11,-6,-3,4
810,-16,-14,-16,5,-10,-1,3,-12
815,3,-7,11,5,11,1,-1,1
820,5,-3,-14,53,35,-2,-5,-12
825,14,-12,-10,-54,-12,0,0,-8
830,-6,5,23,38,16,6,5,7
835,-10,11,-34,-65,-36,-12,-6,-7
840,-1,19,18,8,3,0,-2,-21
845,19,-17,0,-4,7,3,6,24
850,12,-20,-6,-5,14,-10,-9,27
855,-20,4,-8,5,0,4,1,-13
860,10,1,14,-54,-10,5,2,-22
865,-1,-14,-12,23,4,-5,-7,-19
870,-3,-8,4,12,24,8,-1,-25
875,9,-9,10,40,11,3,5,38
880,-24,-15,-24,-45,-43,-7,-2,0
885,2,-10,25,-64,23,4,-2,-8
890,-15,-37,-43,-77,-47,-22,-8,-9
895,-4,39,28,86,39,9,2,-11
900,28,-46,-21,-79,-7,6,6,-6
905,2,33,-6,40,-52,-11,-3,-21
910,-13,19,22,49,29,1,0,35
915,1,-17,-24,-100,-34,-2,-1,-12
920,-10,8,17,12,24,2,-2,12
925,7,17,-11,-65,-2,1,2,-7
930,-15,-13,-2,120,11,-1,-3,-19
935,21,-2,-2,0,-41,-6,-5,16
940,4,21,-1,-21,7,2,0,-3
945,-1,-12,13,69,14,-3,-4,7
950,-13,-4,-13,-85,-12,2,2,-13
955,32,28,13,56,27,5,6,-13
960,-3,-7,10,-52,-32,-5,0,21
965,-5,-6,1,9,20,-1,-3,18
970,-13,35,-3,13,8,2,2,-5
975,-4,-57,1,11,1,-5,-7,-32
980,24,20,-9,-59,-19,-3,4,30
985,26,-1,1,52,7,3,4,-6
990,5,11,-17,11,17,2,0,11
995,-33,-10,13,-64,-43,-8,-5,-18
1000,-26,8,-1,90,3,1,-5,-49
1005,13,-1,-4,-29,30,2,4,32
1010,27,1,12,-17,-21,-6,-4,-15
1015,-11,3,0,9,30,5,2,7
1020,-24,-11,-9,3,-12,-4,-2,-14
1025,23,8,-12,7,-28,-1,1,-1
1030,-13,-19,3,-39,-3,-7,-5,17
1035,-27,-38,8,24,24,6,3,2
1040,36,39,26,10,9,1,0,-15
1045,-24,10,-36,-37,-10,-6,-3,28
1050,29,25,14,-64,-11,0,0,-11
1055,12,-13,-20,-7,-17,-5,0,32
1060,-7,13,-6,7,-6,-3,-1,17
1065,-14,-16,5,56,17,2,0,-15
1070,14,-5,-1,5,-11,-1,-1,-6
1075,-31,-17,10,5,6,-2,-4,6
1080,-10,7,-12,-1,0,-2,-2,9
1085,16,3,0,-62,-38,-3,0,-25
1090,-8,-8,-4,39,24,1,1,26
1095,15,10,2,24,-15,-8,-7,-31
1100,3,-6,-15,-72,1,-2,-2,6
1105,-14,-28,14,4,-11,3,1,-11
1110,0,11,5,18,3,8,4,15
1115,5,-8,-24,-63,-11,-7,2,3
1120,-8,-30,11,35,5,5,-2,-9
1125,4,-4,3,-13,-4,-9,0,17
1130,-8,4,-6,-31,-3,-1,-1,-32
1135,-3,-3,-3,18,23,4,1,10
1140,24,-3,-2,-11,-31,-4,0,7
1145,-53,-1,0,32,31,5,1,9
1150,19,19,14,31,-13,4,3,-11
1155,-21,3,-3,19,0,-12,-8,-15
1160,43,6,7,-8,12,3,6,12
1165,-24,3,4,-10,-10,1,-4,-18
1170,7,-5,-12,-12,-9,-2,3,-1
1175,2,3,-1,38,19,3,0,10
1180,-27,-8,-9,31,-7,-6,-5,-26
1185,31,-13,-5,-21,6,0,0,22
1190,-12,-6,-13,-68,-29,-4,0,-15
1195,14,2,6,22,7,2,0,0
1200,-20,15,1,15,6,1,1,-2
1205,-9,1,3,2,26,9,1,-7
1210,-26,-19,-5,27,-24,-8,-6,0
1215,14,15,4,-5,14,-1,0,7
1220,-8,7,-1,-23,-6,-1,2,18
1225,0,2,7,1,0,-6,-6,-11
1230,11,7,-7,-31,6,4,2,13
1235,-8,3,3,-14,-4,0,2,-10
1240,-13,-6,-3,-4,-1,-3,-3,-14
1245,42,-10,-3,-12,8,7,4,16
1250,-6,0,6,8,-21,-2,0,-8
1255,-11,6,-9,79,28,-8,-9,-22
1260,2,-38,7,-3,15,0,-2,6
1265,-16,9,-14,-69,-58,-7,-2,-6
1270,-1,-5,10,45,47,3,-1,-2
1275,14,2,2,-23,-21,7,3,11
1280,-6,5,-1,20,12,-1,-1,-11
1285,-17,0,8,39,17,1,-4,-40
1290,4,-28,-5,-32,-13,3,4,37
1295,23,-7,-12,20,-19,2,7,24
1300,-28,7,0,-4,20,-19,-16,-23
1305,-6,-11,-11,-61,-26,-6,-1,3
1310,30,7,-1,27,21,0,-1,-8
1315,-23,-5,6,-39,3,8,2,-35
1320,2,3,-3,7,20,11,8,21
1325,15,-5,-1,11,-72,-8,1,21
1330,-16,-1,13,1,20,-1,-5,-15
1335,-10,-14,-20,-21,-28,-5,2,-7
1340,-2,1,-3,24,17,-3,-7,-2
1345,1,2,-13,-40,0,-3,-4,12
1350,5,-6,5,30,9,5,4,1
1355,-7,16,6,-22,-11,0,-2,-8
1360,18,1,18,11,-10,6,7,-2
1365,-2,11,6,76,24,-1,-1,-4
1370,-11,0,-4,15,28,-2,-8,5
1375,4,0,-15,-59,-12,-4,0,-9
1380,2,21,-2,-45,-6,4,5,16
1385,14,-20,-7,-2,19,-1,-3,-2
1390,-11,13,2,29,6,-2,-2,-11
1395,-27,7,14,29,10,3,-3,-16
1400,35,-21,-2,-14,-13,2,1,14
1405,-20,17,3,-22,15,2,-3,-49
1410,17,8,-6,30,-32,-11,2,44
1415,-4,-10,-1,34,31,-3,0,33
1420,19,-11,-7,29,6,-1,-3,6
1425,-5,15,7,6,8,7,3,-1
1430,-1,-15,-15,-66,-44,-6,-5,-19
1435,19,4,7,12,8,4,2,7
1440,-32,24,0,-33,-25,-5,0,-5
1445,21,-17,5,23,20,-3,-3,16
1450,-1,-22,-12,-16,-24,-4,-1,-7
1455,6,24,11,31,23,0,3,16
1460,-26,-37,-11,-12,6,4,-2,-27
1465,-15,-3,-9,-11,-18,-9,-2,18
1470,25,-23,1,-20,10,1,-1,-3
1475,-14,14,5,8,-6,3,-2,-38
1480,45,24,6,50,0,0,3,59
1485,-8,-10,-6,18,20,-5,-4,-10
1490,-7,-6,-5,3,-2,5,2,3
1495,-9,-2,12,-13,24,2,-3,-4
1500,-50,-1,1,20,-9,1,-1,-26
1505,29,-2,3,-34,-14,4,6,22
1510,5,61,3,66,14,-2,0,13
1515,-20,-9,-14,-3,-27,-3,-4,6
1520,41,-15,-9,-85,-38,-5,1,21
1525,5,-3,-2,74,15,-1,-3,-14
1530,-17,19,17,29,32,9,2,-11
1535,-24,-12,-11,-103,-48,-7,-5,2
1540,28,-23,-2,96,44,-2,-1,1
1545,-29,25,7,-10,-39,5,3,-4
1550,-7,5,2,-23,-21,-4,0,1
1555,8,-4,-9,-63,-26,-3,-1,-3
1560,-24,4,10,63,15,2,-2,-32
1565,15,-16,5,21,18,4,1,28
1570,-7,33,-17,-73,-2,3,1,-13
1575,7,-51,10,33,-33,-8,-4,15
1580,9,30,-10,-49,-12,1,6,-3
1585,1,-30,-3,83,4,-13,-6,5
1590,-36,45,12,4,5,4,-2,-23
1595,30,5,-2,-29,12,0,0,11
1600,-17,8,7,32,4,-1,-3,19
1605,43,20,-5,-81,-13,0,-1,-10
1610,-3,-31,-11,-34,-7,-3,0,1
1615,20,7,0,8,10,0,0,5
1620,0,-1,-2,-12,-32,-9,-6,-5
1625,-66,-20,4,-2,32,9,2,-26
1630,-12,0,4,33,-38,-9,-6,-18
1635,53,1,-8,-6,-21,-1,2,41
1640,-9,-5,3,44,13,2,0,-20
1645,-40,43,-12,-87,-27,-5,-3,-7
1650,22,-40,3,60,19,-2,0,0
1655,-32,-25,9,60,10,2,-3,-14
1660,-5,13,-28,-14,-13,-3,-4,1
1665,15,3,0,-1,10,0,0,2
1670,-9,-10,-1,-15,-1,-1,0,3
1675,17,28,12,19,11,2,3,-3
1680,-51,-43,-5,-29,-6,0,-5,-38
1685,9,8,6,48,-1,-4,-3,34
1690,13,-18,-4,11,23,4,2,6
1695,-7,3,5,-8,-19,-4,0,-8
1700,5,-10,-7,-3,-10,5,1,-4
1705,-5,-1,8,45,40,1,1,-8
1710,-11,-26,-13,-15,-37,-11,-3,13
1715,15,-5,6,31,32,7,2,-1
1720,-13,-7,4,-6,38,0,-1,-13
1725,34,20,-5,9,-46,3,5,3
1730,-3,-29,-15,-25,14,-6,-7,-4
1735,10,-5,0,16,7,1,-3,-12
1740,-8,13,-7,-65,-26,-8,-1,3
1745,26,10,2,29,27,4,2,30
1750,19,-2,24,37,27,5,2,-10
1755,-48,5,-2,-35,-46,-2,0,4
1760,49,17,11,15,5,1,4,25
1765,-11,-17,0,27,10,-3,-4,-15
1770,-5,28,-13,-15,2,2,-3,-12
1775,-7,-12,-2,-25,2,-3,-1,5
1780,-23,4,-4,-49,-3,1,-2,1
1785,-9,-7,14,-2,-12,-1,-1,-11
1790,2,-20,-3,20,25,3,2,-3
1795,-1,15,-4,-23,-31,-5,-1,5
1800,21,3,-1,29,10,3,0,3
1805,-42,-56,-12,20,-16,-7,-6,-40
1810,-14,20,14,-22,1,4,2,16
1815,32,38,-16,-3,10,-10,-4,-5
1820,-8,16,4,-42,-25,-1,2,-2
1825,7,-1,-17,-41,-9,-4,-5,0
1830,-26,4,9,-2,1,5,4,-1
1835,-24,-41,-14,-1,-19,-6,-4,-8
1840,16,19,10,53,25,0,-3,3
1845,-3,41,-4,-40,-5,2,1,1
1850,17,-25,-19,-83,-25,-6,-6,-28
1855,-31,1,4,-9,5,2,2,24
1860,8,-4,6,60,28,-10,-4,4
1865,10,-3,7,-12,1,-1,1,11
1870,23,22,1,6,2,3,0,5
1875,-9,16,-2,0,24,2,-2,1
1880,-29,-5,2,-7,2,1,-3,-7
1885,18,-2,6,35,-8,-1,2,7
1890,3,-31,-6,-13,-55,-10,-4,7
1895,-17,23,-3,36,45,-1,-3,-13
1900,-8,-17,-1,6,-2,0,-3,-2
1905,5,7,-3,13,9,1,1,2
1910,-6,-14,1,-10,5,-3,-5,-11
1915,-4,2,-16,-43,-29,-2,1,-4
1920,5,-9,11,21,0,0,1,-6
1925,-7,-1,-15,-2,22,-1,-5,-5
1930,1,49,10,1,-18,4,1,-10
1935,8,-65,6,103,33,1,10,24
1940,-7,32,-20,-108,-40,-13,-14,-35
1945,1,20,18,15,-4,6,4,15
1950,-7,2,-14,-48,8,-8,-6,21
1955,4,12,-2,-23,-3,6,4,-28
1960,-2,-33,-5,32,0,1,2,5
1965,22,16,4,-7,-7,-5,-3,1
1970,0,7,5,19,0,0,0,7
1975,-1,-13,0,21,25,2,-4,-19
1980,-3,-6,0,-6,-3,1,2,8
1985,-36,30,-3,-13,3,2,1,-20
1990,68,34,17,-10,-19,1,4,33
1995,-8,6,-7,14,5,-8,-6,-7
2000,6,-7,9,92,41,9,4,4
2005,-8,-10,-11,-44,-41,-5,-3,-23
2010,5,-4,-1,74,16,1,-1,2
2015,-7,-10,8,8,4,5,0,-8
2020,8,54,-15,-62,-43,-7,-5,18
2025,3,-33,-5,-7,-4,0,0,-29
2030,-24,-12,-3,67,36,1,3,33
2035,13,-5,-8,-20,-42,-5,-5,-7
2040,-32,-36,-7,1,29,4,-1,-13
2045,65,2,14,-6,1,-2,0,23
2050,-46,66,-5,1,-2,-4,-2,-18
2055,15,-4,11,-9,9,-2,0,0
2060,19,-5,-4,-63,-12,1,2,-4
2065,-27,-22,4,48,0,-6,-6,12
2070,-14,-6,-1,26,26,3,0,-9
2075,2,9,10,20,12,5,3,0
2080,-10,2,-4,-19,-7,1,4,4
2085,-1,6,-6,-1,-4,0,-3,-8
2090,9,-39,9,41,20,3,3,-3
2095,-30,13,-10,-29,5,3,0,6
2100,-3,-8,6,26,-5,-11,-9,-15
2105,-2,2,0,-22,7,1,5,10
2110,-2,-23,-15,22,-14,-2,-3,-13
2115,10,10,1,-44,-27,-7,-6,-11
2120,-9,-46,10,35,17,6,5,14
2125,5,-6,-14,13,-8,3,3,7
2130,-9,-11,-11,-93,2,-3,-5,-12
2135,1,3,6,63,27,1,-3,-9
2140,-7,37,-6,-46,-33,-5,-2,0
2145,12,-2,10,59,27,0,-1,6
2150,-27,-28,-5,-4,-24,1,4,0
2155,10,10,-9,34,21,-3,-3,6
2160,9,3,1,17,-3,-3,-3,-16
2165,-19,-11,-3,-16,1,2,0,-15
2170,16,44,11,23,5,4,1,19
2175,-2,-59,-14,-17,-10,-4,-2,-2
2180,-2,20,-5,-73,-19,2,9,18
2185,-52,1,-6,-35,4,-6,-6,-2
2190,-8,-2,13,34,12,-3,-2,-9
2195,-3,2,-4,-41,-30,0,0,-2
2200,24,12,-9,12,11,-3,-5,-2
2205,-7,-14,-8,-22,-19,-5,-1,5
2210,20,6,4,-8,17,9,6,4
2215,-9,25,4,53,13,0,-1,5
2220,-5,-46,-15,-77,-46,-1,2,-12
2225,2,10,9,60,23,1,-3,-4
2230,-40,-16,-13,-20,-11,-5,-6,-21
2235,41,31,10,10,2,1,6,26
2240,-19,-2,6,10,15,2,-3,-7
2245,20,-6,-1,-35,-8,-2,0,8
2250,0,-7,-14,-45,-17,-3,0,-1
2255,-15,0,8,20,5,1,-3,-41
2260,6,-2,-3,6,4,-3,-2,51
2265,-16,-29,4,22,-5,-3,-5,-32
2270,26,43,-2,-39,-6,0,4,26
2275,-21,-25,6,61,-3,-1,-2,8
2280,6,3,-11,-15,17,2,-2,-10
2285,-21,5,10,41,-29,-7,-1,-7
2290,18,-13,5,52,9,-3,-3,-3
2295,-2,6,8,-8,19,2,0,-1
2300,21,10,19,100,2,8,4,-3
2305,-33,-16,-25,-70,-10,0,1,10
2310,13,-9,-3,14,-15,-7,-4,-10
2315,-10,15,9,52,12,3,0,5
2320,-22,-13,-7,15,16,0,0,-8
2325,11,23,7,15,6,4,2,-21
2330,-3,-15,1,-38,-16,-2,-1,8
2335,5,3,-7,-36,1,-1,-1,1
2340,-11,-9,0,25,3,-5,-1,-8
2345,8,-4,2,-14,3,2,1,-1
2350,-14,0,-3,30,14,1,-2,13
2355,24,-6,2,-96,-17,-1,1,5
2360,-15,17,4,-4,-18,-3,1,3
2365,13,-2,-7,32,15,0,-4,-1
2370,-16,-19,3,-16,-12,-6,-6,-13
2375,2,5,-9,-26,-6,2,2,-1
2380,-7,12,10,49,17,0,0,-24
2385,20,13,8,-13,-3,4,5,49
2390,-7,-15,-6,-41,1,-3,-3,-15
2395,3,-5,-1,1,3,5,1,-1
2400,7,-8,-7,-64,-25,-8,-7,-36
2405,-44,17,-8,7,8,-7,2,44
2410,13,-33,-4,10,6,4,5,6
2415,-7,4,-10,50,5,-6,-5,-4
2420,22,35,7,-65,-8,2,-3,-21
2425,21,-12,-2,-6,1,3,0,8
2430,10,25,14,48,1,2,-1,-2
2435,-9,-7,-13,-51,-20,-6,-3,0
2440,-1,-5,7,73,15,3,1,12
2445,10,2,-1,-28,-1,0,-1,-9
2450,-14,-20,-13,-54,0,-1,-2,-5
2455,-1,27,5,63,-39,-9,-4,-11
2460,20,-16,-10,-22,9,-5,-3,14
2465,-22,2,5,16,2,1,-2,-19
2470,0,-5,3,36,18,0,-5,-4
2475,-14,-3,-3,-6,15,4,1,-29
2480,24,25,0,4,-14,-1,1,39
2485,24,-25,2,-7,3,2,4,10
2490,-11,6,-13,8,-28,-8,-6,-17
2495,7,-6,-1,23,-10,-6,-6,-13
2500,-43,-34,8,16,15,6,5,26
2505,41,15,-4,-2,5,-5,-1,-9
2510,18,22,1,23,6,1,-1,-7
2515,9,-21,-13,-60,-5,-5,-1,10
2520,-33,6,12,9,4,-3,-6,-22
2525,-3,-17,-11,40,4,4,-1,-10
2530,2,-13,0,-9,0,6,5,16
2535,-6,-16,-11,-25,0,-4,-1,1
2540,0,0,0,-9,7,1,0,1
2545,-12,-8,4,-16,-4,1,0,-1
2550,1,-5,-2,-1,-14,-3,-1,-27
2555,-13,20,5,-15,-8,-2,0,11
2560,0,5,7,42,2,-3,-1,11
2565,-1,-41,-8,-7,-2,-2,-3,5
2570,-22,-24,0,5,4,3,7,10
2575,7,2,-1,-41,-2,1,-1,0
2580,7,-4,-3,5,2,0,1,-10
2585,-5,12,1,29,-1,-4,-5,-11
2590,-27,-6,-4,0,0,-4,-2,-7
2595,12,2,10,36,-1,2,2,12
2600,-17,10,-19,-51,-5,0,1,-5
2605,17,-9,7,22,13,2,-1,-17
2610,21,8,11,18,6,0,1,13
2615,1,0,-19,-62,-20,-4,-1,-1
2620,11,-10,7,61,-3,1,-2,-5
2625,-8,16,-1,-33,10,4,4,10
2630,-7,-1,-6,-70,-20,-10,-6,-1
2635,0,-16,-13,20,13,1,-1,-2
2640,12,-10,-1,20,0,-2,-2,-4
2645,0,6,10,18,14,2,1,0
2650,5,7,-1,-4,3,2,0,0
2655,-16,-32,4,-20,7,5,0,-2
2660,-28,-10,-3,54,-9,-3,-3,-30
2665,48,44,-20,-28,-25,-13,-12,35
2670,3,2,25,16,-6,2,5,-18
2675,-23,-10,-7,61,13,-4,-2,-5
2680,26,-3,-5,-22,10,1,-1,6
2685,-16,-6,11,-12,-1,3,2,-21
2690,21,-4,-26,-26,-4,-3,-2,0
2695,-2,53,14,34,3,0,1,17
2700,5,-38,17,57,18,5,3,-12
2705,8,-6,-27,-97,-46,-9,-3,1
2710,14,-22,5,25,7,-1,2,22
2715,-35,12,16,29,14,4,2,-10
2720,66,6,-13,-9,10,-4,-4,-1
2725,-40,-6,-7,1,-10,-6,-3,-20
2730,5,2,-1,24,2,-1,-2,11
2735,7,26,1,-68,-29,1,1,-4
2740,-9,-2,-1,12,5,-3,-4,10
2745,-23,6,12,40,9,4,2,-3
2750,5,-13,-14,-73,-4,-1,-2,-21
2755,24,10,13,-12,24,7,4,14
2760,-16,-24,-20,-52,-40,-8,-1,16
2765,15,-7,8,44,11,1,1,-13
2770,-27,22,1,-20,4,-2,-4,-18
2775,9,-15,3,27,-12,-3,-1,16
2780,-6,-12,-11,-37,-4,0,1,-9
2785,-4,-13,-15,-31,-12,-4,-3,3
2790,11,-7,22,108,34,10,1,-2
2795,10,40,-23,-111,-34,-4,-2,-8
2800,-11,12,3,-50,-27,-5,-3,-2
2805,-3,-36,8,91,36,0,-1,11
2810,-8,8,-21,18,-6,-4,-3,-8
2815,-1,-25,-1,-16,4,-6,-6,12
2820,-4,19,7,19,-6,3,4,1
2825,31,-1,3,-20,-14,-2,-3,-11
2830,-78,1,0,14,11,5,1,5
2835,2,-5,4,7,-5,2,4,9
2840,-26,-50,-6,-6,7,-3,-6,-37
2845,26,16,9,-7,1,-3,0,34
2850,28,0,6,38,-2,-2,2,8
2855,-7,15,-14,-48,2,-9,-9,-18
2860,15,-8,10,13,21,-1,0,5
2865,-43,-12,-3,40,0,4,2,-18
2870,58,35,10,-80,-9,-3,-1,12
2875,0,-22,-15,-19,-21,4,2,2
2880,7,32,5,41,20,4,2,-3
2885,-48,-14,4,-77,1,-4,-3,-15
2890,31,-11,-7,0,-4,-1,0,13
2895,-57,-8,21,68,15,3,1,-19
2900,24,77,12,7,-4,-1,0,20
2905,2,39,-9,-55,-20,0,3,-10
2910,1,-8,-4,53,-7,-7,-3,4
2915,-39,-54,1,-49,5,-4,-6,-40
2920,7,5,-3,15,-14,5,3,64
2925,-14,29,-3,47,19,-3,-5,-20
2930,7,4,-1,-11,-6,-4,-6,-8
2935,15,-5,3,47,15,4,2,-1
2940,-16,-8,4,1,7,2,0,-12
2945,-1,11,-1,-31,-16,0,6,11
2950,-46,-42,-2,-5,4,4,2,-3
2955,58,5,-7,58,-6,-7,-8,-7
2960,-9,29,-6,-14,10,2,0,-10
2965,32,-39,-7,13,-1,-1,-1,4
2970,5,16,19,60,10,-2,-1,-6
2975,-4,3,-8,15,-1,2,3,20
2980,-27,-5,-20,-51,-18,-10,-9,-24
2985,10,-14,6,35,26,6,4,5
2990,-1,19,10,29,-12,-6,-4,-1
2995,2,-15,2,-31,-17,-3,-1,2
3000,10,-23,0,-40,-13,-2,1,3
3005,-43,-2,4,-1,-5,-1,-2,-7
3010,16,2,-14,-5,3,-5,-4,-20
3015,-25,-7,-11,25,20,-1,0,46
3020,-10,0,9,-18,-10,-4,-3,-11
3025,22,25,-12,18,-14,-2,-1,1
3030,-31,-42,1,-35,-2,0,-2,-11
3035,33,15,6,36,9,3,4,-3
3040,-37,9,-7,-9,-4,2,2,8
3045,17,26,17,49,13,4,-5,-14
3050,19,-12,-8,-23,4,3,4,0
3055,9,-6,0,22,-15,-3,0,2
3060,-20,-16,1,30,4,0,-1,-12
3065,7,2,-2,-31,-4,-5,-3,18
3070,19,19,-2,-26,-3,-1,1,-21
3075,-14,92,12,-49,1,5,0,4
3080,24,14,8,51,34,6,6,24
3085,-75,-49,-11,-12,-23,-8,-10,-16
3090,42,-17,1,50,17,4,-1,22
3095,-30,5,15,20,14,5,6,-23
3100,8,-18,-20,-85,-26,-6,-3,-8
3105,-2,3,-11,-9,-5,0,2,9
3110,-14,28,-6,-14,2,-6,-5,0
3115,1,-41,8,40,8,-2,-4,-8
3120,-18,14,1,15,-1,0,0,2
3125,59,-12,-3,-36,-13,-3,0,0
3130,-37,0,-4,-31,-17,-1,-2,4
3135,14,-6,-12,-22,-6,-3,-6,-10
3140,22,55,1,36,-3,-3,-2,29
3145,34,-52,2,-40,8,2,2,-2
3150,-65,-1,-7,107,12,3,1,4
3155,-5,-31,-12,-89,-38,-6,-2,-3
3160,11,-16,7,77,4,-8,-5,-17
3165,-20,28,15,-40,-5,7,4,-3
3170,77,10,8,46,13,4,5,22
3175,40,14,26,-3,17,1,-1,4
3180,-31,-42,-20,36,-15,-7,-6,-12
3185,2,22,-2,-65,3,-1,1,-2
3190,-48,-46,-4,-56,-8,1,-3,-14
3195,1,2,-14,40,-3,-1,-2,-19
3200,5,9,1,-21,10,1,1,38
3205,38,-24,-10,13,-7,-4,-4,-13
3210,-10,13,-1,-16,3,1,3,4
3215,16,-2,-4,-39,5,-2,-3,-5
3220,-43,-41,7,50,16,0,-3,-14
3225,-25,-16,6,66,19,4,3,7
3230,8,25,-10,-75,-32,-6,0,-2
3235,9,-55,-10,-6,-3,-4,0,51
3240,2,-1,14,17,4,5,2,-37
3245,-15,11,-12,-4,-27,-8,-3,16
3250,14,-9,9,80,-1,-6,-3,0
3255,-95,-37,-3,58,11,5,2,0
3260,109,40,6,17,18,6,3,7
3265,-7,9,-15,-66,9,-4,-3,-4
3270,-21,-1,-5,-32,-26,-9,-8,-13
3275,18,2,4,26,23,2,-3,-9
3280,-2,18,-10,-56,-10,1,1,0
3285,14,7,-3,4,4,3,1,-8
3290,2,-2,4,8,20,5,3,2
3295,31,19,0,-29,-27,-6,-3,-4
3300,-1,-32,3,14,-6,-7,-5,-2
3305,7,88,5,83,10,4,1,-35
3310,-26,-18,6,-31,15,4,4,57
3315,-38,30,8,-54,-26,-7,-3,-12
3320,-15,-36,-9,-44,-14,2,3,-1
3325,1,1,12,-10,14,2,-4,-2
3330,-11,-26,1,35,11,-4,-3,-13
3335,-16,0,-5,-1,8,2,2,-25
3340,5,23,-6,32,-6,-1,-1,37
3345,-41,-53,-15,-76,-19,1,3,3
3350,18,33,10,-1,3,4,-1,-6
3355,9,6,11,-27,-15,-3,-1,9
3360,-16,1,-10,42,32,0,-1,-22
3365,52,4,-11,-22,-9,3,4,16
3370,-83,-80,7,21,-14,-7,-5,-8
3375,56,22,-4,118,9,1,-1,-4
3380,-5,33,25,-128,-53,-7,-4,-9
3385,-47,-31,5,12,0,-2,0,-4
3390,59,58,-22,-52,-11,0,0,2
3395,-7,-12,16,39,17,3,4,-2
3400,-24,-25,-15,26,12,0,0,3
3405,-20,-15,3,46,16,0,-3,1
3410,28,16,-3,-30,-9,2,3,-10
3415,-16,-25,1,32,5,-4,0,9
3420,44,18,0,39,11,0,-4,-3
3425,-17,-1,-16,-64,-31,-10,-6,-7
3430,-8,-10,-2,75,11,1,-1,-26
3435,11,15,-18,-75,-14,-2,0,23
3440,-8,-11,4,0,10,0,0,-15
3445,48,1,5,22,1,-1,0,11
3450,12,-15,4,-23,-10,3,1,-18
3455,4,-17,-3,41,20,5,0,-3
3460,-8,-13,-5,-97,-38,-6,-3,-2
3465,14,-2,8,15,12,-3,-6,-22
3470,7,34,-14,-42,-11,-2,4,25
3475,-17,-9,1,52,15,5,5,12
3480,1,-8,-2,-20,10,5,6,12
3485,38,75,2,-21,-6,1,1,-4
3490,10,-7,6,-6,13,0,0,6
3495,5,17,14,7,-22,-6,-11,-21
3500,-21,-29,-11,16,0,-1,-3,10
3505,16,7,2,-20,-8,3,12,26
3510,-12,36,5,33,-3,1,3,-3
3515,7,-46,-26,-81,-14,-8,-6,-12
3520,-6,17,0,-48,-2,-2,-4,-22
3525,-31,-17,14,96,22,-2,-6,-8
3530,5,-4,-7,-45,4,3,2,11
3535,-25,2,6,5,-6,-2,-2,-12
3540,25,-8,-5,-10,-8,1,4,3
3545,3,-10,7,24,5,0,0,10
3550,-47,-5,1,3,-21,-9,-7,-11
3555,22,14,-21,-16,-7,-3,-1,-2
3560,-4,-8,17,68,34,4,2,1
3565,-31,30,16,24,8,-4,-5,-19
3570,28,-34,-14,-27,-18,-2,-1,-2
3575,-25,11,6,-8,22,4,-1,14
3580,12,-21,-8,27,-16,-7,-5,-3
3585,-37,-10,4,4,22,3,0,-5
3590,0,-14,-1,1,-20,-9,-6,-24
3595,21,17,7,39,6,8,6,26
3600,-21,-1,-14,1,10,5,3,-9
3605,33,-8,3,15,-9,1,0,19
3610,0,19,15,-23,-6,-3,-5,-2
3615,-1,1,-4,15,-11,-13,-3,-21
3620,-10,11,10,26,11,1,-1,9
3625,-35,-22,-8,-17,0,12,8,-11
3630,37,24,-9,-39,-1,4,2,13
3635,9,-1,10,15,1,2,-3,-12
3640,-5,-12,-9,-29,-14,-14,-11,-4
3645,-18,-9,-11,-32,-26,-7,-8,-10
3650,27,12,9,24,16,3,4,23
3655,-13,42,-8,19,8,2,-2,-6
3660,2,-2,-5,-6,-9,1,0,1
3665,6,-16,-5,38,0,-7,-8,-30
3670,9,8,-15,31,-2,-1,-3,23
3675,27,-1,1,-63,-14,-1,2,5
3680,-2,0,20,-14,9,1,-2,-4
3685,-4,-12,-9,-16,-12,0,2,3
3690,-22,-12,18,86,25,1,-1,-14
3695,-5,-12,-19,16,-14,2,3,3
3700,-8,2,-17,-57,1,-2,-1,1
3705,18,10,20,42,-2,-5,-4,-4
3710,-22,-12,6,-9,-2,-2,0,14
3715,-1,-21,-17,-80,-11,-3,-2,5
3720,-1,9,8,28,0,0,-1,-22
3725,4,-2,-8,17,6,3,2,16
3730,-10,2,-3,22,6,1,0,-16
3735,-5,2,-6,-13,14,5,0,8
3740,-2,-3,1,-17,-22,-5,-1,-4
3745,-10,-9,-9,-25,-17,-5,-3,9
3750,12,57,-15,-73,-6,2,2,0
3755,43,-12,17,94,27,1,1,1
3760,3,2,10,100,8,0,-1,-1
3765,-2,-7,-8,-65,-20,-6,-5,-4
3770,-7,7,1,34,7,-1,1,7
3775,-2,5,1,-25,2,1,7,-18
3780,6,-41,-23,53,11,0,-4,13
3785,49,23,-5,-64,-15,-1,1,8
3790,-66,-29,-14,13,5,0,-4,-16
3795,-10,7,-3,-32,-23,-9,-5,-12
3800,-16,-21,7,-1,14,-1,5,15
3805,-1,-6,3,2,4,0,2,-1
3810,-32,2,-11,-40,-2,-1,-4,-6
3815,52,-15,-3,6,3,2,1,-2
3820,-16,33,4,-35,-20,-4,-4,-46
3825,58,2,-10,-45,12,-1,1,86
3830,2,-11,4,25,-15,-9,-3,-24
3835,-24,14,9,41,11,0,0,4
3840,-2,-9,-1,-16,-8,-2,-3,2
3845,35,18,10,30,16,6,3,-26
3850,-76,-26,0,-19,-5,1,-3,-15
3855,-1,-23,-13,-16,-4,-3,-4,23
3860,8,9,10,16,8,6,3,9
3865,-9,0,4,-13,-6,-1,-4,-24
3870,47,18,7,13,-2,-6,-6,-9
3875,-61,1,-25,5,-8,-6,-2,-25
3880,26,20,16,10,12,8,9,21
3885,-8,23,15,-52,3,8,5,21
3890,11,-21,-3,-17,3,-9,-7,-13
3895,-5,13,29,48,31,3,-2,-10
3900,18,-11,-21,-13,-31,-10,-4,9
3905,-35,-2,3,56,12,-1,-11,-28
3910,17,-16,7,25,2,14,26,-4
3915,-33,-11,-2,-99,-1,0,-5,14
3920,-1,0,-4,-69,-14,1,0,3
3925,-43,-16,1,96,1,-5,-7,-10
3930,-1,-3,2,55,16,-3,-11,-23
3935,2,3,8,-52,-8,-8,-8,7
3940,-7,-1,-17,-33,-16,2,10,-2
3945,1,12,-9,17,0,4,5,-23
3950,25,-36,-5,-27,-10,-3,-5,43
3955,-5,-9,3,59,8,2,3,-10
3960,18,22,2,5,0,-8,-10,-1
3965,-5,-12,4,29,9,-1,1,-11
3970,-17,3,-11,-90,-6,0,0,15
3975,7,-39,-2,-1,-7,3,1,6
3980,-17,-6,1,27,9,2,-2,-42
3985,-12,-11,6,64,15,4,5,47
3990,-8,-1,-25,-43,-14,-11,-11,-7
3995,-15,-1,-2,0,-8,-1,-1,-1
4000,12,4,0,-10,1,1,0,-1
4005,-26,-3,3,32,6,-2,-3,-22
4010,18,19,12,30,-6,3,3,8
4015,15,11,-6,-76,-16,-7,-2,5
4020,22,-10,-12,11,14,0,-2,6
4025,-7,1,-1,-11,-4,-2,-3,-13
4030,18,3,-13,-24,0,-1,-1,25
4035,9,9,3,43,-8,2,4,-7
4040,-20,-2,6,20,10,2,2,7
4045,-25,-11,-10,-46,-6,-5,-2,1
4050,-4,0,6,20,-3,3,1,-14
4055,-8,6,8,66,14,2,2,4
4060,-6,1,-4,-36,-12,-5,-4,13
4065,-11,-5,1,-6,-5,-2,0,-10
4070,0,11,0,-8,-8,-3,-2,0
4075,28,11,-3,59,8,2,-1,1
4080,-50,-13,9,-41,-16,-5,-1,-12
4085,8,-2,-24,-70,4,2,-1,22
4090,19,7,9,35,6,5,10,5
4095,-20,20,-1,-18,-6,2,3,-7
4100,31,1,4,77,15,5,3,4
4105,8,1,-7,4,-6,-6,-4,1
4110,0,-10,-5,-18,-4,-3,-4,-4
4115,45,7,-4,5,-3,-3,-6,-5
4120,-9,6,5,-10,8,5,0,1
4125,-1,-24,-11,-3,-13,-3,-2,-15
4130,-2,12,7,89,8,1,0,11
4135,-7,-18,-3,-67,-6,1,1,-7
4140,25,5,-7,-18,5,3,-2,5
4145,16,9,5,5,-15,-5,2,-2
4150,5,-2,-3,-15,13,3,-1,-4
4155,-13,-10,8,62,-3,-2,-2,-5
4160,-23,-1,-9,-24,-7,-9,-7,1
4165,8,12,1,15,2,2,2,0
4170,33,0,2,19,2,0,-1,-4
4175,-9,1,-6,-39,18,6,1,4
4180,0,-3,18,91,-2,-8,-4,-8
4185,-10,-10,-11,-39,-23,-7,-5,-7
4190,-37,9,13,33,8,1,-1,-1
4195,-5,-2,-6,15,11,5,2,0
4200,8,-2,-9,-10,-1,2,3,3
4205,-1,-5,7,18,11,1,0,1
4210,-8,0,0,7,-1,-2,-2,-1
4215,-4,5,8,-33,-14,-3,-3,-4
4220,-11,4,2,-22,2,5,3,2
4225,-26,-28,-9,16,-4,-5,-7,-1
4230,9,-5,-2,15,9,3,5,1
4235,19,6,11,46,-13,-9,-3,3
4240,-56,-10,-10,-28,-7,-2,-5,4
4245,-1,16,5,-26,3,4,0,-31
4250,19,-5,-9,-81,-4,0,0,31
4255,-32,-10,-11,32,9,-2,4,-1
4260,7,2,10,5,-9,-2,0,-2
4265,8,1,-4,-46,-4,0,0,5
4270,-26,-8,2,51,-3,-10,-11,-22
4275,6,7,4,-12,1,-2,-3,-2
4280,16,-2,-16,26,-1,-1,-1,6
4285,5,6,7,-2,1,2,7,12
4290,14,-1,0,19,4,-2,-3,-13
4295,-5,-6,0,75,6,1,-2,5
4300,8,1,-1,-91,-17,-4,-1,-7
4305,-9,-4,2,53,-4,-1,5,8
4310,19,-1,-3,-24,0,2,1,5
4315,-18,6,-1,-8,-12,0,2,0
4320,13,-10,-5,25,12,5,-1,-2
4325,6,17,11,29,11,0,0,1
4330,-7,-1,0,-40,-12,-4,-2,-4
4335,3,-4,-3,14,-1,-2,-5,-9
4340,2,4,4,-40,5,-1,0,-3
4345,1,-9,-8,-40,-10,-3,-2,3
4350,-11,4,4,30,-4,-6,-9,-15
4355,7,-9,-12,-59,-14,3,4,5
4360,-3,1,-2,-4,6,4,4,-6
4365,2,-8,5,68,12,1,-13,1
4370,-19,10,-10,-43,-8,-4,12,3
4375,43,-4,-10,-8,10,-3,-7,3
4380,20,3,9,42,-22,-10,-5,1
4385,-9,7,26,3,7,2,1,-25
4390,-3,-6,-21,25,-4,2,-1,5
4395,4,0,19,30,-9,-10,-8,-10
4400,-19,1,-8,-18,14,3,1,2
4405,15,-2,-6,6,9,-1,-6,2
4410,-2,5,10,4,6,1,-4,-11
4415,-17,-4,-4,-24,-8,5,5,7
4420,73,-4,16,98,13,1,4,-7
4425,-44,15,-15,-41,-11,-3,-1,49
4430,9,-13,-1,18,6,-3,3,-9
4435,-22,-4,-7,-16,4,-2,-8,-1
4440,-1,5,10,50,10,-1,-7,-19
4445,17,-3,-7,-46,-27,-6,-11,-6
4450,21,2,-8,-26,-12,-5,6,19
4455,17,-6,-2,10,15,5,12,-18
4460,-86,-4,0,11,-4,-3,-8,13
4465,37,4,-12,23,-7,-9,-5,-63
4470,-82,-11,0,-44,4,9,9,69
4475,1,-10,-6,-9,-7,-8,-1,-7
4480,-26,-10,16,51,14,0,-3,-8
4485,14,-7,-13,95,13,7,-3,-21
4490,19,0,13,-84,0,2,-5,-27
4495,-14,4,-2,-18,-14,-3,-1,13
4500,-9,-20,-24,-30,8,6,6,-3
4505,44,32,19,-9,-10,-11,3,24
4510,28,5,6,-5,0,3,1,-13
4515,-3,8,13,41,15,5,-2,6
4520,-6,-7,-12,-69,-12,-5,-3,-41
4525,-17,-12,-12,-11,2,6,11,85
4530,-31,-7,-6,79,9,-3,-16,-26
4535,46,17,15,-80,-30,-10,3,-28
4540,-51,4,-5,-4,-19,-4,-2,14
4545,-3,-14,0,41,17,3,-7,-16
4550,24,26,9,75,5,1,18,8
4555,-61,-8,-7,-51,-10,1,-9,-32
4560,22,9,-14,8,17,8,15,26
4565,-15,-8,-13,-82,-30,-3,9,52
4570,0,-2,-1,51,1,-7,-16,-4
4575,31,-6,-20,-14,-3,-2,5,-14
4580,-13,4,-3,-65,-14,-2,-2,-4
4585,-20,-8,-6,38,19,3,-4,-31
4590,33,-5,-4,-2,-6,-3,-4,-13
4595,6,-1,10,13,-7,-3,-2,31
4600,28,19,-3,-21,-5,-1,-3,2
4605,-15,-1,13,44,20,3,1,-11
4610,6,0,-12,-46,-3,1,-2,-18
4615,-20,-8,-19,11,3,-4,-5,7
4620,65,12,-9,62,5,0,13,9
4625,-8,-13,-1,-90,-13,-2,-13,-36
4630,-14,-1,22,6,-2,1,11,32
4635,-3,0,-23,57,21,3,-7,2
4640,-12,-6,-10,-52,-19,-2,9,-7
4645,-7,-6,26,-43,-14,-8,-2,-2
4650,4,2,21,-48,-3,-1,3,-10
4655,4,-3,-23,-59,-4,5,-4,2
4660,-8,-9,-8,49,10,-2,-11,11
4665,-3,0,17,29,2,1,2,-13
4670,-28,-10,-45,-89,-24,-2,-3,-6
4675,32,17,26,36,7,0,3,13
4680,-5,-2,11,47,5,1,-3,-6
4685,84,3,-17,-96,-15,-6,-3,-3
4690,-75,-11,7,37,4,-4,-9,0
4695,0,10,-3,44,5,4,36,0
4700,-5,-9,-20,-47,-10,-4,-23,-38
4705,-35,4,13,93,18,6,18,59
4710,38,0,-8,-28,-10,0,-4,-15
4715,21,17,1,43,14,5,-1,13
4720,-13,-11,51,-42,-21,-11,-2,-18
4725,-2,1,-20,25,2,-3,-6,-1
4730,17,-4,-7,-75,-5,-4,-2,-19
4735,-39,-15,8,28,1,-4,-12,-2
4740,20,9,-13,81,16,5,-1,16
4745,-18,0,-2,113,17,4,4,-25
4750,9,-13,-19,-91,-35,-9,-3,2
4755,-12,-8,-6,-7,0,-3,-9,-5
4760,50,13,16,28,0,1,-1,5
4765,-17,-13,-12,-26,-1,7,-1,-8
4770,-11,4,23,76,29,3,12,8
4775,-82,-12,-14,-43,-11,-9,-7,-8
4780,7,-9,8,52,4,-3,-8,7
4785,9,-5,-15,-85,-30,-12,-1,-25
4790,44,10,2,77,12,3,-8,2
4795,9,-13,-4,-13,-2,3,1,-18
4800,-9,-6,-20,-31,10,1,6,33
4805,-14,11,43,101,19,2,-7,-50
4810,6,0,6,-51,-1,-4,-1,69
4815,61,1,-17,-19,-7,1,4,0
4820,-52,-12,-11,-27,0,-1,2,-10
4825,20,-4,-19,-36,-3,3,1,7
4830,-20,0,-11,68,13,5,5,-20
4835,-23,6,40,-25,-8,-8,-15,6
4840,13,-1,-8,24,-8,-5,-2,1
4845,-17,1,-11,-61,-2,1,3,12
4850,3,3,1,26,10,1,1,-15
4855,-2,-12,-6,44,-11,-6,-7,2
4860,1,2,18,-43,-5,-3,-6,-14
4865,-14,-1,-15,28,0,0,6,5
4870,17,3,-50,-91,-12,0,3,-8
4875,4,6,74,38,11,-1,-8,0
4880,-12,0,3,26,-1,-1,18,2
4885,2,-1,11,-20,8,2,-9,3
4890,-3,-4,-14,39,-7,-8,-7,-23
4895,-25,-5,-15,-41,-10,-1,-8,-27
4900,34,13,0,-8,-2,2,15,57
4905,29,23,21,33,14,5,0,14
4910,-18,-3,28,-40,-6,-3,-8,-12
4915,7,-5,-23,10,6,-1,2,1
4920,6,2,-7,-20,-9,2,10,-9
4925,13,-12,-20,-1,-8,-6,-11,-5
4930,6,1,4,86,19,6,-2,0
4935,36,11,0,-77,-10,-2,19,20
4940,-23,-15,3,13,-9,-2,-10,-10
4945,-15,-4,-1,33,7,-2,7,9
4950,-15,-8,0,-63,-12,-6,-9,-27
4955,-14,-2,-4,56,12,6,-13,-2
4960,-1,11,-2,-41,-6,-4,9,-11
4965,-6,-9,-44,-26,-13,-4,-9,5
4970,-29,7,23,55,7,4,13,19
4975,-7,-8,5,35,12,0,15,11
4980,-3,-3,-15,-25,-6,-4,-24,-8
4985,-4,-1,-13,-66,-9,-2,-14,-33
4990,8,5,-1,0,-8,1,5,50
4995,0,11,25,7,16,4,1,6
5000,-14,-4,15,9,10,-6,-25,-14
5005,-6,-3,-7,-68,-11,-2,19,-18
5010,20,-6,-19,-28,-9,0,-36,6
5015,-65,-1,-10,48,2,4,61,27
5020,27,9,19,-6,8,2,-2,-12
5025,7,0,-10,-8,-7,-7,-14,9
5030,-8,-1,26,8,-4,-2,4,-18
5035,11,-10,-20,11,1,-2,-28,-21
5040,18,-1,3,-29,0,3,5,-8
5045,-24,-11,-4,60,9,4,17,49
5050,-7,1,-21,-52,-5,-2,-7,-13
5055,23,-1,15,34,-11,-5,-5,-8
5060,-16,-2,-12,37,3,-2,-11,-6
5065,14,3,17,9,9,8,26,-14
5070,-18,-3,-5,51,5,-4,-12,1
5075,20,3,0,5,12,7,8,-9
5080,-7,-12,-28,-93,-16,-2,-5,3
5085,16,0,32,51,0,-11,-14,-1
5090,-12,5,37,6,-11,-4,-1,-15
5095,5,-8,-18,-15,0,-3,-9,0
5100,2,-1,-20,42,1,5,12,18
5105,-9,5,10,-13,7,4,-1,-7
5110,16,-7,-4,51,15,2,7,-6
5115,-12,-2,-5,-52,-23,-8,-16,-28
5120,22,4,19,44,13,1,-6,36
5125,-64,-5,-10,-55,-17,-4,15,-42
5130,-18,0,-6,27,7,5,4,39
5135,6,4,-21,-10,-4,-1,-4,-3
5140,6,0,8,13,4,-2,-6,-7
5145,52,3,7,53,5,-2,-22,-16
5150,20,-7,-2,-15,-10,2,31,1
5155,-8,3,-14,-24,-9,-4,1,28
5160,-31,-1,-15,-19,-1,0,0,-12
5165,20,0,2,7,6,-3,-10,17
5170,13,7,10,62,19,3,1,-16
5175,-1,-11,-6,-33,-2,1,-10,-11
5180,14,5,-10,-30,-12,-2,8,-14
5185,9,-2,0,-8,-1,7,18,17
5190,-10,-2,-3,-18,-1,-6,-7,19
5195,0,2,8,11,4,-2,-3,-2
5200,-3,2,1,11,6,-1,-6,-34
5205,19,10,-8,15,-6,-5,-10,11
5210,3,3,-13,-31,-11,-2,4,-20
5215,11,-1,16,-55,-8,-3,-7,21
5220,-16,-4,-2,-45,5,3,9,0
5225,-8,2,9,50,2,-5,-13,4
5230,16,-6,-14,13,16,7,12,-7
5235,-17,10,27,8,-25,-8,-14,14
5240,-22,2,9,-39,-7,3,18,22
5245,-11,-4,-28,-36,-4,-4,-5,0
5250,7,0,-5,21,2,-3,-12,-7
5255,-13,-4,-16,11,15,6,5,-18
5260,14,0,13,20,-3,-3,-11,3
5265,-6,-9,-24,-19,-6,-3,-3,-34
5270,-21,-5,0,-1,-3,-1,-7,18
5275,18,0,-18,-39,-8,0,10,18
5280,-12,-6,4,38,3,-1,1,2
5285,5,3,15,4,-2,5,6,-3
5290,-26,-8,3,10,2,-6,-7,-31
5295,3,-2,13,-29,0,2,-5,-8
5300,6,-4,-12,-33,-5,-2,10,5
5305,-13,3,34,36,8,4,2,0
5310,7,2,-1,1,-1,1,-4,-1
5315,7,-2,1,23,12,0,-4,7
5320,-29,-12,29,62,3,-7,-11,-19
5325,-57,-3,-13,-10,-9,-4,-7,4
5330,-10,3,-4,11,10,6,21,8
5335,5,4,-49,49,2,6,-1,-1
5340,28,3,50,16,-2,-6,3,-14
5345,62,1,-44,-1,-6,1,19,34
5350,27,1,1,-59,-17,-6,-13,4
5355,-42,1,19,40,11,0,1,-8
5360,1,8,-8,-17,-1,3,-16,-24
5365,22,6,15,4,3,-1,-1,50
5370,-16,-22,-11,-12,1,-1,10,-25
5375,9,6,0,-30,-4,-2,0,23
5380,-5,-1,-18,-4,-3,-2,-8,-3
5385,-10,-5,15,1,-2,-3,-7,-11
5390,-12,-7,-14,-14,-6,-3,-12,-4
5395,23,7,3,8,-1,-1,11,-10
5400,-19,7,-17,18,13,7,3,14
5405,-5,-8,19,5,5,-3,7,6
5410,-8,-9,37,8,-19,-12,-16,-4
5415,-8,-17,-23,-9,-2,-10,-10,-34
5420,-37,-11,-39,8,-6,4,5,-8
5425,-23,8,-3,-74,12,9,0,-24
5430,-3,-2,16,22,1,-2,-14,21
5435,-2,6,24,6,-7,-8,-6,-20
5440,25,-7,-6,-10,-1,1,8,62
5445,4,6,4,-10,8,4,-9,-13
5450,1,-1,-1,16,-9,-6,-5,30
5455,31,-2,4,-25,-10,-2,-3,-10
5460,1,4,-5,5,-6,0,-2,-12
5465,27,7,7,3,-1,-1,10,13
5470,-21,10,12,37,13,5,3,-6
5475,9,0,-11,48,9,7,3,4
5480,9,-3,-13,-45,4,-4,-6,-21
5485,5,-14,20,59,-10,-7,3,1
5490,4,6,-17,-128,-1,5,6,-16
5495,8,2,-30,85,8,3,3,-8
5500,-34,-14,-4,-101,-29,-8,7,47
5505,66,9,8,92,25,-1,-13,-15
5510,-49,-1,-34,-34,-16,-4,1,-9
5515,-42,-15,-7,-26,0,-5,-3,-6
5520,28,8,2,32,13,5,0,-4
5525,3,0,-6,2,-7,-4,-10,-17
5530,-71,-21,20,30,8,0,-2,-8
5535,50,34,-6,-85,-3,7,32,74
5540,9,-4,17,36,5,-2,-13,-17
5545,-55,8,-8,-25,-6,-1,14,6
5550,-12,-10,-5,-37,-7,0,-11,-17
5555,-14,-10,26,25,-2,-7,-13,-18
5560,1,2,14,55,15,-1,-5,-11
5565,-41,-7,-27,-42,-4,3,-1,9
5570,98,10,4,23,-5,-5,-2,4
5575,-28,-9,2,-1,-1,1,-4,5
5580,17,2,-8,-58,-19,-7,2,9
5585,10,-7,-8,105,17,2,-4,-12
5590,38,10,30,-18,-3,3,7,3
5595,9,-1,-2,-12,4,-3,-5,-1
5600,-67,-17,-7,103,7,-3,-16,-29
5605,6,15,8,-43,-16,0,14,-2
5610,-28,-6,-41,71,2,-2,1,-6
5615,-36,-9,22,-10,-5,-3,13,22
5620,-10,-2,-3,12,6,3,-18,-33
5625,11,-9,-12,-59,-13,-5,7,3
5630,51,18,15,12,7,3,2,-1
5635,-20,-4,-12,18,-6,-5,-3,-32
5640,20,2,4,-1,-1,-1,3,27
5645,-8,-3,4,-63,-3,2,-7,-6
5650,6,-4,5,11,-8,-7,-3,1
5655,26,20,25,92,8,-2,-15,-34
5660,32,1,6,-58,-12,-3,8,13
5665,49,8,9,-8,3,-1,-8,5
5670,-35,-7,-33,-57,15,8,9,11
5675,-2,-5,25,12,-17,-6,-10,5
5680,7,1,-20,-42,1,0,3,-7
5685,-11,-2,-7,34,5,0,-6,-14
5690,1,-12,-20,-58,-5,-2,12,3
5695,14,-4,9,62,7,2,-5,14
5700,-5,4,4,-13,5,2,6,-3
5705,-32,-8,9,-6,-2,-3,-8,-6
5710,54,10,26,69,8,-2,-17,-11
5715,11,-23,-23,-78,-12,-2,8,-46
5720,-10,4,10,8,-7,2,19,45
5725,-18,-17,-37,-21,-13,-8,-20,-19
5730,18,16,26,78,11,4,10,7
5735,-15,0,-8,5,9,1,-10,-15
5740,14,13,15,64,15,2,-20,-14
5745,58,-4,4,-19,-21,-7,10,-2
5750,-98,7,-26,-100,-4,2,3,0
5755,-10,-4,9,16,3,-2,-2,11
5760,-19,-3,15,-31,-13,-8,1,-21
5765,-9,5,9,81,21,10,1,12
5770,17,-1,-7,-17,-14,-7,-4,-6
5775,1,-4,-13,-11,6,4,3,12
5780,10,7,-3,-34,3,2,8,3
5785,-9,-2,10,8,-8,-3,-5,-13
5790,60,7,8,-66,5,3,-4,-9
5795,-19,0,-9,3,-6,0,-4,35
5800,8,-11,6,7,5,1,-2,-12
5805,24,2,-47,-110,-3,2,6,2
5810,-91,-21,37,120,6,-5,-3,-7
5815,0,0,-40,-69,-10,-4,-6,-3
5820,-2,-8,-7,-56,-10,-4,1,-4
5825,-23,1,21,25,4,0,-2,13
5830,48,11,-2,16,7,2,-1,-31
5835,-18,2,-1,-18,-5,-2,-1,-29
5840,15,3,-16,99,-4,-3,20,52
5845,-26,-12,-4,-12,-13,-6,-5,-13
5850,-18,-5,-1,-22,-1,-4,-5,6
5855,6,-2,11,-26,3,2,-9,-2
5860,-10,-3,-22,-21,5,1,5,-33
5865,-16,4,7,1,-4,2,8,43
5870,15,3,21,78,4,-2,-1,7
5875,11,0,0,-32,2,1,-2,18
5880,-17,-4,-3,-53,-8,-2,-7,-18
5885,-19,-5,3,38,5,0,-3,-11
5890,11,1,-23,8,-5,2,1,4
5895,-3,4,-3,-52,3,5,7,3
5900,20,-3,6,6,-16,-4,-7,-6
5905,-18,-7,0,66,-3,-5,-4,-2
5910,17,-4,-2,42,-7,-3,-3,13
5915,51,9,-10,-33,5,2,3,-8
5920,-21,3,-7,54,8,0,-5,16
5925,-4,9,19,5,12,4,-5,-35
5930,32,-2,-18,-24,-8,-3,-7,59
5935,51,2,-4,52,-3,-1,8,-3
5940,-32,4,19,-84,-11,-4,-1,-36
5945,0,-12,-15,-28,-2,-3,-2,22
5950,-31,-4,-8,-10,5,1,-4,-29
5955,36,0,3,11,-1,3,4,4
5960,-10,7,0,50,20,6,-2,-3
5965,10,-8,6,73,-8,-6,-4,1
5970,17,3,0,-60,-5,-3,3,5
5975,-41,-8,26,60,-6,-9,-11,0
5980,3,-4,1,80,7,1,1,-4
5985,15,10,0,-3,6,1,4,0
5990,-14,-5,-22,-47,-18,-3,1,0
5995,5,-8,1,-50,-7,-5,-3,-9
6000,26,5,27,81,10,5,-1,9
6005,-16,-1,-31,-104,-5,0,0,20
6010,0,-6,22,45,0,-4,-2,1
6015,-40,-4,13,23,3,-2,-1,-12
6020,8,-8,-27,0,-1,-3,-9,-4
6025,15,3,-7,-14,-4,-3,1,-17
6030,29,16,19,-57,1,1,-2,-17
6035,26,3,-18,-12,-8,4,10,31
6040,-66,-28,-4,6,-2,-2,1,-9
6045,-14,0,15,-2,1,-1,-4,0
6050,4,-11,-40,-13,1,0,0,-11
6055,1,10,10,74,6,3,2,-5
6060,-8,-6,17,-2,-6,-6,-11,-11
6065,52,-4,-1,-96,-9,-1,4,10
6070,-77,-12,-7,109,4,-2,-1,-22
6075,30,1,-22,-82,8,1,-7,-9
6080,3,2,-26,13,-10,-4,6,33
6085,-39,-5,25,30,11,4,3,-7
6090,59,8,1,-34,0,1,3,16
6095,3,6,1,58,-4,-7,-1,3
6100,-37,-2,0,-24,13,4,-15,-43
6105,19,-7,-1,108,-2,-10,5,32
6110,-25,22,6,-63,-5,6,4,-11
6115,2,13,25,75,13,7,-5,24
6120,32,-1,-42,-64,-22,-5,-6,-32
6125,3,-4,22,5,3,2,12,58
6130,69,15,-7,4,1,-4,-6,-2
6135,-91,-19,-9,-8,-1,-2,-4,-27
6140,-17,9,20,32,5,-3,-2,31
6145,37,12,-20,-58,5,4,-4,-28
6150,-39,-15,13,42,-6,-5,-4,-7
6155,67,6,-15,-57,-9,3,15,18
6160,15,-4,-9,-42,0,-2,-2,-3
6165,-75,-11,-4,1,-19,-7,-7,-28
6170,17,2,9,25,11,7,6,19
6175,-36,-9,22,52,18,3,-1,-1
6180,48,5,-36,16,-1,3,5,-7
6185,11,-2,9,-14,-13,-4,-4,-5
6190,-43,-25,-2,-6,-8,-6,-5,-25
6195,-35,8,8,-20,-4,0,0,34
6200,-60,-17,-8,-36,-14,-4,6,14
6205,12,11,24,94,25,6,-2,-11
6210,13,-14,-19,-92,-21,-6,-9,-24
6215,-21,-6,-1,28,-13,-4,13,-25
6220,45,6,18,-7,13,6,9,36
6225,-51,14,-8,57,10,3,-5,-34
6230,-22,-3,-1,55,-8,-5,-10,4
6235,61,-3,-15,-73,-16,-7,-2,25
6240,115,17,25,15,0,6,3,-1
6245,-70,-7,-44,-36,-6,1,3,7
6250,37,-2,0,-49,18,-1,-3,5
6255,-14,1,-8,-2,-3,-3,-15,-27
6260,4,-11,20,-40,-17,-10,5,3
6265,46,7,6,80,11,2,-8,-27
6270,-52,8,-3,-63,-16,-4,-7,21
6275,-13,-21,-29,19,0,-1,21,-12
6280,-58,10,1,-39,8,0,-8,19
6285,53,9,9,-25,-4,-1,1,-14
6290,-42,2,-22,66,9,2,-1,15
6295,-46,-14,29,-33,-4,-7,-12,-40
6300,-34,12,-1,32,-5,-4,-2,39
6305,21,-10,16,-15,-5,-1,-8,8
6310,-61,-8,7,13,0,1,14,11
6315,19,7,-30,-16,4,7,-5,17
6320,3,-9,-7,2,4,-2,2,-24
6325,-71,-8,-4,0,-1,-3,-10,-3
6330,90,9,-16,-30,-2,1,12,-20
6335,-32,-7,-7,-52,-10,1,0,75
6340,-10,1,49,127,9,-6,-1,-23
6345,18,-14,-34,-43,0,3,-1,1
6350,-60,5,9,-4,5,4,2,-12
6355,8,-6,-6,3,-10,-4,-3,-31
6360,72,13,-33,-23,-3,-3,-7,34
6365,-71,-24,-9,6,5,-1,5,-9
6370,11,-12,31,33,0,-2,-1,-9
6375,90,21,25,-15,-1,2,-5,-13
6380,-72,-18,-44,26,-1,0,4,18
6385,-1,7,38,34,2,-2,-5,-14
6390,24,13,14,-17,5,3,7,-27
6395,35,-26,-65,-70,-16,-8,-21,20
6400,-39,-7,-11,74,7,5,4,-10
6405,34,12,-5,-31,-9,-3,11,12
6410,-22,-5,-6,40,13,5,-3,-3
6415,-1,6,9,-9,3,-2,-10,-38
6420,64,3,1,-11,1,2,1,48
6425,-20,16,3,-36,-24,-10,-6,0
6430,6,1,15,14,2,-3,6,52
6435,-8,6,-7,-16,12,4,1,-25
6440,-18,-12,3,-28,1,2,-2,-20
6445,-57,-11,-2,-35,2,-2,-2,-14
6450,86,5,-7,-13,-14,-6,-6,5
6455,-84,-4,1,36,8,6,13,21
6460,43,34,51,-18,-10,-1,4,-16
6465,56,8,-24,73,16,4,2,20
6470,-32,-11,11,-52,-6,-3,-6,-18
6475,-25,-12,-2,-73,-9,-6,-3,5
6480,-6,0,3,14,9,3,-4,-34
6485,6,0,4,18,1,1,9,23
6490,15,4,-13,40,-1,-2,-5,2
6495,-56,-5,11,64,6,-1,-5,-24
6500,-34,3,-27,-39,-7,-3,-2,-37
6505,38,9,18,-37,0,3,12,59
6510,-11,-14,-3,48,3,-4,-16,-20
6515,91,27,9,21,4,-2,-7,15
6520,-100,-14,-10,80,6,4,20,-31
6525,59,3,21,-107,-33,-9,-11,2
6530,-9,9,-13,-19,10,4,1,-3
6535,6,-14,-5,46,-14,-11,-5,-8
6540,17,3,20,32,12,1,-7,23
6545,-11,-5,-25,-15,2,4,1,-15
6550,6,6,-8,-23,-24,-7,3,12
6555,-6,11,45,50,17,7,3,7
6560,-6,-19,-54,-49,-5,-5,-11,-17
6565,31,0,29,116,10,-1,0,3
6570,14,-3,-9,-61,-7,0,-3,9
6575,-15,-6,-11,-11,-1,0,9,-5
6580,29,7,4,-71,-2,3,-4,-21
6585,-25,-6,3,35,4,1,-2,23
6590,27,-7,-6,5,-1,-3,-2,-24
6595,-15,-3,-16,-3,-2,-2,0,15
6600,21,-6,6,-1,4,0,-15,17
6605,26,15,-3,-10,-1,-3,10,-33
6610,31,20,5,79,12,4,1,25
6615,-36,-18,-37,-84,-16,-2,2,0
6620,19,-5,17,40,-2,-6,-14,-8
6625,-8,-3,0,27,9,5,1,-14
6630,-65,-4,3,-20,8,8,8,-29
6635,12,-3,29,14,1,-1,0,26
6640,-72,-4,-14,-8,-9,-2,2,15
6645,-2,-9,4,20,-3,0,-4,-15
6650,-13,-9,-11,97,14,1,2,11
6655,83,5,4,17,-8,-4,-4,-29
6660,13,-1,28,19,8,1,7,-10
6665,-53,-9,-4,0,17,6,-2,-6
6670,33,8,2,-3,-10,0,6,8
6675,-11,7,-22,-27,6,5,4,-1
6680,7,1,3,-39,-18,-6,3,13
6685,2,-3,2,3,-9,-3,-6,-19
6690,-62,-20,-29,-32,0,-2,2,1
6695,86,11,17,87,4,-3,-2,-18
6700,-39,-12,6,-7,-1,-4,-6,54
6705,67,-1,-19,-96,-13,0,18,32
6710,9,-3,-2,-9,7,2,-1,-14
6715,-19,-1,17,42,5,2,2,9
6720,-33,-13,-7,10,-9,-4,-4,-40
6725,-17,-6,-9,-97,-9,-2,-7,15
6730,-8,-9,5,64,-1,-2,-5,13
6735,-18,6,-24,-58,-1,3,1,-28
6740,69,13,5,-20,1,3,7,25
6745,-31,-3,-26,60,12,0,-7,13
6750,-29,-4,-2,-64,-8,-4,4,-15
6755,-18,0,36,38,6,1,-4,5
6760,58,3,8,-101,-15,-4,-2,-4
6765,-86,2,23,113,8,-4,-5,-25
6770,38,2,-21,-72,-10,-1,-7,-4
6775,-19,6,-8,25,1,-5,-10,-16
6780,-45,-17,-14,-45,1,3,-5,32
6785,5,3,-10,-64,-4,1,20,-23
6790,12,1,16,75,14,1,-12,6
6795,-27,-5,11,-52,-21,-6,7,-42
6800,46,-1,0,38,3,0,3,15
6805,-37,-14,-29,-89,-10,-4,-16,-10
6810,-25,9,14,58,5,1,4,33
6815,4,-8,-9,-4,5,-3,-5,-9
6820,46,18,5,7,12,10,20,-1
6825,5,-10,-11,-12,-18,-10,-19,-17
6830,-15,-11,5,-60,-23,-12,12,-9
6835,17,3,3,-8,11,11,11,37
6840,-44,-6,-47,-12,-6,-6,-13,-43
6845,-5,5,27,92,17,2,2,10
6850,-4,1,13,-50,-2,-1,-10,-13
6855,-47,-8,-1,21,-6,-5,-4,17
6860,7,9,12,55,7,3,6,-15
6865,11,-7,3,-59,-6,-2,-7,-9
6870,-5,-2,-30,-2,-4,0,3,-8
6875,50,-3,14,-31,6,5,8,16
6880,-35,10,-37,77,8,1,-1,0
6885,27,-5,12,69,-4,-4,-6,-9
6890,-31,-9,44,33,1,-1,3,0
6895,-5,-5,-13,-36,-2,-4,-8,9
6900,28,10,16,9,15,6,0,-24
6905,13,-7,0,25,-7,-2,22,44
6910,34,5,13,-39,-2,4,6,19
6915,-25,7,-28,12,13,6,-2,19
6920,-8,-19,-13,40,-13,-10,-7,-13
6925,-27,6,11,7,4,2,-9,-24
6930,12,12,25,57,16,2,-5,-14
6935,13,-2,-39,-7,-10,-6,3,38
6940,-30,-5,32,2,3,2,1,-7
6945,4,2,-42,-128,-3,2,2,0
6950,18,-5,32,127,0,-5,-3,1
6955,-57,-8,-6,-67,-3,0,-7,-21
6960,18,9,24,16,-4,-6,1,-2
6965,26,0,2,66,10,4,1,12
6970,-21,-10,-28,-73,-12,-6,-11,-30
6975,14,6,26,41,5,-2,4,7
6980,12,4,-14,-11,-1,5,3,18
6985,-5,-1,37,-19,-7,-5,-6,-30
6990,15,14,-28,2,8,5,-1,25
6995,31,-2,15,-19,-16,-9,-6,8
7000,-1,3,35,-12,3,0,0,-15
7005,37,7,-3,-16,6,4,-2,6
7010,-45,-6,6,-7,-8,-1,-3,9
7015,95,15,-32,5,-11,-2,26,-13
7020,-55,-13,-8,-32,-21,-7,-3,18
7025,5,11,21,62,9,2,-3,1
7030,-7,-6,-13,-55,7,-2,-16,-38
7035,-22,-1,46,80,11,4,5,17
7040,14,0,-41,-51,-7,3,6,8
7045,2,-2,6,51,-11,-7,-2,-12
7050,22,8,7,15,11,4,4,14
7055,-25,-2,-13,63,3,-1,-9,-16
7060,10,0,3,-7,-1,-3,-4,-6
7065,-27,-17,-45,-106,-21,-8,-7,6
7070,13,1,-13,47,6,3,2,-26
7075,-74,-19,-3,-73,5,3,-2,16
7080,-35,-9,36,106,3,-9,-15,1
7085,19,13,-26,-65,-2,3,9,-23
7090,-1,-10,0,-20,-7,-2,5,16
7095,21,0,-10,-14,0,-2,-11,-28
7100,-65,-3,-3,49,6,1,-8,-34
7105,11,-6,-25,14,-5,1,13,8
7110,-6,7,19,-52,1,0,9,7
7115,-28,7,8,27,-7,-4,-8,-17
7120,52,3,-12,-12,6,1,-2,8
7125,-65,-13,7,37,8,2,-8,-43
7130,14,5,-4,-41,-6,1,4,65
7135,13,-2,-3,17,1,-4,-5,3
7140,21,-3,-13,-58,-10,3,4,5
7145,35,-3,0,-12,7,-2,-7,-11
7150,20,7,-4,6,-16,-4,11,61
7155,-11,2,34,25,8,1,-2,-21
7160,34,-6,-27,-100,-19,-6,-6,-4
7165,18,-5,27,111,18,0,4,36
7170,-56,-13,-29,-65,-3,-2,-15,-89
7175,-2,-1,28,3,-7,-1,-1,38
7180,-4,6,-11,-10,-3,7,14,15
7185,15,6,10,30,6,-1,-8,3
7190,3,-3,2,19,0,1,-7,-24
7195,-13,8,-33,-4,12,3,5,-4
7200,10,-10,69,-12,-17,-10,-19,1
7205,-15,-1,-62,-56,-3,-1,13,6
7210,25,-10,7,36,-1,-2,-13,-22
7215,-45,-8,-28,-13,0,4,17,37
7220,8,9,27,24,8,1,6,7
7225,-16,-7,-18,-49,-14,-7,-8,-43
7230,98,18,-18,85,11,10,19,74
7235,-13,-11,6,-80,-14,-4,-7,15
7240,-8,-3,50,113,12,-5,-3,-8
7245,-10,1,16,-15,-6,-3,-5,1
7250,-4,-4,-65,-77,-1,3,3,-22
7255,27,0,-18,38,8,3,-8,-10
7260,-12,-9,5,-62,-28,-15,-27,2
7265,-12,27,60,-11,10,7,31,-19
7270,-38,-12,-14,6,1,-3,-2,29
7275,-10,-5,-24,48,-2,-7,-4,-30
7280,-11,-1,-36,-77,-6,-1,-7,-4
7285,13,0,20,65,6,4,-4,15
7290,-23,3,11,-2,8,2,-21,25
7295,75,12,7,7,-19,2,45,-30
7300,-31,-4,28,34,1,-7,-11,4
7305,24,-4,-18,25,-12,-3,-14,13
7310,38,18,19,2,18,4,8,-25
7315,-3,-4,2,41,-3,1,-12,-2
7320,33,-17,-35,-30,-10,-8,4,-13
7325,-23,24,1,0,8,12,13,24
7330,-1,-5,-14,-41,-20,-13,-45,-32
7335,-30,4,15,-66,6,-3,-4,-12
7340,0,-2,-12,53,9,2,42,-13
7345,-34,-13,-19,37,-1,-4,-7,2
7350,-1,-1,-17,-22,4,6,-4,-3
7355,4,16,4,-19,1,3,-2,-20
7360,-11,-5,-9,-101,-7,-3,-6,19
7365,50,-3,38,101,21,3,6,6
7370,-3,-2,0,-38,-17,-6,9,-1
7375,-38,-10,-23,8,0,1,-21,19
7380,40,19,14,115,24,10,10,-3
7385,-28,-5,-47,-128,-16,-4,-10,-6
7390,30,2,71,127,-5,-11,-7,-53
7395,17,-11,20,-79,-4,-6,-1,44
7400,-21,0,-37,-13,11,11,2,-3
7405,-17,-14,-28,-34,3,-2,-6,-24
7410,20,15,16,9,-10,-1,18,15
7415,-14,-5,-25,-30,-18,-8,-30,-46
7420,52,3,39,38,6,0,15,19
7425,0,1,14,38,7,-1,-2,-2
7430,22,-10,-2,-17,10,10,3,1
7435,-20,7,-36,4,13,0,1,3
7440,-18,-8,-8,-33,-25,-8,-10,-17
7445,-16,-4,7,35,-3,-3,-19,30
7450,-28,-3,16,19,5,-1,52,23
7455,44,12,6,-12,2,3,-12,-36
7460,23,17,-25,-21,2,3,-1,2
7465,37,-1,-8,-31,-8,-2,-25,19
7470,-24,-3,47,81,4,-5,25,-4
7475,-63,-15,6,21,-5,-4,-4,-16
7480,34,31,-22,-37,-3,2,3,36
7485,46,21,18,-12,10,8,16,20
7490,-42,-10,-10,41,-14,-6,-5,-27
7495,-8,-28,-72,-31,-20,-8,-3,-1
7500,-11,-5,-7,11,10,5,-16,-23
7505,5,0,37,47,-5,-9,5,9
7510,27,2,-32,-3,16,6,-14,7
7515,7,13,52,83,14,7,15,-5
7520,36,-7,12,-84,-13,-5,0,-10
7525,-15,-7,-66,-67,-13,2,-4,-1
7530,-42,-12,28,28,3,-4,-2,-24
7535,55,5,6,54,13,10,5,32
7540,-1,-1,-6,32,4,-1,-16,-27
7545,-32,2,24,39,10,8,29,5
7550,-54,10,6,-72,-6,-3,-18,-12
7555,48,0,-16,-67,-12,-8,28,18
7560,-37,-7,16,47,13,7,-6,-3
7565,76,-1,1,-14,-7,-1,13,-32
7570,-52,1,-25,9,-10,-3,-15,-10
7575,-3,9,38,30,8,-1,-6,52
7580,-27,-1,-49,30,7,5,7,-7
7585,6,-17,25,9,-19,-16,-23,-24
7590,-2,-9,17,51,10,1,13,-12
7595,2,1,-25,-13,-19,-8,-2,20
7600,-30,-16,1,-16,1,1,4,9
7605,-19,-1,30,82,-3,-3,-13,11
7610,-2,17,39,40,24,8,-17,-6
7615,43,-20,-38,-74,-31,-13,4,-27
7620,-18,0,-17,31,-5,-1,6,10
7625,-30,5,-17,43,11,4,1,-12
7630,13,-6,-16,-106,-11,-2,-12,38
7635,-4,11,51,120,22,7,13,-28
7640,44,-3,8,-25,6,-1,5,2
7645,-86,-7,-17,-77,-17,-12,-17,-25
7650,-59,-29,-46,23,-4,1,3,33
7655,-27,1,26,-35,3,3,1,-2
7660,2,-5,-8,86,7,0,-1,-47
7665,4,-18,-23,-95,-14,-4,9,54
7670,39,-1,-59,-61,-3,3,-8,-9
7675,-33,-3,-3,109,-7,-11,-25,-13
7680,-17,11,50,-41,7,6,12,-6
7685,21,3,17,77,19,3,-2,-4
7690,32,13,-43,55,-12,-3,24,12
7695,20,-1,32,-7,12,6,-8,-10
7700,34,1,-6,92,-22,-11,-6,13
7705,-63,-8,-29,-107,-25,-8,2,-21
7710,-27,-2,24,-11,17,6,9,22
7715,-36,-4,6,94,9,-2,-7,-37
7720,12,11,-15,55,27,10,6,44
7725,3,-4,16,-29,-10,0,-8,-14
7730,41,-2,-5,-128,-35,-15,-29,-50
7735,-65,-13,-14,-48,8,5,26,13
7740,-3,5,25,18,-7,-3,7,22
7745,-6,6,6,28,12,4,2,-4
7750,68,2,-16,-20,10,0,-3,-31
7755,104,25,1,5,-7,-5,-14,23
7760,-87,-29,-29,-85,-27,-7,-5,-52
7765,24,16,43,34,8,3,-12,16
7770,-27,-4,3,-28,-1,1,16,23
7775,12,-3,-44,-49,-9,1,-4,4
7780,6,9,48,72,12,-1,-24,-18
7785,-41,-18,-37,-17,-9,-2,21,-20
7790,1,7,35,-16,-8,-6,-14,10
7795,3,3,-2,83,27,11,4,-19
7800,-6,1,-41,-128,-20,-3,2,21
7805,10,-1,37,102,11,1,-7,1
7810,19,-1,-29,9,-2,1,-4,4
7815,-69,-14,2,-14,-10,-10,4,-5
7820,101,13,7,0,11,6,-1,27
7825,49,4,-2,-31,14,5,17,-7
7830,-17,-19,-31,18,-4,0,-11,5
7835,12,10,30,29,16,6,12,-4
7840,-34,-1,-32,-73,-37,-12,-18,-39
7845,94,-19,-7,95,-4,-5,7,33
7850,-18,14,23,-11,-12,-7,-19,25
7855,-20,-14,-74,-116,-13,6,21,8
7860,-7,3,44,37,10,-3,-10,-43
7865,-50,3,5,7,-3,-9,-36,48
7870,33,8,26,49,12,3,35,-21
7875,15,-2,-29,-73,-11,-1,-16,21
7880,-39,-14,-26,5,-6,-4,4,16
7885,-56,4,11,40,4,3,-22,-33
7890,56,-4,35,19,1,-4,6,-24
7895,-12,2,48,17,8,1,3,-1
7900,35,-2,-41,-22,4,4,21,-10
7905,25,8,-10,21,3,-1,-6,25
7910,-20,-12,3,-39,5,2,-8,-17
7915,-8,-13,4,19,-16,-5,-22,-27
7920,26,19,-2,91,20,7,41,81
7925,-23,10,6,-28,-3,1,10,-18
7930,-37,-8,-29,-42,-16,-5,-2,8
7935,10,9,38,50,-1,-5,-16,-14
7940,-18,-15,9,28,6,-6,-60,-17
7945,40,-1,-50,35,16,8,35,-25
7950,7,11,-32,-90,-15,-3,20,14
7955,-2,4,48,64,23,2,-11,-17
7960,-11,-13,-29,-106,-29,-8,-17,17
7965,-19,-15,-4,-7,-6,1,33,-7
7970,6,3,7,56,-8,-9,-25,-20
7975,41,10,38,78,15,1,-1,-3
7980,32,20,22,-41,25,8,13,13
7985,-27,-7,-23,-35,3,4,-14,-31
7990,17,9,29,70,-4,1,-12,15
7995,-32,1,-12,-75,-17,-5,22,4
8000,-51,-9,12,-3,10,3,22,9
8005,40,26,-3,39,3,-2,2,29
8010,80,3,1,5,11,2,-21,-44
8015,22,-16,26,16,1,-2,10,90
8020,-14,-6,3,27,-7,-4,-4,-20
8025,-8,-11,1,-102,-13,0,1,3
8030,67,-4,9,52,12,-2,-1,-19
8035,-71,0,-57,-66,-14,0,2,-18
8040,22,-6,24,19,-14,-7,-3,-17
8045,6,0,-17,12,11,4,-4,-1
8050,-3,-8,-24,-71,1,5,11,15
8055,21,-4,5,76,6,-4,-14,-22
8060,-23,-15,14,14,0,-1,0,-10
8065,-2,21,-11,-67,-15,-5,-7,49
8070,-23,-2,-3,-4,3,2,9,2
8075,-11,2,-6,-34,0,-2,-10,28
8080,19,-15,-5,55,4,-6,-10,-56
8085,33,23,8,1,-3,-4,-5,12
8090,-114,-18,23,43,5,-2,11,0
8095,44,21,-33,-105,-19,5,8,1
8100,20,11,44,-48,-5,-6,-10,-12
8105,0,-15,-17,-15,-4,-1,-2,-3
8110,-4,8,-67,-31,5,4,-15,-52
8115,14,-4,45,118,-2,-7,-7,57
8120,-34,-11,-2,48,14,2,4,-4
8125,-1,9,29,-35,-13,3,-10,-16
8130,-33,-3,-20,-15,-11,-8,4,-20
8135,48,0,-23,-59,4,2,2,13
8140,10,8,-3,51,20,10,11,18
8145,-24,-1,41,41,3,-4,-7,-11
8150,28,-11,-6,23,-2,-3,-6,19
8155,-9,-5,-13,-12,-15,-4,13,-33
8160,-14,6,-45,-24,9,4,-11,5
8165,-96,-10,4,7,13,2,3,-26
8170,61,7,14,-11,-10,-1,-4,44
8175,-65,-3,15,-36,-2,-2,-1,-13
8180,0,5,-35,-102,-13,2,-1,-12
8185,28,1,34,84,7,1,23,50
8190,-13,-15,11,-36,-25,-14,-23,-26
8195,-4,-18,-49,-17,0,-1,2,24
8200,63,31,11,42,1,1,1,-10
8205,-1,-19,5,-24,-2,1,-13,-17
8210,15,5,-7,67,27,7,24,32
8215,-37,-5,42,63,-9,-4,-14,-59
8220,10,-9,-18,-81,-23,-9,9,19
8225,20,-4,5,37,-7,-2,0,2
8230,18,18,12,19,7,2,-7,12
8235,-2,-4,10,104,19,2,7,-26
8240,-36,-14,-25,-30,-14,0,2,14
8245,5,-1,-43,-128,-5,-3,-6,-13
8250,-41,-2,10,17,-11,0,-1,0
8255,92,14,-21,-92,-16,-6,-7,8
8260,-19,8,19,104,16,0,-6,1
8265,6,-9,-8,44,1,1,19,-45
8270,34,-1,23,47,2,3,10,14
8275,-7,6,-16,-41,12,5,-5,-18
8280,-26,-15,16,36,-9,-6,1,-9
8285,10,9,-1,18,4,-7,-23,19
8290,-10,3,-28,-50,-3,1,7,-17
8295,-39,-10,0,52,6,1,9,2
8300,16,11,-15,-86,1,4,-2,7
8305,-1,-9,14,40,0,-1,-10,-8
8310,-36,-3,46,69,-2,-7,0,8
8315,7,8,-8,3,5,0,-9,5
8320,-21,-11,-7,32,2,0,2,6
8325,33,12,-19,23,19,6,2,-22
8330,23,1,-2,-56,-14,-3,-13,10
8335,-18,-18,0,31,-10,-3,12,-28
8340,-1,-2,9,61,14,4,2,-9
8345,64,3,-20,-112,-22,-5,5,35
8350,-68,-2,-21,61,10,5,-7,-4
8355,-13,4,40,-32,-9,-4,-14,-9
8360,30,-8,-30,7,2,0,6,0
8365,-3,-12,11,-20,-18,-5,-12,1
8370,-47,-22,-32,-73,0,-1,7,3
8375,-17,5,-1,13,-2,-2,-2,2
8380,16,9,35,99,10,1,1,2
8385,-9,4,-22,-64,-2,-1,-3,4
8390,17,4,-15,-5,4,1,1,7
8395,-24,-3,2,-69,-14,-5,-9,-41
8400,17,-3,30,-24,-7,-3,-1,22
8405,4,6,-6,37,23,6,-9,7
8410,-3,6,28,-86,-37,-15,10,-73
8415,62,8,-20,25,10,4,1,93
8420,-82,-13,6,-11,-5,-1,-2,-6
8425,-4,-1,-11,9,2,2,9,-4
8430,-7,2,15,66,17,3,-10,7
8435,1,-5,-8,-51,-7,-4,-3,-14
8440,22,14,12,2,8,2,1,-8
8445,-15,-12,-4,95,-8,-15,-41,-5
8450,16,-10,-7,-42,-1,7,28,63
8455,-10,-12,21,79,-5,-6,4,-26
8460,-37,-11,-7,-69,-22,-11,-10,14
8465,8,13,24,34,11,3,3,-31
8470,11,0,-6,16,6,1,-7,5
8475,10,9,-2,13,8,5,0,1
8480,-12,-1,-2,-13,3,3,4,-12
8485,-19,-9,-10,-29,-11,-3,5,-8
8490,2,6,14,30,-3,0,-6,7
8495,-16,0,-13,-34,6,3,2,3
8500,7,1,-1,28,5,-2,-3,-9
8505,20,21,18,-53,-9,-2,5,0
8510,28,-8,-44,47,-20,-1,6,25
8515,15,-2,-7,-117,-35,-14,-14,-63
8520,38,9,20,40,7,1,1,68
8525,-6,0,19,49,12,5,8,-8
8530,-18,5,13,24,22,6,1,-9
8535,-8,2,-17,14,8,4,-5,-7
8540,10,-2,-12,-10,-13,-3,1,-17
8545,-2,-2,0,-15,-4,-1,7,6
8550,-6,-1,1,-11,-1,-3,-6,-6
8555,0,-6,-7,17,5,3,-1,18
8560,-6,-2,-9,-25,0,-1,2,-12
8565,-13,-4,-4,44,21,7,7,7
8570,-10,13,12,-41,1,6,4,-37
8575,-61,-34,3,117,-11,-24,-33,26
8580,73,3,-47,-64,-41,-3,15,25
8585,-8,-6,-8,-16,3,1,0,-16
8590,-7,4,16,68,17,4,-2,6
8595,4,14,15,11,30,13,1,-26
8600,-5,-4,-3,3,2,-2,-6,-18
8605,-7,-10,-17,-27,-18,-7,0,16
8610,5,-3,-10,-10,-2,-2,-1,-9
8615,16,8,-12,-4,10,9,11,10
8620,13,-1,84,-7,-1,-19,-27,-75
8625,-32,-22,-66,-58,-39,0,26,59
8630,-49,9,57,110,-3,-5,-12,0
8635,48,16,-27,-40,-2,2,13,59
8640,-6,-8,-17,9,4,3,-3,-27
8645,86,1,20,5,13,-3,-8,6
8650,-69,-8,-10,49,10,0,0,0
8655,17,-6,-22,-68,-8,1,2,9
8660,-47,-1,9,41,10,9,6,-83
8665,25,13,38,77,27,8,2,23
8670,62,-10,-31,-99,-44,-15,1,41
8675,-37,5,31,90,5,0,0,2
8680,-7,-3,-29,-11,5,5,7,18
8685,-26,0,-2,5,5,-1,-6,-47
8690,23,2,66,68,13,-1,-4,-32
8695,-56,-11,-44,-15,4,5,7,26
8700,-17,-4,8,-33,-23,-12,-9,29
8705,-14,2,-3,-52,-10,-1,-3,-9
8710,-33,-10,-1,-6,6,-2,1,1
8715,52,20,6,4,-12,-5,-7,36
8720,-9,3,-29,15,11,6,10,-14
8725,25,-1,10,52,-3,-3,-1,64
8730,19,-2,-5,-128,-7,-2,-2,-27
8735,35,-1,10,54,7,-1,-6,-45
8740,-68,-28,-5,5,5,1,3,10
8745,-12,15,24,86,-4,-3,-3,-36
8750,28,-10,-36,-90,2,4,0,7
8755,34,2,41,61,-7,-9,-8,-25
8760,26,1,-43,-45,-14,-1,0,27
8765,-2,-8,-16,-35,-3,-2,1,-24
8770,-7,-1,-7,90,14,4,-2,6
8775,-21,8,23,67,11,4,1,-21
8780,17,0,13,-59,-7,-5,-7,5
8785,-39,-1,28,37,-2,-5,-8,-21
8790,19,16,-38,-80,-2,3,5,-30
8795,-71,-22,-20,-54,-6,-1,3,17
8800,34,0,9,54,0,0,10,32
8805,59,24,-14,-82,3,3,0,18
8810,-62,3,9,26,-1,-6,-4,6
8815,-2,-9,-17,-63,-7,-5,-6,-46
8820,5,4,17,31,17,5,1,38
8825,-9,-9,-19,-4,-8,-2,-5,-27
8830,39,-2,3,7,-7,-5,-8,27
8835,28,3,-6,-30,-1,3,4,-29
8840,39,12,2,-54,1,3,13,80
8845,-53,-20,9,69,-2,-9,-7,-69
8850,30,5,-18,33,2,-1,-3,31
8855,-40,-9,4,-71,-1,1,-4,-3
8860,9,10,-20,14,3,-2,-6,-37
8865,19,6,15,58,16,6,4,-4
8870,-21,-12,-12,-19,5,-2,-6,-14
8875,35,14,-7,-47,-28,-1,21,10
8880,1,2,3,-29,-5,-2,-2,1
8885,36,-1,5,25,1,2,5,26
8890,2,-5,15,62,11,-1,-6,-15
8895,12,3,-8,24,11,1,-4,5
8900,13,5,-1,-5,0,0,-6,-19
8905,-37,-7,-13,-13,-5,-2,-4,-5
8910,3,-2,-5,-29,-5,-1,7,5
8915,25,2,-6,30,14,5,0,9
8920,-31,1,28,40,3,3,-2,-40
8925,-26,-27,-43,-125,-20,-15,-9,-23
8930,-18,-7,-56,-43,-28,-4,1,93
8935,-10,-8,8,-57,2,1,-3,-24
8940,-15,6,13,93,10,1,1,-13
8945,-1,8,0,-67,2,4,1,3
8950,21,2,22,23,2,-2,-8,-32
8955,-24,-6,-7,51,12,1,3,2
8960,-7,-1,-12,-37,-9,-2,-5,-6
8965,28,0,1,2,-5,0,0,29
8970,-32,-18,2,2,1,0,0,-21
8975,-42,11,15,117,16,3,1,11
8980,40,-15,-52,-78,-11,-2,-2,-16
8985,-49,-1,50,99,-30,-20,-17,-80
8990,33,13,-13,21,2,6,22,94
8995,18,7,49,87,5,-2,-7,-19
9000,-7,2,-35,-84,10,4,0,-15
9005,-52,-7,-26,2,-1,2,2,-11
9010,-50,-15,29,-5,8,1,-7,-49
9015,54,0,-49,-95,-19,-3,0,16
9020,-43,-5,48,51,-14,-14,-5,13
9025,18,5,-21,-115,10,10,6,18
9030,8,-2,-1,55,-4,-1,-1,-33
9035,-21,-8,36,32,8,-2,-6,2
9040,-18,10,18,60,1,0,-10,-61
9045,19,-5,-9,-2,2,2,8,90
9050,-3,4,-8,-34,6,5,11,4
9055,-8,-2,-38,-59,-12,-2,-8,-30
9060,-11,-1,-16,9,5,2,3,-4
9065,18,8,38,28,0,-2,-8,-12
9070,26,13,-30,24,15,8,1,-34
9075,-7,-16,-13,-74,-32,-9,-4,5
9080,-3,2,61,114,-2,-8,-11,-3
9085,11,1,-9,3,8,6,-2,7
9090,4,3,35,32,7,-2,9,-18
9095,-26,0,-18,16,5,7,5,-10
9100,34,-1,-25,-66,0,1,5,46
9105,-48,-12,-17,-67,-13,-5,-4,-21
9110,59,-3,38,58,3,-2,-12,-27
9115,56,9,37,48,19,2,10,47
9120,-51,-7,-45,-87,-25,-3,-5,1
9125,-5,5,28,81,6,-3,-3,10
9130,-66,-5,-17,-82,-2,2,6,-2
9135,15,-4,37,79,6,-4,-9,-31
9140,21,1,26,2,10,0,-5,-29
9145,28,5,-30,-70,-9,2,7,13
9150,37,12,-11,-19,-10,-5,-5,-34
9155,-32,-14,-23,-61,-3,-1,-5,0
9160,10,-7,8,39,-5,-5,5,42
9165,-7,-1,28,74,13,2,2,-26
9170,-3,2,-24,-53,4,-2,-12,8
9175,-2,-2,9,75,-10,-5,3,-30
9180,41,4,-2,6,3,3,7,47
9185,-45,-11,-3,10,3,3,2,19
9190,2,0,-29,-8,-11,-3,-6,8
9195,32,14,17,-89,-10,-3,-1,0
9200,-27,-10,-10,48,4,0,-5,-8
9205,19,-2,21,25,6,0,2,-10
9210,-37,-17,-17,-38,-9,-6,-4,4
9215,-1,2,-28,4,1,2,-3,4
9220,11,2,11,0,8,1,7,-5
9225,-31,8,-11,10,4,2,2,4
9230,21,-7,-4,-7,-8,-6,-6,-9
9235,-20,3,14,-45,3,6,1,6
9240,-9,-13,-6,-44,-12,-4,-7,-29
9245,12,2,-1,75,0,-5,-4,-2
9250,34,8,9,13,8,2,-5,-20
9255,1,-5,-11,-6,3,0,21,55
9260,-58,0,13,40,14,4,6,14
9265,-14,24,-9,-61,-11,-2,-9,-19
9270,-19,-8,-3,-10,1,0,-1,40
9275,13,5,30,54,0,-5,-10,-36
9280,42,-4,-31,-62,-1,2,-6,-24
9285,46,3,-21,16,-13,-6,6,-1
9290,-34,-5,34,12,8,3,4,-2
9295,-23,2,2,44,14,2,-4,-8
9300,-18,11,15,-23,-2,-3,-1,8
9305,20,-19,-38,70,6,-5,-12,-8
9310,9,13,2,-70,-18,-1,2,-2
9315,-21,-5,18,38,-8,-10,-9,-3
9320,20,-7,6,14,4,3,2,-55
9325,80,-6,-16,-47,-5,-3,-6,43
9330,-6,0,-19,0,2,4,9,8
9335,-27,-15,7,57,-6,-2,-8,-25
9340,-12,4,-9,-17,1,-1,-4,14
9345,-7,-8,35,33,9,3,3,-9
9350,8,5,24,38,-17,-8,-5,-33
9355,-23,-4,-25,-35,6,3,-3,51
9360,63,14,6,56,7,7,13,3
9365,-68,-22,-43,-101,-4,1,11,62
9370,-3,-1,51,31,3,-3,-2,-11
9375,-12,9,-6,89,17,4,5,-8
9380,-12,-7,35,-26,-31,-16,-10,-20
9385,-49,-9,-22,-76,-4,3,-3,-5
9390,-32,7,0,43,9,3,6,29
9395,55,-2,-30,-85,-4,1,5,4
9400,-24,-1,-14,30,6,1,-3,2
9405,34,7,29,23,-3,-3,-5,-60
9410,4,-9,29,103,10,-1,-1,11
9415,-19,-4,-17,-125,-14,-2,4,2
9420,-21,6,1,89,14,4,3,8
9425,4,4,21,0,-6,-4,0,-41
9430,18,-8,-15,-35,-2,-1,-2,10
9435,13,0,1,-30,-4,-1,-1,6
9440,-6,-4,-31,-25,-1,1,0,4
9445,21,4,3,14,3,1,3,-9
9450,-57,-7,1,-9,-7,-3,-9,-19
9455,-30,1,-29,7,8,1,-1,-19
9460,-2,0,21,-1,-2,0,-2,24
9465,-12,-6,20,-2,-8,-9,-9,-15
9470,25,-8,-11,2,-4,-2,5,-12
9475,4,3,-7,-10,-2,0,-12,-36
9480,6,0,-11,62,5,5,11,34
9485,-3,0,-67,-92,-3,2,8,4
9490,4,2,-2,3,-4,-1,-2,20
9495,3,-5,11,7,-7,-2,-3,-17
9500,9,-3,7,29,5,-3,-13,-31
9505,-1,-1,8,-24,0,5,3,46
9510,55,2,6,47,1,-4,-3,-2
9515,-30,2,-8,8,2,-1,-8,-48
9520,8,-11,-7,-96,-19,-5,-1,60
9525,-2,2,14,28,1,-2,-3,1
9530,78,14,-31,-74,0,2,-4,-31
9535,-17,-8,8,41,10,5,8,29
9540,0,2,4,-5,-7,-5,-3,-36
9545,3,8,12,-58,-2,0,-5,-12
9550,42,-7,-5,4,-6,-5,-1,53
9555,18,6,-3,-19,3,0,-1,6
9560,-41,-13,14,51,-2,-2,-6,-32
9565,14,4,-8,44,9,6,9,18
9570,-41,-6,0,-37,2,-2,1,-35
9575,11,-5,-19,-36,-15,-5,3,44
9580,6,1,-13,-16,7,1,-7,3
9585,-4,-3,-1,33,1,-2,-4,-33
9590,-20,8,8,6,4,3,-5,5
9595,-31,-10,1,-38,-16,-5,8,-35
9600,27,5,-8,-8,3,-2,3,26
9605,5,-8,11,62,4,3,-1,24
9610,-91,-6,-16,-66,4,3,3,13
9615,26,2,38,86,-3,-6,-8,4
9620,-8,-3,-30,-39,-12,-5,-3,-22
9625,13,5,22,78,10,0,-3,-15
9630,6,4,24,71,12,2,0,-15
9635,-27,-10,-3,-57,0,1,-1,-5
9640,12,17,-11,10,-10,-2,3,16
9645,-8,-11,-29,-98,-20,-7,-6,4
9650,5,2,-19,-39,-2,1,1,-5
9655,13,8,22,-13,1,1,1,-16
9660,-17,-10,-29,66,13,-2,-4,24
9665,-17,1,18,-19,-3,-4,-6,-15
9670,28,3,-9,35,4,0,-2,-11
9675,26,-3,-23,-71,-7,-2,-2,19
9680,-8,-3,18,-4,2,2,3,-2
9685,21,7,5,84,18,5,3,-2
9690,-18,-18,-27,-31,-22,-8,-11,-20
9695,29,9,11,86,13,3,9,-24
9700,-50,-24,-6,-19,-8,1,4,-3
9705,26,26,10,-26,-4,-3,-3,8
9710,17,-8,9,62,0,-3,2,5
9715,-76,-22,-19,-35,0,-3,-11,-3
9720,5,5,-7,40,9,2,1,-25
9725,-5,-10,-5,-113,-13,-4,-4,-27
9730,-25,5,28,52,18,8,3,39
9735,36,9,-11,-41,-16,-6,-9,-49
9740,2,-2,3,-56,-3,-3,1,18
9745,7,2,-21,61,5,8,10,4
9750,-9,3,4,55,-3,-6,-4,-2
9755,24,-9,13,45,-1,-1,0,5
9760,23,9,-29,-13,19,8,-1,-17
9765,14,3,28,27,-18,-9,-4,34
9770,-46,-7,-7,-44,-10,-3,0,-20
9775,6,4,-4,59,3,1,-4,54
9780,0,0,-11,-44,-2,-3,-10,-24
9785,7,-4,9,33,4,0,-6,-36
9790,-14,-8,-12,-13,-4,-1,12,48
9795,-23,18,19,-8,-1,-2,-7,7
9800,-9,-9,-32,-68,-7,-1,-2,-82
9805,28,-5,-15,20,-3,0,-2,76
9810,-11,-10,17,65,16,0,-3,-20
9815,-15,5,15,-43,-14,-6,2,8
9820,109,21,11,4,-1,-1,5,21
9825,-49,-22,-28,-25,2,-1,-1,-18
9830,34,5,-20,-87,-1,7,7,8
9835,5,-1,23,69,-2,-3,-1,18
9840,-26,-2,38,98,7,-7,-7,9
9845,-16,5,-13,5,11,3,2,-34
9850,52,5,5,8,-10,-3,-2,26
9855,28,-2,-37,-45,2,4,10,-28
9860,5,1,10,17,0,2,4,62
9865,-24,-1,2,17,3,-1,1,-19
9870,-33,-3,11,-1,5,1,-12,-44
9875,18,-7,-17,-5,-3,-1,1,43
9880,-52,-11,10,28,-2,-3,-1,-8
9885,18,10,15,-3,0,1,2,-12
9890,-20,-4,-22,-33,6,4,-1,-5
9895,24,3,5,11,-9,-8,-4,-14
9900,30,0,4,1,-4,-2,2,5
9905,-8,-2,14,18,2,-2,-2,-3
9910,34,17,-2,-12,1,1,2,-7
9915,-18,0,19,45,14,2,-2,-4
9920,-16,-13,-58,-91,-18,-7,-8,-9
9925,-22,-8,17,-37,-10,-5,-6,4
9930,41,8,46,49,0,-5,-8,9
9935,-4,0,10,69,16,9,28,67
9940,14,-4,-10,-26,1,-1,-2,-20
9945,0,7,-24,-30,-1,0,-1,2
9950,-9,-2,11,99,5,0,5,-10
9955,7,-16,2,-93,-18,-8,-10,-24
9960,-29,2,31,28,6,6,6,34
9965,74,14,-25,-39,1,3,3,8
9970,-50,-14,-19,8,-8,-2,-2,-11
9975,5,-2,-12,36,9,0,-4,-2
9980,7,4,7,-67,-14,-3,-1,-15
9985,-9,2,24,80,17,1,2,30
9990,12,6,-32,-19,-20,-3,0,2
9995,-47,-10,16,7,4,-4,-9,-28
10000,77,11,1,19,0,-1,-3,-4
10005,-31,-7,-11,24,0,1,3,1
10010,3,3,-5,-56,-3,1,6,-32
10015,-26,11,10,29,18,7,1,38
10020,-22,-5,3,-17,-19,-9,-10,-26
10025,53,1,-1,-43,0,-1,4,-11
10030,-59,-8,-28,-53,2,0,-6,-17
10035,13,0,-14,-2,-8,-6,-9,-20
10040,-25,0,27,38,14,4,0,0
10045,31,3,-43,-10,-8,-4,0,13
10050,-24,-13,4,-22,0,1,-1,-25
10055,28,10,30,-6,-1,0,-5,28
10060,-15,-4,0,18,-3,-2,4,13
10065,-29,-1,12,-9,-1,1,-3,-28
10070,34,-3,-12,43,7,1,7,3
10075,11,-4,-22,-19,-17,-6,-7,3
10080,23,4,-8,27,7,2,5,47
10085,-26,-1,13,-7,0,2,-3,-9
10090,19,4,-5,-69,-6,-6,-2,-2
10095,-1,-2,-1,13,3,3,0,-12
10100,-29,-3,-8,23,8,2,-2,-29
10105,9,-2,-12,26,1,1,-1,2
10110,2,-5,-8,-97,-25,-9,-4,27
10115,-3,-4,27,78,4,-4,-7,-40
10120,12,6,12,-9,0,2,0,-12
10125,-29,-9,-16,6,-2,-2,1,26
10130,2,3,-3,15,4,1,-2,34
10135,9,-1,-23,-38,1,1,2,-20
10140,4,0,14,-4,3,0,1,-6
10145,-17,-5,8,15,-2,-4,-3,1
10150,13,0,33,91,4,-2,-11,-69
10155,30,-4,-24,-104,-15,-3,6,90
10160,-60,-1,-10,-14,-8,0,2,2
10165,-1,-5,20,18,-1,1,-6,-28
10170,6,2,-9,1,3,0,4,43
10175,-28,2,4,43,8,-1,-1,-40
10180,22,-2,-15,-23,0,2,0,3
10185,-7,-1,11,13,2,2,-1,-6
10190,10,17,16,18,7,5,2,2
10195,24,-14,-27,-53,-13,-7,-6,-24
10200,31,-11,-19,-47,-17,-10,-3,-2
10205,6,9,7,8,-4,-3,3,12
10210,-12,5,11,35,17,5,2,-1
10215,-15,10,-18,6,7,7,6,2
10220,-15,-1,17,47,4,-1,-6,-19
10225,-2,-10,-5,-27,-2,-1,-2,-13
10230,9,3,-10,-17,-1,0,0,9
10235,-9,-1,3,17,1,0,-4,-40
10240,-2,-2,3,2,2,-1,-1,13
10245,50,9,-10,14,0,2,4,40
10250,-102,-46,-50,-106,-46,-16,-2,34
10255,-11,-7,6,104,8,-2,2,-21
10260,20,-6,11,4,-1,-1,-6,4
10265,-26,5,22,40,7,-1,-1,-9
10270,38,13,13,35,13,4,-3,1
10275,2,1,-10,-42,-1,1,0,1
10280,-24,-1,-19,-55,-1,1,1,-7
10285,-7,-4,-1,63,1,-2,-3,-8
10290,11,2,15,-16,4,2,1,-14
10295,-14,-5,8,-66,4,3,-1,5
10300,-21,14,19,11,-7,-3,-4,-6
10305,2,-4,-25,-62,-10,-1,0,-21
10310,30,7,7,29,1,-2,-5,-16
10315,21,0,-9,5,7,2,5,13
10320,-10,-1,-3,43,10,2,-3,-14
10325,-12,-7,1,-12,2,-1,3,22
10330,17,4,20,29,-2,-1,-2,-4
10335,6,7,-35,72,0,1,-5,4
10340,-55,-28,5,-55,-13,-4,-2,-32
10345,-62,-6,15,57,0,-2,5,13
10350,115,17,-6,63,-2,1,2,-4
10355,-94,-10,27,62,3,-2,-4,9
10360,33,1,-9,17,0,-2,0,15
10365,8,-2,-5,-45,2,1,0,-11
10370,-20,-4,-9,-19,8,0,0,13
10375,-28,-7,-15,-39,-16,-5,-6,-37
10380,40,3,-7,-23,1,0,0,4
10385,-13,-8,5,-19,-5,-4,-5,6
10390,-11,1,14,8,2,0,0,-12
10395,11,2,2,1,-1,0,0,-16
10400,-5,0,-14,33,8,0,-2,24
10405,42,-5,-34,-63,-12,0,0,-24
10410,-29,-4,14,25,-5,-3,-2,17
10415,40,4,1,12,0,3,8,13
10420,6,9,4,43,6,-2,-4,-3
10425,0,-4,12,42,2,0,-2,-8
10430,-2,-3,-13,-73,-6,1,6,-6
10435,-5,5,7,52,16,2,1,4
10440,14,-2,3,-6,-10,-7,-1,1
10445,-23,-1,-9,-8,-10,-4,-5,-14
10450,26,5,-1,13,6,-3,-2,-6
10455,-16,1,13,22,1,1,-1,14
10460,-12,2,-15,20,1,0,2,4
10465,3,2,-24,-44,2,2,3,10
10470,-18,-3,60,32,-1,-4,-2,-13
10475,-18,-10,-66,3,-5,-2,-5,-5
10480,-7,-3,22,-54,-4,-1,-2,-11
10485,2,3,40,54,9,0,0,30
10490,33,2,-21,-39,3,3,4,27
10495,-30,6,30,-56,-6,-3,-6,-22
10500,-32,-15,-37,42,6,6,0,2
10505,2,-5,-17,-27,-11,-5,-7,-21
10510,-13,0,-13,-5,2,-1,-4,-2
10515,16,-7,2,20,-6,-5,2,-10
10520,7,-3,30,1,-8,-3,-2,-3
10525,-2,7,4,3,0,-1,3,2
10530,-26,-7,-10,12,9,1,-7,-10
10535,8,5,-20,-34,-5,0,2,2
10540,-2,3,14,14,-5,-4,-3,-2
10545,8,-3,5,32,1,-1,-2,4
10550,14,9,3,-9,-14,-9,-4,-28
10555,5,-11,-15,-28,1,5,11,29
10560,6,1,1,15,5,1,2,13
10565,16,-3,1,-10,-6,-4,0,31
10570,-44,2,-3,13,-1,-3,-6,-10
10575,-14,1,28,-9,3,0,-1,-15
10580,0,-6,-47,-59,-9,-4,-5,16
10585,-14,-5,11,6,0,-2,-3,-23
10590,-12,-3,-10,20,0,1,6,9
10595,28,2,5,-1,0,0,-2,-3
10600,-7,5,10,-20,-1,5,6,-5
10605,-24,-4,-26,28,1,-1,2,15
10610,27,0,27,-40,-8,-8,-10,-2
10615,44,13,-7,-16,1,-4,-2,0
10620,-12,-10,-16,-28,-10,-3,0,-12
10625,-19,-1,2,-10,-2,1,1,-8
10630,34,6,-19,33,9,5,0,-4
10635,20,4,8,-34,-5,-3,-1,4
10640,23,5,21,31,7,-1,-3,-6
10645,-13,6,5,-25,-7,-3,-3,-2
10650,-55,-11,-17,3,-5,-3,-3,-46
10655,5,-2,29,20,3,-2,-3,35
10660,2,-2,-5,45,1,-1,-3,16
10665,41,-4,-1,-42,-8,-2,-4,-15
10670,-41,-6,-2,8,2,1,-3,-3
10675,-9,-5,-19,23,3,0,1,-17
10680,-8,3,30,57,-4,-2,2,17
10685,55,2,-1,-14,8,-1,-5,-4
10690,-40,-11,-13,-23,9,7,-5,-5
10695,33,-6,-18,-67,-29,-10,2,2
10700,20,3,1,11,6,0,2,2
10705,14,9,6,49,7,4,2,-8
10710,-10,-4,-13,-1,-3,-2,1,7
10715,-113,-19,-11,-21,-1,0,-4,-8
10720,3,2,8,-13,2,0,-4,-20
10725,-26,1,-7,10,4,-4,-1,1
10730,0,2,-2,19,-7,-2,2,10
10735,58,1,-2,21,7,5,1,0
10740,8,11,-19,-51,-3,-2,2,1
10745,-31,-5,14,9,-4,1,-3,-18
10750,-8,-2,2,4,4,1,3,5
10755,21,15,14,13,1,-3,-3,35
10760,-3,-4,7,6,-3,0,-3,-28
10765,26,10,-9,-31,-2,0,-3,11
10770,25,-5,-14,-51,-6,2,8,17
10775,-5,2,8,46,-4,-6,-7,-21
10780,-2,-12,-32,-65,3,1,1,1
10785,-17,-2,13,59,15,2,-3,-8
10790,34,0,20,-58,-18,-6,-1,18
10795,-65,-5,-8,42,8,0,3,3
10800,7,-1,23,69,2,-3,-4,-8
10805,1,-3,4,-10,-7,-6,-6,-4
10810,10,-3,-12,-16,-2,2,3,-4
10815,32,3,37,21,12,6,1,-21
10820,87,7,-33,28,-3,-4,-3,19
10825,-69,-23,14,3,0,-1,0,34
10830,6,31,5,2,-7,-2,3,16
10835,31,3,-21,-56,0,3,-1,-11
10840,-32,-6,27,35,-10,-6,-4,2
10845,15,1,-1,-6,-2,1,0,-21
10850,23,-3,-12,16,7,0,-8,-1
10855,52,2,16,-10,1,1,1,-2
10860,-82,-3,-14,-30,0,1,0,0
10865,18,9,2,-43,-8,0,4,5
10870,27,-7,8,9,-7,-8,-3,22
10875,3,0,-29,-39,1,2,0,-17
10880,8,-1,17,-28,-10,-4,-2,-6
10885,-6,-5,-23,-26,-10,-3,-2,-4
10890,-29,3,31,59,19,5,-1,-16
10895,30,-3,-1,15,3,4,0,-12
10900,10,11,-35,-80,-18,-2,2,32
10905,-10,-7,-3,23,-3,-1,2,2
10910,-5,-1,3,-20,3,-3,-7,-53
10915,16,-6,-19,-3,-7,-3,3,64
10920,-70,-10,28,40,20,9,1,-12
10925,-13,-5,-17,8,-9,-5,-6,-17
10930,-3,-7,-40,-40,-7,-1,2,-3
10935,-39,-21,-6,-6,-3,-3,-6,-23
10940,26,6,4,-3,9,1,-2,-6
10945,-24,1,4,-16,-6,-1,5,1
10950,12,-2,23,99,9,2,1,2
10955,-35,5,19,-27,0,1,-2,0
10960,0,-4,-13,-9,-11,-4,1,-6
10965,23,4,-1,30,14,6,-2,-16
10970,-11,-4,-22,18,-1,0,5,7
10975,20,-1,1,-32,-20,-10,-9,-44
10980,25,-2,-4,58,21,10,9,48
10985,-15,3,-19,-54,-11,-8,-6,19
10990,44,-1,11,1,-6,-2,-4,-22
10995,-74,-12,-22,-18,0,-3,-2,24
11000,0,1,19,24,3,1,0,-22
11005,16,8,6,27,8,-1,-1,-26
11010,79,8,7,1,-2,1,4,34
11015,-22,-2,-2,1,0,-2,-2,1
11020,13,-1,-2,-11,0,1,-1,-18
11025,-13,-5,-24,-39,-6,-1,2,18
11030,-19,0,29,-3,9,1,-3,-9
11035,15,0,-21,-71,-22,-4,3,14
11040,-6,1,8,72,5,-2,-7,-30
11045,10,-1,-6,-2,5,0,-1,1
11050,-48,-10,-8,-6,1,-1,-1,-2
11055,25,12,49,73,11,-1,0,8
11060,-15,-15,-58,-20,-4,-2,-2,-15
11065,9,3,25,-71,-15,-6,-6,1
11070,-65,-10,-36,-20,-3,2,9,29
11075,0,6,23,49,7,2,0,-11
11080,1,8,3,-5,0,-2,-2,-8
11085,3,-6,-2,-1,0,-1,0,-2
11090,-3,-3,-12,-22,1,0,-7,-38
11095,9,5,16,29,-3,-1,3,60
11100,27,0,-16,-12,6,3,1,7
11105,0,13,14,12,3,3,2,-11
11110,6,-5,-8,3,-1,1,-1,-23
11115,-34,4,-10,-14,6,2,-4,1
11120,16,-7,29,25,5,2,-4,4
11125,-6,-5,-14,50,-3,-2,1,42
11130,-14,-4,14,-20,-4,-1,1,-20
11135,-22,-11,-8,-41,-11,-1,0,-7
11140,-18,-3,0,-18,-8,-7,-2,-2
11145,12,3,6,33,8,3,-2,-36
11150,-6,2,15,31,4,-3,-5,45
11155,9,2,-4,-62,-11,-4,-3,-1
11160,-19,5,12,-21,1,0,4,-8
11165,-25,-8,-17,25,8,2,2,4
11170,1,3,4,6,-2,-4,-4,8
11175,48,3,-12,90,4,-2,-5,-27
11180,-26,-4,3,-120,-14,-4,1,6
11185,26,5,8,-8,-4,-1,0,-1
11190,28,7,10,41,10,3,-1,10
11195,-4,-4,6,17,11,2,-3,-19
11200,-8,-2,-3,49,-6,-1,-1,2
11205,14,15,-2,-29,-4,1,3,-2
11210,31,12,-11,-29,4,2,2,7
11215,44,7,35,-18,-11,-5,2,-12
11220,-28,-8,-32,29,6,1,-5,-28
11225,-19,-4,13,13,2,-1,-4,-9
11230,-31,-6,-30,-59,-21,-8,-10,26
11235,24,12,2,54,13,6,15,-8
11240,8,-4,27,-53,-6,-2,-2,-2
11245,53,-1,-11,8,5,2,0,7
11250,-50,-3,16,87,3,-2,-4,-14
11255,-52,-21,-33,-44,-15,-12,-10,-11
11260,19,6,24,47,5,2,3,17
11265,-14,-8,-25,-40,3,1,1,-4
11270,10,3,-2,14,3,2,4,1
11275,17,3,-17,-63,-14,-3,-5,3
11280,-3,2,1,36,8,0,0,8
11285,-14,-2,2,-21,-2,-1,-4,-30
11290,5,-11,-17,-2,-5,-1,7,39
11295,-16,8,-2,-45,-11,-2,-3,23
11300,-44,-18,-1,17,2,-1,0,11
11305,-25,-7,-2,89,7,-2,-7,-3
11310,-38,-4,42,-30,-4,-6,-9,-28
11315,-2,-2,-27,-20,3,2,8,-3
11320,50,5,-20,-45,-8,-1,-5,-34
11325,-54,-6,29,32,-1,0,8,37
11330,-5,-7,-50,-53,1,-2,-3,-16
11335,1,4,-12,4,3,0,-5,-19
11340,26,3,32,28,-7,-8,-4,9
11345,17,4,25,2,-2,-1,3,2
11350,2,-3,2,-2,-3,0,-3,-18
11355,1,5,25,81,17,6,6,-16
11360,67,9,-30,-102,-8,-1,2,49
11365,-16,-13,20,53,-2,-5,-5,-8
11370,6,-2,-35,-33,-11,-2,3,2
11375,-14,-14,-7,6,1,1,-2,4
11380,-26,9,3,55,17,4,0,-16
11385,-6,-6,2,-76,-23,-4,-2,14
11390,11,4,20,51,13,0,-4,-23
11395,82,17,-19,-34,-11,-5,8,-1
11400,-37,-15,-14,20,5,1,1,-15
11405,-2,3,-17,-7,10,2,-2,-14
11410,-2,0,15,1,-7,-3,-2,-38
11415,-12,-10,-16,-39,-9,-5,-3,74
11420,4,14,34,51,5,2,1,-14
11425,40,5,-26,-38,-1,1,3,2
11430,-12,-6,4,-18,2,0,1,6
11435,-17,-6,27,44,2,-2,-6,-33
11440,13,2,11,29,1,0,6,22
11445,38,-3,-18,-78,-6,0,-4,5
11450,-47,-6,2,30,1,-3,-3,13
11455,-8,-4,34,8,11,5,2,-13
11460,-22,-10,-48,-18,-19,-9,-7,-3
11465,-12,3,22,31,3,0,1,-9
11470,25,6,-33,-25,6,7,6,13
11475,45,-9,-9,-7,-7,-8,-10,-10
11480,-32,13,16,51,0,0,-2,-18
11485,22,-2,-5,-28,-5,-2,2,18
11490,-29,-2,5,-1,-4,-1,7,-3
11495,-61,-10,10,8,11,4,3,23
11500,35,3,-38,-27,-6,-6,-6,-7
11505,13,-3,15,27,-3,-2,-5,-11
11510,-23,-5,15,37,4,2,-4,0
11515,-8,-3,-49,-93,-1,2,1,-30
11520,-20,-7,39,-18,0,-3,-4,31
11525,-34,-10,-31,-43,-9,-3,2,-12
11530,106,14,-1,9,0,-2,-2,33
11535,-83,-1,3,44,2,0,4,-14
11540,27,-2,-8,-44,-3,0,-3,-7
11545,-14,4,17,52,12,2,-3,-7
11550,-29,-10,6,-74,-5,-1,-1,-1
11555,29,14,22,84,0,-1,-7,13
11560,-89,-26,-49,20,7,1,3,-22
11565,39,-4,-1,-65,1,3,4,7
11570,16,-4,-3,11,-10,-4,-1,15
11575,3,8,13,32,12,4,0,3
11580,-18,-10,9,-45,-5,-1,2,-8
11585,-1,6,15,20,-2,-3,-3,4
11590,-3,-4,-13,-10,-10,0,-1,-2
11595,62,-1,-14,-66,0,-4,-8,-12
11600,39,0,9,96,0,0,5,19
11605,-6,-3,-4,-35,-5,-4,-6,-19
11610,-36,0,28,9,-2,-3,-4,21
11615,22,4,-20,-13,-5,5,6,-21
11620,36,6,22,60,10,1,1,24
11625,19,2,7,-55,-10,-2,-1,8
11630,-31,-7,-13,63,10,3,-4,-23
11635,9,23,43,6,12,3,8,-2
11640,-41,-4,0,-7,-14,-7,-7,-14
11645,5,2,-27,19,-2,1,7,-2
11650,47,10,4,-11,-2,1,5,16
11655,-54,-3,18,18,6,2,-1,9
11660,1,6,-42,-38,4,2,-2,-27
11665,-10,-5,17,2,-7,-4,-5,22
11670,65,10,-7,-5,6,3,4,-18
11675,-9,-9,-6,20,-8,-2,-3,8
11680,3,-1,6,-15,-2,-2,-5,-5
11685,-10,2,-4,24,7,1,-3,-13
11690,1,-6,9,-74,3,0,-2,-2
11695,-6,-2,9,37,-5,-4,-5,3
11700,-16,2,4,-21,-7,0,2,-8
11705,20,5,-3,93,13,4,2,13
11710,-13,5,0,-48,-5,-3,0,0
11715,4,-7,-4,5,4,-2,-6,-9
11720,15,16,-13,-49,-9,-3,-9,-12
11725,-3,18,31,32,11,6,8,18
11730,-38,-9,-40,-19,-11,-5,-5,-29
11735,-48,-13,-14,12,-6,-5,-6,43
11740,36,6,6,-47,12,3,0,3
11745,-18,-16,-16,-36,-18,-7,-3,-8
11750,13,12,20,50,7,0,-2,23
11755,51,0,-13,-34,-3,4,11,-4
11760,3,0,-9,33,9,6,2,-6
11765,-13,3,18,61,-1,-3,-7,-9
11770,-25,-16,-32,-103,-20,-9,-2,18
11775,20,-1,-4,53,3,-2,-5,-11
11780,-11,0,36,18,2,3,5,14
11785,-22,-13,-31,-39,1,-1,-6,-26
11790,29,5,-10,50,7,3,6,4
11795,6,0,9,-21,-18,-11,-8,-21
11800,-21,0,4,-13,4,0,0,8
11805,22,-1,0,-43,-17,-7,0,-1
11810,4,-4,-22,23,3,-2,-5,-10
11815,-6,-5,-12,-53,-2,0,0,7
11820,15,-4,13,24,4,1,-1,-44
11825,52,10,-14,2,13,5,6,43
11830,23,0,-9,-37,-9,2,1,18
11835,7,4,32,13,-5,-4,-4,-20
11840,27,-3,-50,-76,-14,-3,3,21
11845,-11,-1,23,61,13,1,0,-4
11850,52,22,8,14,-6,-2,-1,-18
11855,-32,-8,-3,-46,5,2,-4,5
11860,22,-11,-9,36,-3,-3,2,-21
11865,-46,-5,-10,-43,-7,0,2,32
11870,-17,2,34,85,4,2,-1,-10
11875,2,-7,-12,11,3,0,5,-10
11880,-27,5,46,64,2,-6,-8,23
11885,96,1,-40,-103,-29,-5,-5,16
11890,22,1,6,51,3,-4,25,-17
11895,20,2,-17,56,5,2,0,5
11900,-87,-14,5,-42,-1,1,6,-12
11905,21,15,32,43,17,0,-14,-53
11910,1,-8,-27,-22,-9,-3,-4,77
11915,-6,-4,34,24,-11,-12,-6,-57
11920,-13,7,5,0,0,2,-6,6
11925,-18,-12,4,-47,9,2,-4,3
11930,-62,-10,-33,-56,3,4,3,-37
11935,20,11,13,27,9,5,4,3
11940,55,1,4,0,-3,-4,-10,34
11945,-70,-16,-23,-16,-22,-9,14,-20
11950,-22,-3,-2,9,13,4,-8,-12
11955,62,-1,-31,-46,-14,-7,-10,17
11960,-25,-24,7,14,10,2,-3,3
11965,3,22,-9,71,5,-3,-3,-26
11970,2,-8,13,-85,-8,-4,-1,-5
11975,-52,-7,0,21,8,5,5,25
11980,-31,-4,-23,-74,-9,4,2,-40
11985,60,14,8,53,2,3,6,76
11990,-52,-1,64,121,17,1,-8,-7
11995,33,-2,-39,-11,2,-2,-10,-2
12000,-43,-9,-18,-59,-18,-4,4,-7
12005,-35,-17,-25,98,10,2,3,-30
12010,36,3,28,-43,-15,-8,-12,20
12015,-6,2,0,13,3,5,10,2
12020,35,11,-1,-23,5,4,7,10
12025,-15,-13,-4,-39,6,1,-3,-3
12030,2,4,5,55,-9,-3,-1,-19
12035,-27,-9,-8,30,3,-2,-7,-40
12040,27,14,-10,2,-13,-10,-4,49
12045,-75,-2,21,24,11,2,-15,-27
12050,13,-11,-32,20,0,4,0,1
12055,83,15,7,-111,-13,-1,7,45
12060,-47,-1,-16,-22,4,0,-5,-34
12065,-35,4,-5,23,4,4,-1,-20
12070,-18,-9,24,-45,-8,-14,-9,41
12075,-22,-14,-1,77,15,8,-4,-15
12080,26,-5,0,-46,-33,-10,4,-17
12085,65,17,-12,1,4,-1,-2,25
12090,-45,-2,-31,39,8,2,-3,-40
12095,-34,0,21,-57,2,0,3,7
12100,-6,3,30,37,13,1,1,-4
12105,36,-4,-23,-61,-14,-5,-1,-4
12110,73,19,0,-29,7,7,12,-10
12115,-19,2,8,6,-9,-4,0,43
12120,30,2,13,54,17,5,-3,8
12125,29,-5,20,8,-9,-6,-3,-22
12130,-92,-16,-25,-13,-9,2,2,-8
12135,-14,-2,-45,-54,-2,-2,-4,-22
12140,-61,2,30,19,9,1,0,19
12145,53,-10,-36,-73,-8,0,1,18
12150,9,-5,9,35,22,6,-2,-36
12155,-21,8,-7,-28,-42,-15,1,4
12160,-9,-4,-24,29,-1,0,-3,11
12165,-36,-4,36,8,-3,-2,2,-6
12170,19,8,17,78,11,-1,-9,-11
12175,-71,-21,-43,-97,-7,-5,-8,-4
12180,5,-4,-5,25,0,-1,1,8
12185,-31,6,35,100,13,4,1,29
12190,55,-6,-30,-116,-13,-2,2,-10
12195,-22,-1,34,127,2,0,-1,7
12200,45,-4,-3,-50,-9,-2,4,4
12205,-100,0,-14,69,9,0,-2,-35
12210,3,-5,19,-44,-10,-9,-4,-8
12215,-40,3,-24,-1,16,8,2,13
12220,94,19,26,47,0,-1,-4,6
12225,97,-6,7,40,13,4,-1,2
12230,-59,0,-33,-33,-9,-3,-6,-19
12235,55,-7,13,-12,2,1,5,-12
12240,-13,-6,5,38,8,-1,3,-30
12245,2,1,14,10,2,0,0,29
12250,40,7,-19,44,2,1,-7,34
12255,2,-1,0,22,7,4,-3,-23
12260,-1,-1,-9,-3,11,2,-1,-3
12265,-30,-25,5,-62,-33,-16,-13,-38
12270,-14,3,-15,-44,1,3,3,18
12275,2,10,27,4,-4,-4,-1,4
12280,32,7,-2,87,-1,-4,1,-35
12285,13,12,-8,-53,4,3,3,43
12290,-20,-4,21,40,0,-2,-4,0
12295,17,-2,-34,-13,-1,-1,5,1
12300,-1,-3,-35,-30,-9,-2,-8,8
12305,-16,-15,5,-52,-11,-3,1,-27
12310,17,14,17,1,-3,-5,-1,17
12315,33,14,14,22,14,4,2,-1
12320,43,-10,-3,-75,-17,-6,-6,-6
12325,-76,-3,2,52,5,2,4,6
12330,17,6,11,39,-1,-2,-4,-13
12335,-15,-12,8,29,10,2,-2,-8
12340,-8,7,-28,24,-10,-4,-1,30
12345,58,10,-8,-88,-10,1,4,-6
12350,-78,-13,37,64,14,1,0,0
12355,-13,-14,-31,-12,-7,2,1,-28
12360,-9,7,10,45,7,2,-4,40
12365,-26,-7,-17,-67,-5,-3,1,-9
12370,53,1,10,-6,-2,3,4,1
12375,-2,6,30,36,8,-1,-1,7
12380,-49,-15,-15,-69,1,2,-6,-31
12385,1,2,-3,-4,-3,-7,-5,-7
12390,1,8,-15,18,9,3,1,-5
12395,49,7,18,-63,-16,-5,-8,9
12400,55,11,20,19,16,5,8,-24
12405,-68,1,21,29,-3,1,3,39
12410,17,-5,-31,-30,-4,-3,0,-7
12415,2,-15,-15,53,2,-4,-13,-56
12420,27,7,18,-55,-8,-4,3,58
12425,53,33,2,13,6,3,1,3
12430,-4,-12,-14,-25,-2,-1,-1,-4
12435,-26,3,33,57,5,-3,-2,2
12440,-8,3,-23,-14,-3,3,0,-23
12445,-69,-33,-25,-19,-3,-6,-1,-2
12450,-46,0,2,-18,-1,4,11,24
12455,36,3,-7,-30,-5,-2,0,10
12460,-35,-5,13,37,9,2,2,-10
12465,20,-1,-26,30,2,3,-4,-11
12470,25,-12,-5,-18,-14,-7,-10,-43
12475,-62,-4,11,-38,-1,2,15,41
12480,-42,-14,23,69,3,-3,0,-24
12485,36,-5,-66,-60,-9,-4,-5,-11
12490,-66,0,23,50,7,1,0,5
12495,14,4,-5,-52,-13,-1,0,-18
12500,14,6,-1,-35,1,4,-1,11
12505,56,14,17,57,10,0,0,-10
12510,-12,-14,-7,-71,-15,-3,2,17
12515,-37,-4,2,42,17,1,0,0
12520,0,12,3,-29,-19,-3,-3,-21
12525,54,-5,16,3,2,0,-6,30
12530,29,7,15,36,3,0,3,-4
12535,-15,4,27,25,10,2,-4,-10
12540,-31,-10,-51,15,-7,-2,-2,19
12545,-34,-5,4,-56,-14,-5,-5,-80
12550,29,8,5,-39,-2,1,2,77
12555,3,-9,-9,-36,-3,0,-2,11
12560,8,-2,23,58,12,-1,-6,-22
12565,30,12,21,28,1,4,0,-8
12570,-66,-18,-54,-53,-6,-6,-9,-21
12575,-19,-7,11,-17,-2,0,1,6
12580,-12,-6,-5,38,-9,-6,-5,3
12585,-25,-6,16,16,2,-1,2,0
12590,38,6,-6,14,1,-1,0,-3
12595,16,7,-34,-11,7,0,0,9
12600,-21,-12,-39,-69,-4,2,0,-12
12605,-11,-4,53,-16,-11,-7,-4,-15
12610,6,10,11,36,7,2,1,15
12615,4,2,-2,-3,-9,-4,-5,-17
12620,12,1,-15,2,9,5,4,14
12625,-41,2,-11,48,6,3,6,3
12630,38,7,26,-35,-8,-2,-5,-14
12635,15,-5,-18,-3,-3,-3,0,12
12640,-18,2,48,92,20,4,-2,-28
12645,1,-21,-32,-8,-19,-7,-5,27
12650,-30,-1,-2,-32,-12,-1,4,-17
12655,5,2,-11,-4,-4,0,0,0
12660,13,1,2,-8,6,0,-2,-5
12665,8,-5,-35,-54,2,0,1,6
12670,19,2,-7,43,6,-1,-2,-4
12675,-3,6,39,30,6,2,-4,-28
12680,-43,-8,-23,11,-8,-6,-1,-19
12685,-12,-1,23,-9,-11,-3,4,10
12690,-4,-5,12,12,2,3,-2,-25
12695,6,6,-9,17,-9,-6,-4,-7
12700,5,1,25,12,3,0,3,23
12705,-15,0,-5,18,13,3,0,-9
12710,7,9,-29,63,19,7,3,1
12715,28,-8,42,-83,-22,-6,0,-5
12720,-8,-12,-41,8,-3,-3,-7,-8
12725,-2,8,-13,-18,-8,-1,7,-22
12730,-21,0,9,1,2,0,-7,6
12735,14,11,-3,28,9,4,4,12
12740,11,1,1,-39,-7,-1,0,1
12745,-28,-2,-12,4,12,4,-2,10
12750,102,8,38,-13,1,0,-3,-19
12755,-57,-19,-34,-44,-16,-7,2,48
12760,19,-3,7,-13,-11,-5,-2,-11
12765,-6,2,12,34,6,1,-4,2
12770,18,-1,-8,-6,0,2,-1,-21
12775,3,1,-10,2,3,3,-2,-11
12780,-1,11,29,27,17,3,-2,-17
12785,0,0,-7,33,0,0,2,35
12790,27,-16,-38,-80,-50,-17,-9,10
12795,-19,2,6,117,9,0,1,-7
12800,-13,6,20,-9,1,-1,3,3
12805,15,6,5,80,22,5,-1,-31
12810,-45,-8,5,35,19,4,2,20
12815,-9,5,-21,-79,-16,-6,-2,-41
12820,72,1,24,-28,-6,-3,2,90
12825,-23,-3,-12,-22,-3,3,-1,-14
12830,18,3,20,-18,0,-1,0,7
12835,-61,-7,-21,13,4,1,-4,-37
12840,-13,-1,3,13,2,0,2,40
12845,9,1,8,-30,-2,-3,-6,-1
12850,41,17,15,38,18,2,11,1
12855,42,-3,13,-7,-12,0,-1,14
12860,-37,-11,-20,-51,-19,-6,2,-5
12865,0,0,8,-44,-11,-1,0,24
12870,-8,4,5,44,8,1,-6,-39
12875,16,1,0,32,12,2,1,35
12880,-2,2,4,11,7,4,-1,-43
12885,32,-9,-18,-29,-1,5,2,45
12890,-5,3,-9,1,-4,-6,-7,-3
12895,-13,-13,29,-3,-9,-6,1,-5
12900,11,-2,3,33,-4,-4,-8,-6
12905,-1,-4,0,49,11,0,1,-24
12910,-15,-8,-6,-11,-5,-2,-6,4
12915,15,10,-7,1,3,2,-1,14
12920,9,7,-2,13,8,4,0,-15
12925,19,10,-3,-10,-10,-4,9,14
12930,-76,-14,-31,-70,-14,-7,-2,-7
12935,25,3,10,86,1,-3,-3,-12
12940,-40,-8,-1,-26,-3,0,-2,-5
12945,4,4,18,13,5,0,-4,-14
12950,8,0,-18,37,6,5,4,6
12955,-2,-8,-15,-34,1,3,2,7
12960,27,1,-9,-10,-4,-3,-2,-12
12965,-25,-9,-4,69,14,3,0,12
12970,73,12,20,-68,-18,-1,0,-36
12975,-94,-33,1,43,-4,-6,-2,75
12980,20,22,-10,-64,-17,-5,-4,-20
12985,-4,-2,12,18,0,-2,-1,18
12990,-16,-16,-34,13,0,0,3,1
12995,37,17,3,-30,8,4,-2,-17
13000,-52,-9,-9,4,1,-1,0,-5
13005,26,0,18,-13,0,0,13,-6
13010,68,9,-5,60,6,6,8,64
13015,-27,0,-10,10,-11,-5,-3,-14
13020,-7,-16,-23,-42,-2,-2,-4,10
13025,8,0,-14,23,-15,-5,-9,-34
13030,-11,-4,41,2,3,-4,-4,-2
13035,29,10,5,22,11,5,4,-7
13040,7,-2,1,77,4,1,2,6
13045,30,6,-8,-110,-13,-4,-7,-8
13050,-77,-17,0,70,0,-4,-3,-22
13055,31,10,-8,-99,-3,0,-2,5
13060,-3,-5,-7,43,-2,-2,-2,29
13065,25,5,-12,-2,-4,1,-2,-44
13070,-45,0,-1,-12,-8,-3,-4,33
13075,7,7,20,2,-3,-6,10,-1
13080,26,4,-2,9,6,5,6,7
13085,-18,7,11,37,6,-1,-7,-16
13090,62,-18,0,-33,-1,0,-5,-8
13095,-9,0,-16,28,5,1,-2,-15
13100,-5,1,3,-18,-8,-3,0,12
13105,-33,-4,26,12,-4,-3,6,22
13110,-18,-1,-37,-35,-5,0,-2,-21
13115,24,3,-1,50,12,2,-4,-21
13120,11,0,20,-6,-7,-8,-8,-17
13125,-18,-7,27,48,7,0,-6,-20
13130,-21,2,23,24,5,-1,2,31
13135,6,-1,-39,-40,-4,2,0,-14
13140,-9,-1,1,-31,-1,-1,-3,-9
13145,8,-1,-21,26,4,1,0,3
13150,-56,1,22,-71,-4,-1,-4,-32
13155,28,-8,-1,58,0,-5,-3,48
13160,3,-5,0,18,-7,-4,-4,-26
13165,1,5,4,-5,1,0,4,40
13170,-8,-3,-5,26,9,1,-2,-15
13175,-19,13,10,-40,-9,-1,-6,-38
13180,41,3,-13,-35,-4,2,3,47
13185,16,-7,-20,-11,-1,-4,-8,-40
13190,-60,-1,6,46,-9,0,-1,0
13195,-8,-7,-8,-71,-6,-4,-1,4
13200,-18,-9,-7,20,6,3,4,-10
13205,-64,2,-2,28,0,-4,-8,-18
13210,19,6,0,-18,5,2,2,30
13215,16,-11,3,18,-6,-5,-1,3
13220,-2,15,27,32,4,2,2,-24
13225,7,-9,-5,-69,-12,-5,-1,28
13230,-17,5,-2,2,1,-1,2,-21
13235,42,3,-1,33,11,3,0,5
13240,-29,-3,-17,21,4,2,0,7
13245,2,-11,10,-66,-10,-2,-2,3
13250,13,-2,12,40,-2,-6,-2,-35
13255,-36,-6,-1,-5,-1,1,0,-7
13260,-11,-3,8,17,6,0,-2,-6
13265,3,6,-20,37,6,4,-4,-24
13270,54,-5,-23,-102,-12,-1,10,30
13275,-54,-15,5,30,-1,-2,-7,-8
13280,57,11,10,-24,-5,-2,6,-4
13285,-50,-6,-19,25,4,3,2,-10
13290,25,2,14,11,3,2,-3,-6
13295,-10,2,19,21,1,-1,2,8
13300,21,5,2,13,0,-3,-5,-21
13305,61,3,-17,-40,-5,2,11,27
13310,-27,1,15,91,-5,-4,0,27
13315,9,-2,-9,-25,5,-1,1,-12
13320,-25,-6,3,24,-4,0,-5,-23
13325,-13,-2,12,-13,-5,-4,-6,-10
13330,-6,2,-29,55,12,4,1,4
13335,24,2,13,-53,-4,0,-1,0
13340,-2,-7,-6,-29,-2,-1,-1,10
13345,0,8,22,67,13,4,2,15
13350,12,-4,9,-96,-22,-7,-1,10
13355,1,-2,-3,53,7,1,-6,-6
13360,-25,-1,-11,-52,-1,1,-2,-5
13365,0,-6,14,41,14,1,7,-13
13370,-47,1,-35,-25,-12,-3,0,28
13375,2,1,12,21,1,3,6,18
13380,-6,-4,1,-10,2,1,0,12
13385,-9,2,-9,-3,1,0,-2,-11
13390,14,-2,14,51,9,0,-12,-56
13395,37,-3,-32,-22,-5,-4,5,66
13400,-17,-6,9,-33,-15,-6,-3,-23
13405,11,5,-3,12,2,-2,-2,11
13410,84,5,-11,-4,-2,-1,2,26
13415,-11,-2,-11,-28,-2,0,-6,-23
13420,-8,0,-1,14,1,0,4,-5
13425,3,4,23,50,11,3,-2,3
13430,-34,-18,-23,-113,-24,-9,-5,-21
13435,-38,3,-4,2,-5,-6,-5,-27
13440,35,5,5,79,13,3,4,22
13445,-9,-10,-10,-123,-24,-9,1,-4
13450,-14,12,14,81,17,8,5,4
13455,-3,-1,13,64,-1,0,1,4
13460,21,0,10,-9,-9,-5,-8,2
13465,6,-4,-24,-13,-10,-5,-1,7
13470,5,-1,-10,35,5,1,-1,-13
13475,3,6,-8,-30,-1,2,0,-44
13480,-8,-3,-7,5,2,-1,-4,58
13485,3,2,10,12,-2,0,-1,-3
13490,10,1,-4,-33,2,-2,3,-2
13495,-5,-8,0,17,0,-2,-19,-80
13500,8,0,-17,-108,-14,2,13,33
13505,-12,-1,23,29,0,-3,2,-7
13510,-12,1,12,28,5,3,-2,9
13515,-25,-11,10,23,-1,-5,-5,-24
13520,-25,13,-9,26,7,-2,-13,-63
13525,-9,-2,-41,-15,-13,-1,3,85
13530,-20,-7,18,-43,-5,1,4,-21
13535,-10,0,8,-2,0,1,4,21
13540,32,-3,-8,22,1,-2,-1,-25
13545,19,3,-14,28,5,4,1,22
13550,62,0,-4,2,16,6,-1,-35
13555,-24,3,7,-26,-20,-13,-2,40
13560,1,-3,28,42,0,0,5,14
13565,-11,-3,-2,14,7,-2,-8,-39
13570,-2,-1,6,12,1,-1,-4,0
13575,17,6,-21,-37,9,7,6,-6
13580,10,-9,-31,2,2,-1,1,16
13585,2,-4,-3,-79,-13,-5,-9,-5
13590,-23,2,11,-15,-6,-4,-6,9
13595,25,3,7,39,5,2,5,6
13600,-27,3,-5,6,3,3,0,-2
13605,4,-9,18,-12,-2,-3,-13,-40
13610,-40,-7,-7,25,6,-1,5,-5
13615,3,25,0,-68,-27,-1,14,66
13620,7,-1,-16,-12,-6,-3,-3,-5
13625,4,3,-3,49,3,0,0,-7
13630,-6,3,16,13,5,0,-4,-25
13635,-3,-10,4,31,7,-2,-6,-10
13640,10,1,-19,-4,-1,2,1,1
13645,-8,5,16,78,6,0,1,-9
13650,7,-8,-26,-59,-16,-6,-4,18
13655,21,-4,-11,48,-1,2,2,-3
13660,-8,-6,1,-37,-5,-2,-3,-19
13665,-2,0,0,20,10,3,3,19
13670,0,2,9,37,-3,-4,-1,-4
13675,1,-9,2,-59,-3,-3,-3,10
13680,-15,3,5,11,5,3,0,-16
13685,-9,-2,-6,-24,0,-1,-1,0
13690,5,4,-13,-52,-7,-2,0,-4
13695,8,2,0,-9,2,2,2,4
13700,-17,-4,-4,6,-2,1,0,-19
13705,4,-4,4,-16,-14,-7,0,45
13710,47,4,14,25,6,-2,1,-6
13715,1,-1,-3,6,9,2,-5,-32
13720,9,-7,19,-44,-6,-5,-4,8
13725,-23,1,-10,1,2,2,-1,-34
13730,-4,1,6,27,5,2,0,-3
13735,-1,-3,-30,9,4,-1,2,32
13740,-9,-2,32,-17,-10,-4,-2,-24
13745,39,9,-43,-11,1,-1,2,17
13750,-16,-3,26,30,-5,-3,-3,10
13755,13,10,6,40,15,7,1,-12
13760,-16,-14,-16,-59,-17,-8,-1,3
13765,-1,-1,35,33,6,-2,-4,-14
13770,-3,5,-18,14,8,6,0,15
13775,-13,-1,16,47,5,3,-1,-21
13780,28,10,-18,-22,9,5,-1,13
13785,-22,-17,-9,-24,-18,-11,-5,-22
13790,-23,3,4,-3,7,3,2,-46
13795,7,1,-7,-61,-2,1,-1,42
13800,0,-20,-31,-43,-19,-10,-4,2
13805,-3,0,5,-10,0,0,-4,-12
13810,-14,-2,1,22,1,-3,-8,-13
13815,-4,-3,-1,41,-1,0,-1,-40
13820,2,10,1,40,13,5,4,29
13825,-1,-9,4,-14,-3,0,1,7
13830,-18,5,-8,-19,-7,-6,1,17
13835,-6,-7,-13,-39,-11,-5,-1,-13
13840,-57,-6,9,49,2,0,1,-14
13845,20,8,-11,-9,6,3,1,1
13850,16,-1,10,16,5,3,1,25
13855,3,-6,-13,-20,-4,-3,-1,-2
13860,2,7,51,127,10,-4,-4,-16
13865,14,-4,-9,-47,-11,1,3,-2
13870,0,-8,-44,-41,-10,-5,0,10
13875,-24,2,5,1,-1,-2,-3,-12
13880,18,8,-5,14,8,5,-3,-21
13885,-1,1,22,38,1,-1,7,32
13890,-6,-1,-24,-57,-8,1,-3,1
13895,20,-12,-7,-7,-8,-6,-1,-7
13900,-7,5,33,58,8,0,-5,-52
13905,-14,0,-5,-11,4,4,1,71
13910,2,-4,-20,-2,-3,0,-3,-5
13915,-1,1,-1,-1,-3,0,26,-9
13920,-7,0,1,-21,2,-2,-8,3
13925,-42,6,10,27,4,-1,-12,-63
13930,91,2,0,19,10,5,9,-8
13935,3,3,-21,-91,-9,0,-5,83
13940,-16,-8,38,61,-8,-6,0,-5
13945,-10,-1,-2,9,1,0,-3,-45
13950,1,-1,-1,-33,-1,-2,-4,15
13955,-5,0,-1,35,12,4,-4,-28
13960,74,7,11,10,-4,-4,0,12
13965,-44,-13,-42,-58,-11,-3,0,17
13970,30,5,17,11,6,-1,-3,-15
13975,-11,-11,-10,0,-2,-2,-1,7
13980,-14,1,-22,5,6,4,3,13
13985,22,2,6,-42,-4,0,1,-20
13990,-19,-2,8,12,-5,-4,1,-22
13995,-7,4,43,62,5,0,-2,31
14000,20,1,-14,-100,-3,-3,-5,3
14005,15,5,-10,3,-4,-1,6,17
14010,-29,-7,12,0,-9,-2,-1,-4
14015,2,0,8,-28,-4,-3,-6,-15
14020,-11,2,6,24,0,1,2,9
14025,5,1,-3,-33,-1,-2,-5,-17
14030,44,4,12,-9,5,1,6,31
14035,-54,5,-31,17,-1,-1,2,-5
14040,0,0,-15,-32,-9,1,0,-5
14045,15,-2,-16,-16,0,0,5,22
14050,-23,-6,7,33,4,1,-4,1
14055,25,4,33,115,14,1,-2,-14
14060,21,0,-36,-87,-26,-6,-6,14
14065,-40,-4,7,65,8,1,-3,-4
14070,-33,-2,0,-9,2,2,0,-7
14075,7,-2,-18,8,9,3,0,10
14080,-29,-4,16,-24,-2,-4,-3,-12
14085,58,-10,-8,66,2,-3,-6,-12
14090,-32,-1,-5,11,-7,-2,-2,0
14095,-16,-1,8,-53,-10,-5,-11,-27
14100,-2,5,9,94,11,3,2,-13
14105,-12,4,3,-67,2,3,7,22
14110,-7,-1,-5,-16,0,-2,-1,0
14115,7,-3,5,-3,-8,-3,-3,-4
14120,0,-2,-8,-9,8,1,8,9
14125,-1,0,-2,36,-3,0,-4,-22
14130,-18,-2,22,57,-1,-4,-1,29
14135,22,3,-7,-52,-5,-1,-3,-27
14140,-11,-3,-12,1,6,2,0,9
14145,26,2,-4,-11,0,-1,-6,6
14150,60,2,3,19,4,2,2,-29
14155,-71,-15,7,-17,-5,0,2,95
14160,5,8,-9,10,-7,-2,-1,-19
14165,-2,0,10,-69,0,1,5,-11
14170,-41,-5,9,-5,-7,-8,-8,-12
14175,32,1,10,35,1,1,4,-5
14180,8,-2,-29,1,8,4,-5,4
14185,-19,2,29,-10,-10,0,8,0
14190,-1,-2,-30,25,-2,-1,2,14
14195,0,-13,4,-24,-10,-7,-4,-40
14200,0,-1,10,-39,4,-1,-1,15
14205,-2,2,-5,21,-1,-1,-4,2
14210,-5,5,-6,43,12,4,1,-2
14215,17,9,2,-60,-14,-1,-1,-17
14220,3,-13,-8,30,1,-4,-4,1
14225,32,-1,23,51,-2,-5,-8,-11
14230,-52,-8,0,-12,-7,-1,2,-1
14235,1,11,2,-42,2,1,1,-1
14240,-7,-2,-7,2,-1,0,2,-14
14245,7,1,-13,-11,5,0,-4,11
14250,12,12,17,9,3,3,2,43
14255,93,-1,-8,33,3,-5,-7,-61
14260,-105,-15,-7,-51,-16,-4,7,59
14265,14,-1,-4,7,2,2,4,-29
14270,0,-3,5,-6,-2,0,-7,-4
14275,-2,1,-3,-1,-2,-2,10,3
14280,36,4,-5,-5,8,3,1,-18
14285,-44,3,8,42,6,4,0,-3
14290,-21,-12,1,-57,-28,-13,-11,-7
14295,7,2,4,56,7,-3,-1,23
14300,11,-7,-6,-23,-5,1,3,-34
14305,-10,-1,-3,8,9,1,1,67
14310,14,3,-10,16,7,2,-2,-31
14315,-14,1,-5,25,2,0,-8,-15
14320,19,7,4,14,1,2,2,18
14325,7,-2,31,-77,-19,-9,-10,-44
14330,-34,-8,-6,13,-2,-5,-2,-15
14335,20,-8,-34,-33,-5,-2,2,45
14340,-10,12,-11,-43,0,3,2,-10
14345,-6,-5,-23,18,4,0,-3,-34
14350,16,2,15,15,1,1,8,84
14355,-26,-2,11,-17,6,2,-4,-26
14360,21,-1,-18,39,5,0,-7,1
14365,-14,-1,2,3,-10,-2,5,0
14370,44,-10,1,-17,1,1,7,-4
14375,-49,-3,-55,28,-5,-1,-7,-39
14380,-23,-9,31,-36,-13,-8,0,64
14385,21,4,6,42,10,0,-6,32
14390,24,5,8,16,8,3,-5,-42
14395,-11,0,17,20,3,2,-1,-3
14400,-8,-4,-9,21,-3,-2,-4,-42
14405,-11,-7,-25,-89,-15,-3,-4,23
14410,3,15,-22,26,11,3,4,-1
14415,7,1,57,6,-7,-1,20,42
14420,2,-1,-13,-31,-15,-7,-4,12
14425,-6,-5,2,31,2,-2,-7,-10
14430,8,4,4,-29,-1,2,8,-5
14435,2,2,3,45,12,4,-4,1
14440,13,6,30,-12,0,3,2,-7
14445,10,5,-21,30,6,3,5,-8
14450,-16,-8,3,-22,-11,-6,-9,-32
14455,0,4,1,16,6,3,6,24
14460,3,-7,7,50,-2,-2,3,22
14465,-21,-3,-5,34,-2,-1,-4,-20
14470,1,2,-5,-3,2,-1,-5,-18
14475,0,1,-8,-4,4,0,0,-18
14480,15,8,23,44,11,2,-3,0
14485,-9,-1,-3,-88,-15,-4,-5,-7
14490,89,-1,-17,7,0,-2,14,8
14495,-52,-3,-39,-64,-17,-4,-9,7
14500,-13,-14,-10,-10,6,-2,0,-1
14505,-28,3,7,37,8,-1,2,-18
14510,-17,5,16,-23,-1,0,-4,13
14515,31,2,10,8,5,-1,-4,-6
14520,5,3,2,36,2,0,1,-13
14525,-2,-4,-52,-35,-4,-1,1,-3
14530,-22,-15,5,-91,-7,0,-7,-3
14535,-44,-8,41,34,6,-5,-12,-54
14540,-6,7,-19,-25,-10,2,8,49
14545,21,5,26,50,-1,-3,-5,8
14550,-3,5,-23,13,2,2,1,40
14555,12,-1,-9,-2,0,1,0,-10
14560,-6,-1,6,-18,3,0,-4,-23
14565,7,-1,3,-4,7,2,5,-6
14570,-18,4,-8,30,1,0,-2,0
14575,4,4,-3,-42,-2,3,1,6
14580,8,-19,11,-38,-10,-9,-8,-17
14585,64,1,1,16,-2,-2,1,3
14590,-35,-27,32,78,2,-4,-10,-42
14595,-26,1,-32,-53,-14,-1,5,62
14600,16,8,-12,30,6,4,1,-12
14605,11,3,9,-23,4,1,2,0
14610,12,2,4,26,8,1,0,0
14615,19,-2,0,17,-4,-3,1,-19
14620,-1,2,-8,-25,-5,-4,-8,-60
14625,-30,1,7,39,7,3,7,83
14630,36,17,-11,-56,5,5,0,-4
14635,-1,-18,8,-59,-21,-11,-7,-18
14640,6,2,14,72,-2,-5,-2,16
14645,-10,-3,16,-25,-5,-1,-3,-48
14650,-24,1,-23,21,5,2,0,3
14655,49,7,-15,-7,6,2,-3,44
14660,-15,3,-1,-22,4,2,1,-21
14665,-15,-10,4,17,-7,-5,-4,-12
14670,-17,-4,14,-31,-9,-3,-1,15
14675,3,-1,-2,19,-1,-2,-3,-40
14680,6,4,4,21,6,2,0,25
14685,0,3,-19,7,11,5,2,0
14690,-21,-10,-8,-39,-17,-6,-2,-5
14695,40,-6,12,33,-2,-6,-2,-16
14700,6,-1,-24,17,5,2,-1,12
14705,0,-1,0,-20,-7,-3,-4,-2
14710,2,3,-4,-8,3,0,-2,0
14715,-7,0,2,20,5,3,-2,-9
14720,-5,6,1,-1,5,3,3,-34
14725,9,-8,2,-75,-14,-6,0,-42
14730,14,12,20,-12,-15,-5,-2,1
14735,-4,4,5,-38,5,1,4,31
14740,1,-1,-5,70,1,-2,-4,-23
14745,-9,0,5,29,7,4,-1,9
14750,5,2,-5,41,7,0,-2,-3
14755,12,3,-1,55,10,3,0,-12
14760,80,0,-32,-72,-16,-5,-3,10
14765,0,-13,4,-61,-5,-3,-2,10
14770,4,-6,-20,-18,-10,-4,-2,-8
14775,-14,-5,26,31,1,0,-7,7
14780,-13,2,12,14,3,-1,6,6
14785,1,4,-5,47,2,-1,0,5
14790,-5,-4,-12,26,9,3,2,-9
14795,-15,3,6,-57,3,1,-3,-17
14800,12,-9,11,-12,-20,-12,-6,5
14805,-53,2,-1,-69,-10,2,-2,24
14810,-16,0,35,81,5,-3,1,-1
14815,13,1,-6,16,4,3,0,-7
14820,-72,-4,2,6,8,0,0,15
14825,1,7,8,20,7,3,3,2
14830,13,2,-10,4,7,1,-2,0
14835,-2,-20,-20,-3,-5,-2,1,-14
14840,30,2,-5,-83,-11,1,-2,0
14845,-21,-3,-10,-45,-10,-3,2,-8
14850,-57,-1,-1,-7,1,1,0,3
14855,38,4,7,27,0,-3,0,-9
14860,-1,-3,-2,-1,4,0,-2,4
14865,25,2,-4,41,6,1,1,-1
14870,-4,0,-13,-6,-3,-1,2,-4
14875,-9,11,-10,30,12,4,2,7
14880,-30,-22,12,-87,-20,-4,-2,-1
14885,-43,-12,34,64,-12,-13,-8,-8
14890,0,-1,1,-5,-1,-2,-2,-3
14895,-19,-3,-24,6,-2,-1,0,-1
14900,15,10,-2,14,14,6,2,6
14905,19,2,-8,7,7,2,1,-10
14910,-1,-7,-3,-21,-5,-2,-3,-11
14915,-6,9,14,20,8,3,-3,-6
14920,66,5,-18,0,-5,2,3,7
14925,-50,-5,5,-64,-21,-9,-3,-19
14930,10,-5,6,57,2,-4,-4,9
14935,1,2,4,3,-6,-2,-2,-20
14940,-26,1,10,25,6,-1,-4,-16
14945,27,1,-10,21,13,4,1,12
14950,14,4,-13,-53,-6,2,3,-1
14955,-13,-3,7,-1,-5,-3,-3,-2
14960,-5,0,6,34,18,6,1,0
14965,67,-1,-27,108,-3,-5,-5,1
14970,-11,-9,4,-104,-39,-14,-10,-33
14975,6,-7,-17,19,-8,-2,3,24
14980,-23,-3,3,23,2,-1,-2,11
14985,11,7,9,39,21,6,2,-11
14990,-1,4,4,42,13,2,-1,-14
14995,1,-2,3,-35,-10,-4,-1,11
15000,2,0,-3,-23,-2,-2,2,-3
15005,-1,-1,-7,-7,2,1,-1,-13
15010,-3,0,-2,-8,3,1,0,20
15015,-3,-6,-4,-50,-7,-3,1,2
15020,-7,5,4,61,6,1,-1,-20
15025,-16,-2,8,-4,3,4,-1,24
15030,35,-5,21,-16,-2,-4,7,17
15035,-28,1,-7,21,6,5,6,-6
15040,28,13,-11,-36,-9,-3,-4,-8
15045,18,2,1,33,2,1,1,10
15050,-25,4,-6,3,9,6,-3,-38
15055,-25,-8,-4,-18,-1,-1,0,32
15060,-24,-4,2,47,10,4,3,-5
15065,13,-11,14,58,-17,-12,-16,-20
15070,33,10,2,-1,8,3,7,39
15075,14,4,3,-37,-9,-5,-3,-17
15080,7,1,-24,35,2,3,1,-1
15085,-16,1,-6,-57,-6,-2,0,-5
15090,-13,-5,34,68,13,1,-4,-16
15095,13,2,-36,-45,-5,-4,-4,7
15100,-19,-11,34,20,-1,0,0,9
15105,0,-2,-19,-27,-2,1,4,-27
15110,-14,2,-10,-3,-8,-2,0,19
15115,16,7,-2,-11,6,4,-1,-4
15120,-24,-16,-16,-60,-15,-10,2,-1
15125,-35,1,11,2,7,-1,4,-5
15130,10,-3,-31,7,-8,2,-3,15
15135,46,3,16,17,5,0,5,-7
15140,-22,-8,-7,-34,-5,1,-12,-37
15145,34,5,9,21,0,3,7,42
15150,14,1,-31,-36,2,-4,-8,-3
15155,-28,-8,2,39,3,-1,3,-20
15160,21,7,8,7,-3,-2,-6,-3
15165,9,-2,11,9,3,0,6,-9
15170,-14,0,12,23,2,-3,-4,-33
15175,4,-2,-6,27,1,0,-14,-5
15180,4,4,-15,-18,1,0,-1,8
15185,-12,-9,-25,-16,-8,-4,5,3
15190,4,1,1,-19,2,1,1,-20
15195,-22,-2,-9,-10,2,4,7,-4
15200,15,8,31,-23,-10,-6,-9,24
15205,1,-12,-13,-39,1,-3,-10,-14
15210,-17,-1,3,-14,-3,-3,1,-7
15215,8,11,2,24,0,-2,1,6
15220,10,2,2,23,6,3,6,13
15225,4,-2,-18,-64,-6,1,-4,-14
15230,-10,-2,-10,68,5,0,4,17
15235,-14,-15,2,-26,-5,-5,-7,-5
15240,74,-1,2,4,-9,-7,-1,-2
15245,-38,9,47,27,1,0,6,6
15250,18,-4,-18,-4,-1,2,0,24
15255,-52,4,1,11,-4,-3,-6,-22
15260,12,2,0,43,14,4,-3,-38
15265,39,0,-20,-4,-2,1,-1,28
15270,-15,-6,3,-12,-3,0,4,29
15275,17,-8,-14,6,-4,-4,1,2
15280,-9,-8,18,-1,-2,-2,-4,-30
15285,-14,5,-2,33,8,5,-5,8
15290,-10,-9,-24,-40,-6,-2,-1,-20
15295,11,7,9,16,-6,-5,-2,4
15300,-37,-6,-18,-58,-4,-3,-2,18
15305,-3,2,9,-9,4,-1,0,-10
15310,25,2,8,-11,1,-1,-1,3
15315,2,-5,13,-2,2,0,-8,-16
15320,-19,-2,-17,-10,-5,-2,10,16
15325,16,4,-29,-29,-2,-2,0,20
15330,-1,0,25,58,-4,-3,-2,-9
15335,51,3,-4,-14,-5,-2,0,0
15340,-24,-8,6,86,10,3,1,11
15345,-48,-1,-1,-120,-10,-1,-1,-17
15350,-6,-19,-22,-3,-16,-9,-8,-8
15355,1,-3,15,38,5,-1,-2,6
15360,-1,3,-16,14,-2,-2,1,21
15365,14,0,-3,26,3,1,1,0
15370,-3,7,1,-29,4,2,1,-21
15375,-26,-1,1,16,1,1,-3,42
15380,-26,-12,-4,-52,-7,-2,-4,-42
15385,20,-3,15,6,-2,-3,1,37
15390,-28,6,7,41,6,2,-1,-3
15395,16,-5,1,-7,4,1,0,-32
15400,-12,7,10,39,3,0,11,36
15405,28,0,-15,6,-3,-4,-11,-15
15410,42,3,-2,-22,-2,0,2,-6
15415,-38,7,7,-22,1,1,0,-1
15420,5,6,-29,8,0,1,-6,-7
15425,5,-7,15,-14,-2,-2,3,-12
15430,-26,1,17,54,-1,-4,-2,-5
15435,-39,-6,2,-27,2,2,8,41
15440,-13,-4,0,-32,-6,-2,-3,-11
15445,-3,2,-8,26,5,-1,5,-11
15450,13,-1,-26,-24,0,2,-1,16
15455,1,0,-4,11,-6,-3,-1,-5
15460,-18,-14,29,-18,-3,-6,-4,-21
15465,41,6,-4,38,5,2,-2,32
15470,31,6,16,19,6,3,0,-24
15475,6,-8,-2,-49,-11,-4,-1,6
15480,23,4,-22,16,4,2,6,3
15485,-15,2,9,21,1,0,-7,-48
15490,-26,-2,-2,45,3,-4,-1,11
15495,46,2,4,-4,-2,0,5,11
15500,-5,5,14,-1,-2,-1,2,10
15505,2,-11,-8,-12,-5,-5,-7,-22
15510,-20,-2,-9,-28,-4,5,2,-20
15515,-33,2,-11,17,7,0,-2,13
15520,60,14,-4,-21,-7,-2,-5,7
15525,-17,-4,3,18,-9,-3,-1,2
15530,-7,-3,22,45,4,-1,-4,-3
15535,2,-7,7,-24,1,-1,-3,-13
15540,19,6,-3,5,4,1,-1,5
15545,-13,2,-7,72,1,0,0,-26
15550,22,1,-33,-85,-2,1,2,33
15555,-14,-13,7,-27,-23,-12,-8,-35
15560,-14,5,18,74,19,4,-4,20
15565,13,2,23,17,8,4,4,-3
15570,-21,-10,-39,-54,-3,-1,-1,-9
15575,-43,3,-16,3,-2,0,1,-12
15580,-3,-9,-9,-19,-1,0,-1,-5
15585,-20,4,-11,21,2,-1,-5,2
15590,32,4,35,9,-4,-4,-3,-17
15595,-64,-14,2,-18,4,2,1,21
15600,-54,-12,-3,28,-6,-5,-5,-26
15605,5,1,-4,-22,5,4,0,13
15610,-18,-7,-9,-12,-3,-2,-2,3
15615,72,2,-11,13,0,0,0,-16
15620,23,-2,15,35,6,3,1,17
15625,-5,-2,-24,-79,-7,-2,0,2
15630,-25,-6,-1,-45,-15,-6,-6,-2
15635,18,7,12,58,3,-4,-2,-12
15640,6,3,-4,-3,5,3,2,19
15645,57,-6,-7,-30,-6,-2,-2,3
15650,4,7,14,-28,7,4,2,-2
15655,3,0,-10,-46,4,3,3,1
15660,-17,-3,-4,-1,-8,-7,-5,-10
15665,7,6,9,54,6,0,-1,-53
15670,19,-1,-14,-40,-6,-2,8,93
15675,1,-2,-20,9,1,-1,-2,-15
15680,-19,-14,-3,-67,-7,-3,-4,-6
15685,-27,1,2,38,5,1,6,10
15690,10,2,6,37,1,-2,-3,-40
15695,35,4,5,-12,-3,-1,1,12
15700,13,4,6,23,0,1,2,-1
15705,-17,1,2,-22,-6,0,-2,38
15710,-10,-6,18,11,1,-3,-1,-17
15715,-2,2,-1,-50,0,1,-3,0
15720,9,-5,-9,-42,-10,-4,-4,-22
15725,16,-1,-2,30,9,2,-1,-10
15730,-19,7,-3,-26,1,1,-2,38
15735,6,1,-3,38,-10,-5,-3,2
15740,-2,1,27,10,-4,-4,0,0
15745,9,-2,-19,6,6,1,-3,-7
15750,15,-3,-11,-26,-9,1,3,2
15755,1,-12,-1,-67,-10,-6,-3,-17
15760,-19,3,-2,-7,-1,0,-2,-4
15765,25,-1,16,29,1,-1,-2,16
15770,-22,3,-3,-19,0,1,-1,-22
15775,9,6,4,35,10,4,6,20
15780,-57,-10,-2,-21,-3,-1,-1,-13
15785,-30,-3,-4,-26,1,-1,-2,-7
15790,-19,-2,19,82,11,3,-1,-34
15795,13,4,4,-56,-7,-1,1,33
15800,53,9,-14,-25,2,1,4,27
15805,-12,-3,-29,-29,-10,-4,-3,3
15810,-3,-2,19,21,2,-3,-3,-14
15815,-9,-2,13,65,5,-1,-2,-19
15820,15,0,-14,51,8,3,1,-44
15825,-41,-6,-4,-66,-3,-1,4,80
15830,11,-2,2,79,-7,-6,-8,-1
15835,2,-7,27,65,-2,-5,-8,-9
15840,-4,4,-21,53,5,0,-2,6
15845,16,6,2,-4,-4,0,2,-29
15850,14,1,-15,8,11,4,3,14
15855,-26,5,-8,-6,-5,-2,-4,-9
15860,24,-10,7,-78,-10,-3,-7,-24
15865,-11,-13,0,16,1,-2,-5,36
15870,-6,-5,-10,-59,-8,1,5,-4
15875,24,8,5,74,11,2,2,-6
15880,66,14,-5,-12,1,2,4,11
15885,-13,-2,21,19,-5,-2,-5,-29
15890,-21,1,-14,-21,-3,-3,-1,-6
15895,7,5,-3,-16,11,7,2,23
15900,24,0,-38,12,-11,-3,-2,9
15905,-28,-10,17,-7,-8,-9,-7,-14
15910,-10,-3,2,23,-2,0,4,-14
15915,10,-3,-2,11,3,2,0,13
15920,-75,-6,-2,-83,-6,-2,-2,34
15925,31,2,-14,-20,-1,0,0,13
15930,-3,2,-3,17,5,1,2,35
15935,-7,7,7,-18,-6,-2,-10,-16
15940,-9,-4,4,55,3,-2,3,10
15945,-3,5,4,-4,-1,2,-4,-43
15950,-8,-3,1,-7,5,0,-2,1
15955,-6,1,6,10,-11,-1,4,11
15960,-61,-15,17,11,2,1,-2,-7
15965,-6,13,-8,-6,2,-3,1,-9
15970,5,-7,-4,-30,-14,-5,-5,-5
15975,1,2,-10,45,8,5,5,-7
15980,8,-4,-12,-9,-2,-4,-4,-10
15985,-6,-2,15,13,-3,0,2,-3
15990,-24,-3,-7,20,9,4,1,-9
15995,-11,0,-31,-22,-5,-8,-10,11
16000,44,9,32,-26,1,2,0,-20
16005,-1,-11,-7,-6,-4,0,-2,73
16010,21,1,-19,-51,-13,-4,-5,-24
16015,-5,-10,14,76,-4,-2,0,-11
16020,-12,9,3,-41,4,-1,-1,-10
16025,15,1,4,21,0,2,6,-14
16030,45,1,-17,-7,6,-1,-6,-19
16035,7,5,43,6,8,1,1,-5
16040,13,-4,-39,-70,-25,-7,2,8
16045,-42,6,-2,20,7,1,-5,-28
16050,-11,1,25,54,2,1,7,33
16055,3,-3,-26,-42,4,2,0,-8
16060,-45,1,5,43,7,0,-1,-12
16065,-7,2,-3,30,2,4,7,8
16070,9,-5,-12,34,-6,-6,-6,1
16075,-10,-4,33,7,-6,-4,-3,-35
16080,21,-1,1,34,4,0,0,22
16085,40,-2,-10,3,1,0,-1,16
16090,13,5,4,-9,6,6,2,5
16095,13,-2,-3,15,-6,-4,1,3
16100,-49,-4,6,41,3,-1,-7,-9
16105,22,-4,-9,-89,-7,-2,2,-24
16110,5,2,22,36,0,-2,-4,-4
16115,0,-3,-29,-49,-7,-3,-1,37
16120,19,7,-2,22,6,3,2,-4
16125,-23,0,0,15,3,2,1,4
16130,-4,-8,0,-79,-4,-1,-5,-22
16135,50,-13,-16,72,-9,-5,-1,-52
16140,4,11,34,95,7,0,1,78
16145,1,-4,-14,-82,-10,-3,-2,-19
16150,8,0,32,25,4,-1,-4,-2
16155,-54,-3,-61,-86,-7,-2,-1,-2
16160,39,-1,4,4,-1,-1,4,-6
16165,-22,-6,13,101,9,1,-2,-39
16170,-9,7,-22,-81,-23,-4,-1,29
16175,30,2,3,27,6,1,-4,-9
16180,-27,-9,-5,-51,-12,-6,-4,2
16185,-8,-1,3,36,7,3,5,0
16190,-44,-5,-9,-10,7,-2,-1,-26
16195,49,12,11,-33,-1,0,2,11
16200,-30,-3,-19,24,5,2,-1,-16
16205,8,-3,31,-26,-6,-4,-4,2
16210,10,1,-1,24,1,-1,2,11
16215,-23,-6,-5,-4,3,2,4,28
16220,-9,-5,6,26,1,-4,-4,-19
16225,-2,10,5,1,0,-1,-3,-23
16230,80,14,-15,-71,-10,-1,4,16
16235,-52,-15,20,23,-1,0,-2,-1
16240,-4,-6,0,-10,3,-2,-3,-6
16245,-9,-7,-23,11,-13,-6,-6,-23
16250,12,-2,26,47,-3,-6,-4,-2
16255,21,12,-6,32,18,10,1,-2
16260,2,-5,-3,-65,-22,-8,1,9
16265,1,1,-3,-25,3,1,-3,-4
16270,-47,1,2,33,14,7,-2,-4
16275,8,-3,-16,-76,-25,-10,-4,12
16280,-2,-5,2,39,11,4,-5,-22
16285,26,5,25,78,9,0,4,-7
16290,-71,-7,17,-38,-12,-8,0,18
16295,7,4,-3,27,9,5,0,-20
16300,2,-7,-2,-80,-2,-5,0,21
16305,-7,-1,-5,7,-10,-4,-6,-14
16310,39,8,5,43,10,5,4,11
16315,9,0,-3,-8,1,-1,-2,-30
16320,1,-3,-10,83,9,3,2,5
16325,-11,-8,0,-120,-9,-4,2,35
16330,4,-8,-5,4,-9,-7,-10,-31
16335,-7,1,13,37,0,-3,-1,-23
16340,31,6,-1,37,5,4,7,51
16345,-1,3,6,-32,5,3,0,-4
16350,-25,-5,-18,-3,-9,-4,-3,-11
16355,11,-4,11,15,-2,-3,-5,-50
16360,10,0,-11,-22,-5,-2,10,68
16365,49,12,5,17,0,0,-1,-2
16370,-14,-4,4,21,7,-1,-3,0
16375,-4,1,-8,33,6,1,-1,13
16380,-17,-4,8,-37,-12,-4,-10,-52
16385,-4,0,-4,-62,13,5,2,21
16390,20,-6,-7,59,-13,-11,-9,-1
16395,-37,3,-2,-90,-9,-1,3,-1
16400,43,4,-17,-20,-10,-1,-2,2
16405,-80,-14,-1,52,6,-2,-2,21
16410,32,1,-27,-35,-3,0,-1,-25
16415,-42,-14,20,14,1,-2,1,19
16420,31,13,-22,-64,10,7,2,-27
16425,6,-7,36,74,-21,-12,-8,-6
16430,2,-2,10,38,0,-1,4,4
16435,-16,-4,1,-42,0,-3,1,-5
16440,15,-1,-12,-5,8,3,-6,-7
16445,-31,-11,-27,1,0,0,7,39
16450,-7,-7,-7,9,3,-1,1,-9
16455,32,13,6,21,5,1,2,20
16460,-33,1,31,12,-3,-2,-2,-16
16465,79,-4,-12,-9,-5,-5,-8,-12
16470,-52,3,-6,-3,1,0,-2,86
16475,-6,-3,-27,-27,4,3,0,-8
16480,-7,-2,30,23,-6,-6,-5,-35
16485,-21,3,4,12,-6,-2,0,4
16490,21,3,0,-25,6,4,4,-15
16495,9,-2,-2,43,1,-2,-3,18
16500,-28,-3,-5,-15,-1,1,1,-2
16505,26,12,-4,71,22,9,2,-20
16510,8,-10,-16,-40,-23,-8,-6,-43
16515,-43,-16,20,13,-20,-12,-4,59
16520,18,-3,-17,31,-1,-1,-2,-22
16525,10,5,2,20,7,3,6,6
16530,-1,11,5,27,22,8,3,-8
16535,-7,3,3,-2,1,2,1,-1
16540,-2,1,-11,-36,-3,-3,-5,-4
16545,-3,4,-5,43,10,3,-1,2
16550,-6,1,47,66,7,2,0,-6
16555,15,-14,-61,-120,-25,-10,-6,-7
16560,-37,-6,16,42,6,2,7,-4
16565,14,-1,-12,-81,-23,-10,-1,-17
16570,16,-1,-5,-6,4,8,7,35
16575,11,10,1,-9,5,6,11,-10
16580,-3,-1,4,23,11,2,-1,2
16585,-14,-5,15,27,-4,-2,-3,-28
16590,2,0,-3,2,0,-1,-3,-1
16595,-3,1,-5,8,7,2,-4,-17
16600,-1,3,-6,-2,-1,1,2,-10
16605,-1,0,-4,55,0,-2,-6,10
16610,-46,-15,-12,-72,-21,-4,2,12
16615,-3,9,23,37,0,-9,-9,-13
16620,-8,-9,-15,-13,-11,-5,-2,-11
16625,38,11,6,-5,8,3,-3,44
16630,-13,0,-17,-10,11,4,-1,-16
16635,-4,4,6,41,15,7,3,-1
16640,14,-1,-1,-15,-5,-4,-2,15
16645,-27,-13,2,-119,-23,-10,-8,-35
16650,-23,-2,0,-15,5,-3,-5,-44
16655,96,1,20,15,-13,-4,6,55
16660,6,-2,5,47,4,0,-5,12
16665,-13,-2,-26,3,7,5,9,14
16670,10,0,8,-15,-6,-4,-4,-25
16675,-8,-1,-2,3,6,1,-1,-5
16680,-4,1,0,-6,2,1,0,-3
16685,-7,-5,-1,-25,-6,-3,-3,-6
16690,22,-3,-2,9,-1,-3,-5,4
16695,0,-5,-2,23,7,2,0,27
16700,-24,-8,-12,12,2,1,1,-4
16705,-14,3,-9,-43,-7,-2,-2,-7
16710,33,-2,-9,-64,-30,-8,-2,-3
16715,-68,-7,29,76,4,-2,-1,-12
16720,-9,1,0,-41,-4,-4,1,-2
16725,6,1,-26,-50,-2,0,0,-10
16730,3,-10,-35,35,19,4,1,0
16735,-51,-8,15,18,-9,-3,-12,-15
16740,74,-3,14,-23,-22,-11,-1,20
16745,-32,-18,-17,65,10,4,1,3
16750,11,3,4,-55,-4,1,8,58
16755,9,6,2,-12,0,-1,-9,-7
16760,-26,7,9,31,8,1,-5,-30
16765,12,-7,-11,-9,-4,0,1,-30
16770,9,11,9,1,0,-2,-2,14
16775,-2,-1,-10,21,2,1,-1,-8
16780,3,-2,15,-2,-6,-2,-2,8
16785,-6,8,25,-11,-4,-1,-3,-18
16790,-19,3,-4,64,13,3,0,-8
16795,80,2,-10,22,2,0,-1,-11
16800,-99,-7,4,-92,-14,-4,-1,6
16805,11,1,-15,16,3,1,-2,-6
16810,-32,-1,21,16,-1,-3,0,26
16815,8,5,-8,-9,0,2,4,0
16820,41,4,-2,84,11,6,1,-3
16825,-12,-8,-10,-92,-11,-6,-6,-9
16830,7,5,16,-14,11,3,0,-5
16835,-20,-13,3,-26,-35,-12,1,16
16840,-17,5,14,40,12,1,-7,-17
16845,47,12,-10,-43,-5,3,12,46
16850,7,-2,-11,36,11,2,-5,-48
16855,-83,-11,-8,-54,1,1,5,29
16860,42,20,3,-13,-2,1,3,-5
16865,34,6,10,81,7,-1,-4,0
16870,-21,-2,-14,-27,-4,0,-2,-12
16875,29,6,2,11,11,4,7,33
16880,-18,-10,-39,-86,-9,0,-3,5
16885,-37,1,31,-61,-20,-8,-3,-18
16890,4,-2,21,109,2,-5,-3,-17
16895,-2,4,4,12,5,2,-6,-11
16900,33,-3,-16,33,6,0,-1,-16
16905,-67,-10,10,29,6,3,0,7
16910,19,7,-15,-28,-5,-1,7,4
16915,25,1,5,15,-4,-4,-6,-17
16920,14,-10,-22,-85,-9,-2,-1,-12
16925,-56,-12,5,47,0,-2,1,-11
16930,71,23,14,-4,-6,-1,-4,44
16935,-84,-16,-5,6,12,5,2,-74
16940,5,9,28,71,7,2,5,64
16945,2,-3,-2,4,-5,-6,-7,-22
16950,-18,-14,-30,-65,-9,-3,-4,-10
16955,77,8,7,-44,-2,-2,2,-21
16960,-51,-1,14,45,2,-3,-6,-22
16965,-1,6,-10,-73,6,6,6,22
16970,10,4,26,65,1,-4,-3,-10
16975,7,5,-7,45,6,1,6,19
16980,-2,-3,1,-65,-1,1,4,16
16985,53,-4,-33,86,6,-2,-1,1
16990,41,-19,-21,-7,-17,-11,-12,10
16995,-42,-6,-19,-49,-16,-4,2,5
17000,13,-4,8,57,3,-3,-1,-12
17005,0,8,6,49,14,3,-2,-14
17010,-4,-9,16,-8,5,2,-1,-13
17015,25,5,-15,-30,-9,-7,-6,-28
17020,73,3,-3,33,0,1,0,35
17025,-59,-5,-1,-23,-2,-1,-2,23
17030,-31,-1,-8,-30,-1,3,4,-19
17035,34,8,19,33,10,2,1,26
17040,-17,-6,5,-54,-1,0,-2,-20
17045,39,6,3,5,-7,-3,-4,-56
17050,17,1,-15,-25,1,2,6,102
17055,8,7,-18,23,4,2,-2,-7
17060,11,2,23,-62,0,-2,-8,-42
17065,6,-12,-25,-6,-12,-3,18,33
17070,-24,-7,-17,-53,14,3,-3,-77
17075,28,-11,20,16,-18,-12,-2,73
17080,-33,-1,-10,11,10,3,-1,-15
17085,1,6,5,21,-2,-3,-3,34
17090,-3,-2,-7,34,2,3,1,-36
17095,-24,0,-1,-15,9,2,0,2
17100,5,-1,9,58,-1,-2,2,-5
17105,91,7,-12,-59,-10,-3,-5,4
17110,-115,-26,2,26,1,-2,-7,-39
17115,15,3,3,-21,2,1,-1,36
17120,18,3,-1,41,-2,0,1,12
17125,17,6,10,-62,-3,0,2,16
17130,27,8,32,74,1,-3,-1,-12
17135,-10,-11,-42,-72,-2,0,-2,-5
17140,-61,-13,-1,4,-2,0,1,-20
17145,-31,1,-10,2,6,3,2,21
17150,-3,1,29,34,-7,-2,-2,-18
17155,18,2,-1,-11,-7,-3,1,-16
17160,11,-2,-3,63,5,0,0,0
17165,-20,-14,-37,-55,-12,-7,-9,-20
17170,43,-1,14,46,-2,1,4,30
17175,-29,22,14,62,14,1,-7,-28
17180,35,1,0,-62,-14,-5,-1,-12
17185,-19,3,58,50,6,1,1,-8
17190,-5,0,-32,-22,-4,-1,-2,20
17195,-9,-9,5,5,3,3,-3,-13
17200,-74,-4,-27,-27,-5,-2,-1,5
17205,9,-1,27,58,10,2,-6,-1
17210,43,10,-6,-52,-1,-1,1,1
17215,-78,-7,6,-39,-2,1,-3,-34
17220,-19,4,4,11,-1,-6,-3,27
17225,3,-2,24,68,0,-3,4,-13
17230,-23,1,11,23,5,-2,1,27
17235,-1,-10,-26,-57,-9,-5,-5,-14
17240,19,2,2,1,0,1,-2,-46
17245,-8,-4,-21,24,4,2,-4,38
17250,-55,2,2,-7,4,1,6,-11
17255,92,16,1,-43,-2,0,-4,-13
17260,7,-4,-28,-2,-4,3,2,7
17265,-4,-2,38,56,-5,-8,-5,38
17270,-16,-2,-2,18,-4,-2,-3,-12
17275,9,-9,10,-8,-4,-2,3,7
17280,-6,1,-13,-44,-3,-2,-2,-11
17285,4,5,-12,34,14,7,2,-12
17290,7,-6,-1,-101,-15,-4,-7,-6
17295,-15,3,11,55,3,-1,1,-1
17300,43,-1,-10,-77,-4,0,-2,-12
17305,-79,-13,-14,-22,0,0,1,28
17310,77,3,41,85,3,-5,3,8
17315,-5,0,-4,8,-5,0,0,-1
17320,5,-2,-5,43,8,-3,-3,-28
17325,38,7,-11,-54,-10,0,-2,-4
17330,-26,1,-14,19,5,2,4,-24
17335,-93,-13,-2,5,-4,-1,-3,-26
17340,26,-2,-7,-63,-3,0,6,57
17345,27,7,15,3,-4,-1,-4,-27
17350,-15,-6,-17,-3,-1,1,-2,20
17355,13,4,-12,11,4,-2,1,-9
17360,-30,-2,16,35,-4,-3,-1,0
17365,-4,0,-4,-36,-4,-2,-5,-20
17370,-3,-3,9,71,6,1,1,21
17375,9,-4,-20,-30,-7,-4,-3,-30
17380,-13,8,2,6,6,4,1,33
17385,81,6,-20,-42,-1,-1,4,21
17390,-76,-15,-14,-74,-34,-15,-8,-24
17395,26,1,21,61,8,2,-2,-4
17400,-6,1,14,29,-1,-1,-4,-13
17405,17,2,8,16,8,2,-3,-30
17410,19,14,-38,-26,0,4,-3,3
17415,4,-3,14,9,-4,-2,7,14
17420,-11,-3,6,-21,-5,-3,-3,-6
17425,-24,-8,-11,28,1,-3,-6,-1
17430,31,0,-2,-21,5,0,-2,1
17435,-54,-2,-8,-23,3,2,-6,-26
17440,47,8,3,37,3,7,10,50
17445,-11,-3,9,-16,-12,-7,-1,24
17450,-46,-13,2,-7,1,-1,-7,-41
17455,56,14,-17,-16,2,0,5,71
17460,-19,-16,-9,-12,-9,-5,-7,-25
17465,-3,2,-7,-3,3,-1,3,-1
17470,33,11,6,8,2,2,3,6
17475,26,-15,-16,3,-5,-3,-3,5
17480,-42,-2,-29,-51,-9,-3,-1,-14
17485,-15,-1,42,40,-5,-3,-4,-13
17490,21,2,0,-28,-4,0,-1,3
17495,3,-3,-4,35,9,1,2,-17
17500,14,2,24,102,10,0,2,36
17505,-12,-1,-35,-10,-1,2,1,-32
17510,10,8,-2,1,3,2,-1,11
17515,-19,-9,17,-21,-8,-5,-5,-6
17520,-9,0,-1,0,-4,-1,6,23
17525,-35,-5,-4,18,3,-1,-5,-31
17530,-7,0,-8,6,3,0,1,31
17535,38,2,13,-23,-2,-4,-9,23
17540,71,3,19,43,-2,-2,-4,12
17545,-90,-33,1,-12,1,-4,1,-6
17550,6,3,-6,3,3,3,0,-10
17555,-5,6,-8,-58,-10,-1,-2,-11
17560,-14,-8,-6,3,2,-2,-4,-12
17565,9,-2,1,51,-6,-2,-1,-4
17570,-3,-1,-17,-47,-2,-1,-2,-1
17575,-9,2,24,38,5,4,3,1
17580,30,-1,-9,-46,-4,-1,-2,-19
17585,30,19,-10,-28,8,6,0,-4
17590,-22,-13,-11,-7,-8,-3,-8,7
17595,-4,3,3,29,-2,-2,6,55
17600,-25,-10,10,20,-4,-6,-4,-18
17605,16,5,-8,-60,0,-1,2,2
17610,6,5,6,-24,8,4,2,-8
17615,50,3,0,28,3,-2,-4,-17
17620,3,6,-25,0,-11,-1,2,8
17625,-54,-9,22,-77,-14,-6,-4,-15
17630,12,3,-1,30,0,0,-1,8
17635,-23,2,4,-6,-2,0,6,-12
17640,-49,1,4,30,11,2,1,-41
17645,44,10,-7,12,-1,0,-3,-1
17650,10,1,4,2,-2,-3,1,1
17655,-20,-4,19,40,7,2,-3,-8
17660,5,-1,-15,-60,-5,-3,-5,9
17665,37,10,-10,36,9,4,0,-13
17670,57,-4,4,-88,-17,-7,0,46
17675,-9,-3,-12,-58,-4,-1,-3,-18
17680,-9,-6,17,77,1,-4,-1,-6
17685,-1,-1,-25,-6,-1,2,-1,-21
17690,7,3,16,-15,11,7,5,-8
17695,-44,-3,-14,19,-5,-3,-8,-22
17700,13,8,-12,-67,-4,1,6,22
17705,80,4,7,17,-1,-2,-3,10
17710,-32,-11,9,48,0,-2,2,-13
17715,2,3,-11,-14,2,4,1,0
17720,-19,-3,10,45,4,0,-6,-25
17725,-5,1,10,-3,-3,-1,2,5
17730,-10,-4,-14,11,2,-2,2,-3
17735,2,-5,4,8,9,1,-2,11
17740,-15,-5,-20,-6,-6,-2,-6,-30
17745,-25,-5,13,-21,-6,-2,6,39
17750,26,4,-11,24,6,0,0,2
17755,21,-3,19,-64,-9,-2,1,10
17760,-33,1,-34,16,6,0,-2,-47
17765,31,2,15,-72,-12,-5,-2,45
17770,-21,-1,2,64,6,0,1,-9
17775,7,4,2,32,9,1,-1,-1
17780,-42,-10,12,-30,-4,-1,1,-3
17785,-16,-8,-4,-26,-7,-5,-4,1
17790,9,5,-2,38,4,1,-4,-6
17795,20,3,-9,-10,-8,-4,4,14
17800,30,0,12,-8,7,2,1,16
17805,-23,1,-20,34,6,1,-1,-13
17810,-19,-8,-5,-14,-5,-1,-4,-6
17815,-14,2,21,30,6,3,-3,-49
17820,42,-13,-36,-56,-14,-7,-1,48
17825,-26,-8,17,70,4,-1,-8,9
17830,-5,4,-8,-93,-9,-3,-1,-16
17835,19,6,10,51,-1,-5,-5,0
17840,2,2,20,43,11,4,2,-10
17845,-23,2,-4,-14,-1,0,-2,-17
17850,31,1,-11,6,1,2,5,41
17855,-21,-9,-15,15,-1,-1,-4,-16
17860,-22,-7,17,-50,-12,-7,-5,-16
17865,14,4,-23,10,6,1,0,17
17870,-13,2,20,15,2,0,-1,-19
17875,2,-3,-11,-39,-10,-3,4,22
17880,21,5,23,32,3,-1,-2,-1
17885,-9,-5,-9,9,4,2,0,-15
17890,20,-8,4,8,-7,-4,-4,-30
17895,-108,-11,-7,-24,-6,-3,-4,23
17900,78,19,21,-59,0,-1,-1,6
17905,10,7,-1,25,0,-2,4,6
17910,-26,3,14,20,10,5,0,8
17915,-9,0,0,2,3,2,-4,-54
17920,15,-7,-13,3,-9,-1,2,70
17925,-7,-1,6,-30,7,5,2,-60
17930,-11,0,2,52,-2,-4,2,1
17935,18,-4,-11,53,2,-2,-2,4
17940,4,8,-3,-6,3,1,0,-9
17945,0,-8,-23,-70,-11,-4,-1,-15
17950,-16,-8,26,-4,-1,-4,0,-19
17955,31,6,1,26,-2,1,3,17
17960,-8,0,-8,4,4,2,1,4
17965,65,10,-1,60,1,1,3,0
17970,-1,6,-5,-86,-5,-1,-4,7
17975,-14,-4,9,7,-1,-3,-2,17
17980,11,4,-17,-33,-1,1,2,-36
17985,88,9,20,84,11,5,10,22
17990,-77,-13,-8,32,-2,-5,-3,17
17995,5,-5,-10,-36,-9,-3,-3,-35
18000,-22,0,-6,-42,0,1,2,44
18005,-23,0,2,63,5,-1,0,-1
18010,20,2,16,-14,-6,0,-1,-21
18015,-4,-3,-43,-87,2,5,3,-13
18020,-49,-11,19,86,3,0,-2,-10
18025,-8,-3,-2,-30,-14,-5,-4,-14
18030,-4,4,3,-51,1,-1,5,49
18035,29,13,-4,9,3,-1,1,-9
18040,-12,-12,-11,25,5,-2,-3,-15
18045,-89,-12,1,0,6,2,0,-3
18050,5,6,-13,19,2,2,-2,-21
18055,8,-3,11,-51,-1,-1,2,21
18060,22,7,13,5,-8,-2,-10,-48
18065,-25,-10,0,-52,-2,-2,5,93
18070,11,-1,9,47,-2,-1,-2,-21
18075,12,1,-6,10,2,-1,1,-5
18080,8,7,22,25,3,0,-1,-16
18085,4,-3,-12,-41,4,1,-1,4
18090,-5,0,-25,37,-11,-1,-1,-23
18095,30,-14,10,40,-2,-1,2,31
18100,-28,0,5,1,-5,-3,-1,-5
18105,-12,1,-17,-37,-6,-3,-5,-21
18110,15,-1,6,9,3,-1,0,-2
18115,-13,-1,-5,28,3,-1,-3,-14
18120,3,1,-6,7,5,1,2,10
18125,-13,-3,-21,-34,-2,0,-6,-74
18130,52,3,29,-2,-5,-1,6,31
18135,-30,-6,4,67,-2,-5,-5,35
18140,-11,-5,-25,-96,-4,-1,4,13
18145,8,10,5,61,1,-1,-4,-28
18150,4,-1,-12,-1,6,0,-5,-16
18155,19,1,-1,-39,0,2,4,0
18160,8,5,9,44,6,1,1,5
18165,-11,-5,6,-3,-1,-2,-4,3
18170,-5,-6,-15,-37,-5,-3,-3,2
18175,-1,9,-1,77,23,9,1,-2
18180,-11,-19,-17,-84,-33,-15,-8,-55
18185,16,-6,27,23,-18,-12,0,88
18190,2,15,-7,7,7,0,-1,-12
18195,-45,3,0,16,-4,-2,-1,-5
18200,0,-3,-11,25,15,8,-1,-29
18205,3,-1,1,-26,-1,0,0,30
18210,20,5,10,1,-2,-1,2,19
18215,-10,-4,-1,-5,4,-1,-1,-4
18220,46,8,2,79,12,2,-8,-11
18225,-8,-6,-44,-68,-7,3,6,-22
18230,1,-9,9,47,-3,-5,0,23
18235,64,0,-7,-56,-28,-7,-1,17
18240,-21,1,20,80,-1,-4,-2,14
18245,10,4,14,53,12,1,-4,-22
18250,-21,-1,-34,-40,2,4,0,-34
18255,15,1,1,-36,1,1,1,-11
18260,-10,5,-8,-4,4,0,1,33
18265,-10,-4,15,28,4,2,-2,-26
18270,1,-6,-17,-91,-8,-4,1,-25
18275,-32,15,30,63,-17,-10,-10,22
18280,-14,-6,-9,15,7,4,7,-4
18285,-29,7,9,76,9,1,-2,1
18290,8,-1,-9,-59,-11,-2,1,-15
18295,2,-7,-11,-43,-6,0,-2,-34
18300,3,1,-7,-28,-3,0,10,75
18305,-12,0,10,14,2,-3,-4,-16
18310,-5,-3,19,58,7,2,-2,-10
18315,-21,-11,-34,-39,3,0,-4,-11
18320,18,3,21,-59,-11,-5,-5,-9
18325,7,-7,4,-6,-5,-1,-3,-2
18330,-8,1,-3,38,1,-1,-5,15
18335,9,1,6,-19,7,1,3,-6
18340,-13,-5,-14,-6,3,3,1,-12
18345,14,4,11,27,3,1,3,-5
18350,-45,-6,-5,25,1,-4,-9,16
18355,23,-5,2,-29,-13,-9,0,20
18360,-3,-3,4,24,-7,-1,-3,3
18365,-15,0,-14,-45,-3,-1,0,-26
18370,33,13,5,37,10,5,-1,4
18375,-3,-3,4,9,8,3,5,2
18380,-7,0,-7,-4,1,-2,-4,5
18385,11,-4,-16,-36,-9,-5,-7,-32
18390,101,9,22,44,5,2,6,59
18395,-11,-1,48,46,-2,-3,0,-30
18400,4,-4,-43,-101,-10,-1,0,-2
18405,16,6,5,39,3,-1,-3,0
18410,-6,-7,-12,-19,1,0,-4,-27
18415,-49,3,-1,14,8,5,-3,-4
18420,25,-2,15,53,6,1,1,-12
18425,2,-1,-17,-55,-4,1,3,-5
18430,-45,-8,-7,1,-12,-6,0,8
18435,0,-4,8,10,-1,-3,0,-2
18440,-40,-2,23,45,-2,-4,-4,-20
18445,5,-2,-14,-15,-3,-1,-2,29
18450,0,4,4,5,-1,0,0,-17
18455,8,-3,-22,-18,0,3,1,2
18460,6,2,-4,0,1,-1,-3,-2
18465,9,2,18,41,12,4,0,-6
18470,-22,-16,-50,-88,-17,-5,0,21
18475,90,21,40,-14,-8,-9,-7,-30
18480,-25,-1,0,-20,-12,0,6,15
18485,-4,-1,1,38,2,-3,0,0
18490,-24,-2,11,21,9,3,-1,-20
18495,3,0,-24,15,12,5,-2,-4
18500,12,0,0,74,6,-1,-7,13
18505,57,-1,3,-54,-18,-4,-3,-20
18510,-90,-6,2,-23,-2,-4,-4,-14
18515,-6,2,-8,-15,-8,-2,0,-9
18520,-3,4,9,29,13,3,-2,-26
18525,-19,-6,-9,2,0,1,2,34
18530,14,-2,-6,7,1,0,0,-13
18535,-5,-3,-17,3,2,1,2,26
18540,-21,-7,27,-28,-3,-2,-5,-58
18545,-12,-2,-7,20,2,-2,0,46
18550,9,0,-13,-32,1,0,-3,-12
18555,-15,1,36,87,7,2,6,13
18560,-6,3,0,50,-5,-6,-3,24
18565,-11,-10,-32,-37,-13,-3,-2,-1
18570,-49,0,15,50,14,6,4,5
18575,-19,-10,-30,12,-3,1,-3,-2
18580,13,1,-15,-53,0,1,0,-1
18585,-19,3,48,67,7,-2,-7,-56
18590,87,3,0,-3,-6,-4,3,35
18595,66,7,-20,-56,-6,1,-2,6
18600,-34,-19,-3,-36,-7,-4,-1,32
18605,2,3,-8,-43,-1,2,-2,-23
18610,13,0,5,19,-1,-2,-3,-12
18615,-10,-7,7,0,1,-1,0,-20
18620,27,6,-2,2,0,1,0,3
18625,-12,-1,-3,1,4,0,2,23
18630,-5,-4,10,20,-1,-3,-4,-18
18635,-20,4,3,27,6,0,1,3
18640,5,2,-28,-83,3,9,9,18
18645,27,-8,15,-46,-27,-11,-9,20
18650,-54,-3,-17,-44,-4,-1,1,-13
18655,-2,-3,15,37,-3,-4,-6,-8
18660,20,7,6,43,10,3,1,-5
18665,-12,3,1,15,9,3,3,2
18670,17,2,3,-9,1,2,1,7
18675,-7,-1,-17,-13,5,3,1,12
18680,-20,-3,12,107,13,-2,-9,-104
18685,32,-13,-2,-99,-25,-8,10,100
18690,-47,-7,-1,81,-12,-9,-7,-37
18695,-7,-9,-9,-45,1,3,-5,-37
18700,2,2,7,3,-9,-4,3,38
18705,-5,6,-2,24,14,3,-4,-38
18710,6,4,-5,-8,5,3,-1,5
18715,-5,-6,-4,-17,-5,-2,1,21
18720,8,-2,-4,-27,-6,-2,0,4
18725,-13,1,-4,18,3,1,-3,-17
18730,16,-1,8,-13,-3,-1,1,12
18735,-17,-5,-9,8,1,1,-4,-28
18740,-40,-5,-8,18,6,0,2,31
18745,66,2,-16,-66,-22,-4,-3,8
18750,-79,-24,4,-15,-8,-8,-1,-7
18755,4,-1,11,-56,-5,-4,-4,-2
18760,-43,-3,-1,18,5,2,-5,-25
18765,-25,1,-5,58,21,6,4,2
18770,50,12,-24,3,10,9,1,6
18775,-22,-5,37,-4,-21,-10,-3,0
18780,32,-7,-14,-55,-11,-5,0,3
18785,-22,-10,-7,18,-3,-3,-4,-25
18790,-10,1,-9,-22,-4,0,-4,40
18795,2,4,-33,41,9,3,6,4
18800,31,8,6,-1,-1,1,-2,-13
18805,-29,-1,11,9,1,-1,-4,-10
18810,31,9,14,15,7,2,1,-15
18815,-11,-6,-17,6,0,-1,-2,-16
18820,23,4,30,56,0,-4,-3,42
18825,-12,-6,-48,-95,-15,-1,3,-16
18830,27,-4,40,83,-6,-1,-1,-5
18835,15,2,-8,52,0,-2,-1,10
18840,-5,-1,-2,2,1,1,-3,-11
18845,-5,9,12,45,17,4,5,9
18850,22,5,0,-51,2,1,-9,-31
18855,34,7,-4,-39,-12,0,7,43
18860,-27,-15,-20,73,4,-6,-2,-15
18865,-6,7,14,-60,-9,-3,-7,-46
18870,10,2,-11,-27,-13,-4,3,51
18875,5,2,37,54,3,-4,-7,-25
18880,42,10,-27,-4,1,4,5,14
18885,-14,-2,2,-3,1,0,-1,-35
18890,33,1,-8,-18,5,1,4,-10
18895,-24,-1,-13,5,0,-1,-4,9
18900,48,3,1,-37,-6,-1,6,-16
18905,-61,-13,20,41,2,-5,-4,12
18910,-5,8,-5,-16,-6,-1,2,-11
18915,-16,-5,-5,-33,0,-1,-2,3
18920,-10,0,15,9,-2,-2,-4,-17
18925,16,9,2,35,11,4,4,6
18930,-30,-9,3,15,-4,-2,-2,-65
18935,0,0,-10,-47,1,1,2,75
18940,14,-5,12,-23,-6,-3,-7,-25
18945,26,1,-7,44,-8,2,1,29
18950,-46,-8,9,66,10,0,4,8
18955,0,2,28,10,3,-1,-4,-41
18960,-11,-2,5,-45,-8,-1,1,16
18965,50,-3,-12,34,8,2,-4,-25
18970,-14,-4,-19,-29,-4,-2,-2,19
18975,56,8,3,18,6,7,7,9
18980,-64,-1,8,19,6,0,-1,5
18985,-11,-8,-14,-11,-5,-3,-4,-26
18990,-20,-4,10,28,-1,-1,-4,6
18995,-2,-3,-10,-25,-1,-1,1,-26
19000,9,2,5,50,-1,-5,-1,21
19005,-7,20,-34,-44,-5,-1,1,25
19010,50,3,3,-57,-3,-3,-10,-19
19015,-25,-6,-4,-27,-2,2,7,50
19020,4,1,-22,4,-5,-4,-2,-38
19025,-7,-5,12,-2,0,0,0,2
19030,-75,-8,-3,-28,0,-3,1,7
19035,30,6,31,43,-7,-6,-6,-36
19040,-41,-9,-35,-96,-9,-1,6,16
19045,25,2,12,63,15,1,-2,14
19050,-15,-2,-3,-34,-9,0,4,-14
19055,-9,-5,-27,-21,-1,2,-5,-6
19060,-12,-3,14,47,3,-3,-1,15
19065,-18,-7,2,-37,-8,-4,-2,1
19070,33,3,-11,11,7,3,2,-8
19075,-23,-1,20,11,-3,-5,-3,3
19080,12,1,-12,-5,0,2,-3,-13
19085,9,0,0,-8,1,-1,0,-12
19090,26,0,11,52,-4,-7,-3,14
19095,-6,0,-9,-57,-5,1,0,-11
19100,3,4,-4,-30,-1,4,4,5
19105,44,-1,-3,41,6,2,3,3
19110,-54,-3,14,-4,3,0,0,25
19115,-9,-6,-36,-6,4,1,0,-30
19120,-28,-5,12,17,-5,-2,-6,4
19125,5,11,-9,-19,-3,-2,3,2
19130,48,11,23,22,5,2,-5,-22
19135,43,3,-2,-10,-2,-4,-1,-40
19140,-3,-8,5,8,4,6,3,69
19145,-58,-9,-19,38,2,0,4,-45
19150,80,5,-1,-57,-7,-1,-7,23
19155,0,-1,-4,42,2,-1,-6,-13
19160,24,5,12,14,-1,-3,-1,3
19165,-7,5,47,-16,1,-1,1,-1
19170,-7,-7,-30,19,8,0,-3,-37
19175,-31,-6,11,-34,-10,-4,-2,10
19180,20,5,8,46,7,1,-2,-49
19185,19,-7,-15,-43,-5,-1,-1,62
19190,-26,1,5,31,3,-2,0,7
19195,-21,-2,14,7,4,3,0,2
19200,-3,-7,-26,-50,-13,-6,-5,-12
19205,29,-1,6,-16,4,-1,-4,27
19210,-43,3,-21,13,-2,0,0,-6
19215,-10,-3,-17,-22,-5,-3,-5,-6
19220,18,3,6,-7,-1,1,5,44
19225,25,-2,-4,5,-2,1,3,-20
19230,-50,-7,1,20,1,-2,-10,-27
19235,-10,2,11,18,-3,1,1,31
19240,20,1,-20,-22,-1,3,-1,-6
19245,39,7,9,-3,-6,-3,-5,-2
19250,14,-13,7,17,3,3,4,-5
19255,8,6,-11,20,2,0,2,-10
19260,-6,-5,1,-98,-7,-1,-3,-18
19265,-9,3,28,90,0,-4,0,-4
19270,18,-2,1,-69,-3,0,3,-14
19275,-8,-3,-1,74,10,1,-6,10
19280,34,-5,-18,-2,0,-5,-2,42
19285,-47,-1,-16,4,5,3,-1,-19
19290,20,0,15,8,-9,-3,-3,-3
19295,-29,-4,-9,-26,4,1,3,10
19300,9,7,15,61,2,-3,-3,-29
19305,-43,-15,1,-62,-12,-7,-4,-5
19310,-6,0,-9,31,4,1,2,16
19315,26,-2,-12,-10,4,0,1,-10
19320,-15,-2,6,-5,-3,0,3,25
19325,-22,-3,0,22,4,1,-3,-9
19330,20,-3,-5,-34,-3,0,2,-12
19335,12,8,4,-9,-4,0,0,50
19340,-8,-4,-25,-18,3,0,1,-30
19345,-16,-5,-13,9,-4,-1,-1,-14
19350,-40,-13,-14,-6,3,-1,-1,20
19355,7,5,39,11,-11,-4,-3,-24
19360,-13,-2,-8,9,-2,-1,1,26
19365,16,-6,-25,-96,-8,-2,-1,2
19370,3,5,25,95,12,1,-1,-13
19375,0,-7,-28,-1,-3,0,0,-13
19380,-44,-4,13,22,0,-2,0,-10
19385,1,6,20,32,-3,-2,-5,-7
19390,41,3,-22,-49,-4,0,-2,9
19395,-11,0,-14,-18,10,6,8,14
19400,14,-5,-2,-6,-13,-6,-6,-17
19405,-6,2,14,8,3,2,-1,-2
19410,-9,5,8,27,-1,-1,-3,23
19415,14,-4,-34,17,4,-4,-4,-20
19420,-1,12,14,6,2,3,5,-8
19425,-6,-7,-11,-13,-3,0,-1,-6
19430,25,11,14,-23,-5,-1,4,27
19435,-36,-7,2,-35,-2,-3,-6,-11
19440,25,6,-3,55,7,-1,-6,35
19445,40,4,9,-3,-8,-2,0,-5
19450,-25,-7,-6,-51,-12,-5,-8,-23
19455,-17,-4,-1,10,3,1,7,36
19460,26,-1,16,9,-2,-2,-6,-5
19465,9,5,15,99,8,1,-2,-18
19470,8,-5,-20,-40,-6,-3,2,1
19475,12,-3,2,10,-8,-5,-6,-11
19480,-51,-13,-27,-29,2,1,0,-39
19485,-20,-4,-2,-54,1,1,-3,22
19490,28,3,-5,-5,2,0,5,45
19495,17,-5,23,37,-1,-4,-2,-8
19500,9,2,-12,-74,2,3,4,-24
19505,-25,-1,9,-11,1,2,-1,31
19510,20,1,-17,21,1,1,5,-9
19515,-60,-16,13,79,3,-6,-13,-47
19520,48,12,4,-28,-5,2,0,33
19525,-4,-1,-5,7,1,-1,-1,-11
19530,-1,-3,10,-7,1,0,-2,0
19535,-11,1,-8,-9,0,2,1,-28
19540,-11,0,11,17,0,-3,-1,-8
19545,46,6,-18,-12,6,2,-3,-23
19550,-39,2,-7,50,2,1,2,62
19555,-18,-13,11,-57,-16,-4,6,-15
19560,-17,4,-2,-8,-7,-4,-3,15
19565,11,3,36,28,5,0,4,7
19570,11,3,-5,56,8,1,-3,-36
19575,67,8,6,41,4,4,-1,5
19580,-74,-1,-5,5,7,4,2,1
19585,-13,-8,-17,75,-1,1,-3,-5
19590,11,-16,8,-7,-19,-10,-5,-17
19595,35,11,-6,-7,-3,-1,2,22
19600,27,-2,4,-2,6,1,-1,-14
19605,-34,2,-2,79,3,-3,-1,1
19610,-18,1,-8,-29,-3,0,0,-14
19615,-2,1,-9,-52,-4,-1,0,15
19620,12,5,12,6,2,-2,-5,-5
19625,-10,-12,-14,-35,-1,0,0,-25
19630,3,-4,5,-2,6,1,-4,18
19635,3,8,-31,9,5,5,-7,-17
19640,-38,-9,21,-77,-21,-7,7,17
19645,-15,-6,3,-25,-11,-7,-5,5
19650,10,8,5,49,4,3,2,-23
19655,-5,-5,-19,12,12,1,1,11
19660,17,1,-4,26,8,3,-2,-15
19665,3,1,-11,-37,-3,0,2,1
19670,-12,5,6,34,7,4,2,0
19675,30,8,1,-54,5,3,0,-29
19680,42,-20,13,-49,-17,-7,-2,39
19685,-42,-5,5,69,-11,-8,-2,-10
19690,22,-2,-23,-23,1,-1,-4,-20
19695,-3,9,9,19,3,3,7,28
19700,29,1,-9,7,4,1,-1,9
19705,12,0,0,-38,3,2,1,13
19710,-17,1,3,-8,-2,1,-1,-10
19715,-19,-7,10,1,-2,-2,-2,0
19720,-22,-4,-8,19,2,0,1,-40
19725,-13,18,16,54,10,2,-4,-15
19730,39,-19,-13,-109,-17,-2,8,70
19735,-16,2,6,0,-16,-10,-3,25
19740,1,-3,-15,26,-3,-2,-4,-23
19745,14,6,1,-6,2,1,2,-6
19750,3,10,16,47,10,1,-6,-32
19755,3,-4,2,-12,-3,0,-1,12
19760,-15,-3,-8,-2,3,0,0,-9
19765,-4,-6,-16,-27,-1,0,-1,-2
19770,15,0,6,22,1,-2,-2,2
19775,-33,11,22,68,8,-1,-2,10
19780,12,-13,-59,-55,-26,-8,-6,-35
19785,8,-8,26,18,-6,-5,1,32
19790,-11,2,-22,-31,3,4,2,4
19795,-2,2,6,94,-1,-2,-2,-1
19800,45,12,50,50,13,4,1,-8
19805,-78,-12,-21,-1,-2,-5,-8,5
19810,-25,-7,-20,-56,-9,-4,-4,-30
19815,26,8,-17,-41,-1,3,-2,-14
19820,8,8,11,42,11,3,5,18
19825,19,-9,-15,-49,-8,1,5,70
19830,-39,12,16,4,2,-1,-1,-73
19835,-13,-26,-16,-17,-6,-5,-3,49
19840,-12,10,13,19,2,-3,-3,16
19845,13,3,4,-18,2,1,-2,-21
19850,10,7,17,35,0,-2,-3,0
19855,-1,-3,-15,-39,8,5,3,-1
19860,-9,-19,-3,10,-16,-9,-8,-52
19865,36,-3,1,62,6,-1,2,29
19870,21,7,20,-10,-3,-2,-2,13
19875,-6,-5,-18,35,3,1,0,-25
19880,-13,2,-4,22,11,6,2,11
19885,10,0,20,-47,-10,-4,-4,-32
19890,3,-13,-28,0,1,1,-1,8
19895,13,-3,-5,-119,-23,-8,-8,7
19900,-24,-4,-9,17,3,-1,7,-8
19905,-6,3,6,61,6,1,-1,-19
19910,-5,2,8,24,2,1,1,31
19915,-26,-3,6,-1,1,-1,-3,-50
19920,57,3,-18,-42,0,1,-8,45
19925,37,16,3,-2,0,1,6,26
19930,-19,-2,17,16,2,0,-2,-7
19935,-45,-5,-8,-5,-2,1,3,15
19940,25,6,8,17,-3,-3,-1,-18
19945,-34,-7,-5,-2,5,1,-4,-34
19950,-16,-3,2,-1,-9,-3,-1,17
19955,-6,-13,-5,7,4,0,0,-9
19960,-8,5,-2,-35,-3,1,-5,-8
19965,3,-3,-4,-6,-2,1,-3,-12
19970,-5,0,-9,19,-4,-1,5,30
19975,9,0,18,22,7,0,-3,-8
19980,-3,8,-3,-1,8,5,10,17
19985,0,-10,0,-4,-16,-4,-1,-12
19990,1,2,13,-26,-5,-6,-4,-16
19995,22,11,7,-56,2,2,4,49
20000,8,-4,-1,-28,1,-1,-3,-6
20005,28,7,-22,10,11,5,4,1
20010,0,-9,-21,-8,-19,-8,-9,10
20015,-40,-10,9,51,-6,-6,1,20
20020,-26,1,17,-9,1,1,-3,-6
20025,-6,0,0,-28,4,2,0,8
20030,4,-1,-7,40,6,1,3,-34
20035,41,-9,-38,-45,-2,5,3,-20
20040,18,22,21,40,-9,-8,-2,20
20045,-7,-7,-21,-58,-6,-2,-4,-11
20050,20,-2,-12,-27,4,1,-3,-2
20055,50,21,11,5,2,1,-2,-48
20060,3,-11,4,92,5,0,6,54
20065,8,-7,-15,-49,-8,-3,-2,-46
20070,-16,6,8,-11,6,5,0,38
20075,4,6,10,47,-5,-4,-1,-27
20080,-25,-10,-16,-58,-6,1,-5,-19
20085,-5,2,20,49,2,-2,7,51
20090,25,-8,-7,-20,-1,-2,-1,-8
20095,-70,-12,-8,-5,1,-1,0,-3
20100,-9,4,-23,14,8,3,-1,-10
20105,-14,-10,20,2,-7,-5,-2,-3
20110,-19,0,-2,0,4,0,-3,-12
20115,24,1,1,11,2,-2,6,9
20120,-21,-8,-5,9,1,-2,0,-5
20125,-19,12,14,-35,-7,-1,-6,1
20130,8,-3,2,65,3,-1,0,5
20135,23,-8,-26,-53,-9,-2,0,-18
20140,-40,-13,14,-53,-1,-2,2,-15
20145,21,5,-13,-4,9,6,5,9
20150,-3,6,19,22,-1,-2,-2,-10
20155,2,-5,12,36,0,-3,-4,17
20160,11,-3,-22,1,2,-2,-2,-38
20165,-1,-3,7,26,-3,-3,-2,20
20170,-11,2,2,41,9,0,0,-1
20175,-4,3,7,-36,-9,-3,2,8
20180,-10,1,-6,24,-5,-1,-3,3
20185,29,4,17,-51,-1,-2,2,-15
20190,1,0,-26,19,4,1,2,1
20195,-16,-7,16,-5,-2,-2,0,35
20200,54,12,5,-25,-8,-2,-1,1
20205,9,3,-6,13,13,2,-2,1
20210,-3,-7,10,1,-11,-7,2,6
20215,-22,6,-1,4,5,2,-5,-25
20220,7,0,1,-32,-4,3,5,49
20225,-16,-4,-21,-25,-2,-3,-1,-14
20230,2,-1,8,-9,0,0,-2,-17
20235,75,15,6,38,1,-3,-2,23
20240,-16,-14,-1,41,3,0,-3,3
20245,-40,7,-14,-10,-4,2,-2,-23
20250,-10,2,11,-36,-7,-2,1,6
20255,10,1,2,45,2,-2,-5,-16
20260,-14,-6,20,60,11,0,-8,-16
20265,15,12,2,-16,-8,-2,7,17
20270,3,-7,-6,-1,-9,-1,-1,-4
20275,-28,-3,7,-32,-3,1,-2,-10
20280,17,1,17,-14,4,-3,-2,-3
20285,-5,-11,-7,101,8,0,-6,-31
20290,-4,-4,-7,-120,-9,0,-3,17
20295,-36,-1,5,28,2,1,12,7
20300,-24,-3,-21,-4,-9,-5,-3,-18
20305,38,-4,-21,-18,1,1,-1,18
20310,-6,4,-10,-3,3,1,-4,-17
20315,6,-5,11,14,-7,-2,1,22
20320,8,4,6,-15,0,-2,4,-19
20325,-22,-11,-16,10,-2,-4,-4,27
20330,10,1,-3,36,5,2,-1,-22
20335,-8,-3,-8,-22,2,2,-4,-16
20340,12,8,14,42,3,0,1,-4
20345,37,-1,10,-29,-7,-3,4,27
20350,-71,-4,-5,30,5,1,4,-16
20355,0,-3,4,29,8,0,-9,-12
20360,-29,-7,-5,-87,-14,1,3,-1
20365,-21,2,26,95,5,1,-3,-16
20370,45,-4,-24,19,-2,-4,-2,4
20375,-42,-8,-18,-34,6,2,-1,-10
20380,-19,3,23,15,1,0,-3,8
20385,-9,3,-16,15,3,0,7,-1
20390,9,-1,23,28,9,4,2,1
20395,35,10,-2,14,-3,-4,-7,-2
20400,-4,-11,-11,-62,-11,-4,-3,35
20405,-8,-8,2,-69,-6,-1,1,-5
20410,-1,6,-13,-20,0,-1,-3,-18
20415,-4,0,15,58,3,-1,-1,12
20420,-7,10,18,88,13,2,-1,-13
20425,30,-9,-23,-61,-1,2,1,-18
20430,4,-7,-34,-108,-24,-10,-4,19
20435,-5,-4,16,-1,-4,0,-1,6
20440,22,-4,-17,43,0,-5,-5,-10
20445,52,-4,-10,5,-1,-1,-3,4
20450,-65,-1,14,18,1,-1,-4,-10
20455,4,-9,1,-49,0,1,1,-3
20460,-1,11,2,41,-2,-3,-1,-2
20465,-19,4,-15,-3,7,5,2,-11
20470,42,3,32,81,4,-1,1,11
20475,-28,-7,-3,31,-4,-6,-10,-24
20480,3,2,-4,10,-4,1,0,14
20485,36,-6,11,-29,-4,-4,-5,3
20490,-15,3,-30,17,3,2,6,0
20495,17,-2,-25,-54,-7,-3,2,19
20500,13,-4,-10,-18,5,1,-2,-17
20505,-10,2,17,41,0,-1,-2,2
20510,8,-6,8,-25,-8,0,1,11
20515,13,7,-13,13,1,2,2,-26
20520,-1,-5,1,-64,-1,-1,1,-1
20525,-41,-6,-4,19,-2,-5,-9,-1
20530,9,2,18,-24,4,1,-2,-4
20535,2,19,-9,7,-2,-2,-4,-14
20540,4,-7,-7,5,4,0,-8,-23
20545,-45,-5,17,29,-2,0,9,47
20550,-40,4,8,18,5,3,-1,-21
20555,-14,-11,-5,1,-12,-6,-2,33
20560,-37,-1,-12,32,7,2,2,-24
20565,9,-3,-14,-43,-7,-5,-9,-4
20570,36,1,15,32,2,-1,4,-13
20575,-29,-3,10,-24,0,0,0,25
20580,4,7,3,-23,-7,-1,2,2
20585,-24,-1,-4,22,8,1,-1,-17
20590,13,-6,-8,-28,-3,2,5,5
20595,14,4,-1,-16,6,1,-1,-2
20600,15,5,11,47,-7,-3,1,10
20605,-19,-1,-20,-91,-3,2,1,-42
20610,20,0,25,-64,-7,-5,-7,26
20615,52,-1,-26,86,8,0,4,-2
20620,-85,-22,-13,21,-3,-3,-3,-1
20625,-4,-1,11,20,1,1,-4,13
20630,-3,-3,-6,12,8,2,8,0
20635,-8,-3,10,-39,-1,2,1,-16
20640,71,9,9,36,0,-2,4,45
20645,1,8,0,18,-4,-3,-4,-16
20650,14,-6,-5,66,-1,0,0,-1
20655,-25,1,4,-28,2,3,0,-19
20660,-54,-16,-25,36,4,-1,-5,-12
20665,18,1,-32,-82,-19,-3,-4,-4
20670,18,1,22,58,-1,-5,-3,9
20675,6,7,-5,15,2,0,-5,-57
20680,0,7,21,6,10,6,5,73
20685,5,2,23,55,14,8,13,-11
20690,-96,-11,-10,-21,-6,0,-4,-12
20695,-17,-6,-1,-21,-2,-2,0,5
20700,-5,-1,-11,-28,-1,-2,-6,-49
20705,8,-2,-1,-9,3,0,-2,16
20710,3,4,10,12,3,-2,1,23
20715,21,11,22,22,2,3,4,12
20720,0,-4,-16,-36,-4,1,3,-9
20725,1,1,10,16,4,-1,-1,1
20730,28,-2,-14,-73,-11,-2,-7,-6
