time,emg1,emg2,emg3,emg4,emg5,emg6,emg7,emg8,hand,pose,orientation,testPerson
0,-35,-33,1,-9,-42,-12,-3,15,1,1,100,BueBaby!
5,31,29,-23,15,57,4,-5,-19
10,5,-74,4,-6,-47,-7,-7,-5
15,-4,26,2,-4,24,1,2,5
20,9,-21,11,-5,-40,-16,-3,9
25,-76,4,14,-15,9,4,2,12
30,67,17,-15,7,43,6,3,-9
35,20,-31,0,11,-56,-5,-8,-30
40,3,42,2,1,66,3,-2,-14
45,-20,-45,-6,0,-88,-13,1,20
50,10,63,6,-12,30,-11,-11,-10
55,7,-2,-33,0,3,17,7,24
60,-31,-34,2,6,6,-10,-7,-15
65,31,-12,-12,1,-28,11,4,-2
70,15,40,3,4,24,-7,4,13
75,3,-1,36,6,20,-5,-7,-2
80,-28,-16,-63,-10,0,4,-1,0
85,17,-10,3,-9,-8,-30,-7,15
90,-9,54,1,-1,13,31,10,-2
95,4,-76,-4,8,7,3,-3,-23
100,-19,-1,10,7,-40,-17,-6,-1
105,-6,-37,20,-10,18,27,13,12
110,-16,-95,-36,-6,-1,-13,-5,6
115,-10,26,-2,0,53,5,-3,7
120,-21,-46,-27,-1,-4,11,7,20
125,0,20,-33,-7,22,-16,-4,2
130,4,-3,12,0,-5,8,0,-6
135,27,-68,-27,6,-11,-1,9,-3
140,15,50,42,-1,-14,0,-4,-27
145,-7,26,15,4,24,18,1,23
150,4,40,-24,-21,-54,-27,-1,-6
155,-55,-23,-23,9,15,-12,-10,9
160,39,34,-42,0,2,2,11,20
165,-21,-54,57,4,47,10,-8,-30
170,2,3,-74,-14,-77,-8,-2,13
175,-4,20,54,-7,36,7,2,20
180,14,-1,19,8,-6,-8,-8,-30
185,15,25,1,9,-24,14,3,6
190,18,56,10,-9,33,15,5,2
195,-7,86,76,-5,-9,1,1,12
200,-48,-49,-36,28,-24,-19,-8,11
205,-23,-17,36,-8,13,10,3,-28
210,57,34,-5,7,44,-15,-14,-35
215,-5,3,1,-2,30,37,10,21
220,-1,11,34,-2,12,-13,-2,-10
225,-33,73,-10,11,-43,-16,-6,10
230,-22,-68,15,4,-21,6,5,-2
235,38,43,-55,-12,-37,-23,-7,-13
240,-45,-13,17,-18,10,9,-3,-6
245,30,-55,-16,6,-25,-4,11,47
250,25,10,56,5,-21,17,-3,-7
255,-46,-35,3,24,-41,-33,-20,-40
260,55,-11,-26,-18,85,39,12,-11
265,-15,44,-11,-5,0,5,1,7
270,-78,4,105,19,-28,-12,-9,-6
275,24,-107,-69,-30,-39,-20,-5,7
280,-14,45,11,10,0,3,-5,-22
285,-1,-10,30,1,-73,-19,-9,-19
290,-16,22,-5,-16,100,44,23,89
295,-16,0,12,19,-35,-44,-17,-89
300,-9,-67,-48,-4,29,12,-4,27
305,94,59,58,5,66,18,16,-2
310,-39,-89,-60,-13,-48,-33,-16,26
315,26,-7,18,4,-20,17,14,-48
320,-52,47,23,0,13,9,-2,2
325,-8,-58,-32,5,-25,-24,-6,2
330,6,55,51,13,20,40,6,-31
335,31,72,-16,-18,19,-2,-2,19
340,-13,3,-1,7,-2,-16,-5,-4
345,-49,19,-40,-2,-13,-9,5,24
350,85,35,15,15,23,2,5,14
355,-64,-4,-23,-42,-12,-1,-2,8
360,85,104,13,30,14,39,6,-12
365,-73,-3,59,-4,18,-46,-15,23
370,63,-26,-68,-10,61,18,-2,-45
375,-26,37,46,13,-13,-11,5,62
380,66,-62,-23,-22,-50,-13,13,2
385,-43,-24,-20,-11,30,-16,-10,-1
390,74,-10,-47,1,51,13,-15,-86
395,-49,26,11,23,21,10,16,62
400,-10,-20,-77,-31,-62,-45,-9,-17
405,88,36,-46,-1,1,18,-25,-94
410,-128,6,28,16,1,-3,10,39
415,-55,-87,34,-11,-30,-6,7,60
420,23,23,-65,-3,58,12,-13,-56
425,-46,-42,-18,-8,-41,3,12,34
430,41,63,33,5,-39,-31,10,-2
435,45,-30,-10,16,46,24,-26,-60
440,-55,-12,45,-4,-52,-16,10,59
445,47,-8,18,-4,63,2,0,3
450,-44,-2,20,-8,23,10,22,19
455,46,29,-11,4,-34,8,-13,-44
460,-47,-71,34,-27,94,-22,-15,-20
465,9,51,-31,12,-76,9,4,47
470,-14,76,21,4,11,-35,-12,5
475,-5,-4,28,-15,30,32,17,9
480,98,-4,6,14,4,0,-11,-30
485,-128,-34,-2,6,2,-9,-7,0
490,103,-11,-12,1,-82,-16,2,37
495,-49,18,-9,-9,20,-3,-10,-49
500,-18,-43,3,-6,-95,-7,6,49
505,27,-15,-74,-16,98,45,10,-24
510,2,14,69,-10,-66,-22,-4,26
515,46,-79,-43,13,-47,-7,-15,-78
520,-43,34,47,16,10,3,-6,12
525,-11,-26,-79,-21,-6,-8,-5,-10
530,-72,53,-19,-14,7,-11,-7,24
535,79,47,-16,0,31,18,14,24
540,-126,8,63,7,-45,-18,-2,-8
545,119,15,77,2,23,-16,-7,-40
550,-52,-89,-55,-8,31,34,3,-6
555,-46,-18,4,-10,-33,-24,1,41
560,-28,28,-86,-5,-62,-9,8,67
565,-30,-16,61,-9,57,15,3,-22
570,49,-40,-37,-5,18,-19,-6,15
575,81,91,87,8,19,9,-7,-52
580,-30,-39,32,11,-40,-5,-3,19
585,43,89,-7,-17,-44,-11,8,23
590,-38,-61,-16,26,-8,1,-4,-16
595,-14,21,-44,-30,-47,-11,1,23
600,25,74,45,24,127,14,5,6
605,33,50,-30,-20,-44,2,-3,13
610,-42,-55,4,17,-42,-16,-17,-60
615,7,19,-13,-2,93,39,17,25
620,-62,-5,52,0,-3,-18,-4,9
625,46,-128,-32,0,-51,1,7,27
630,33,75,37,12,35,13,10,-18
635,24,-38,-31,4,-71,0,0,6
640,23,23,-91,-7,41,1,-17,-51
645,-25,51,54,17,4,-1,5,32
650,-12,-5,-70,-31,-18,3,2,-1
655,-58,-43,36,26,-85,-49,-10,32
660,126,61,39,-33,37,47,10,-1
665,-48,-46,-63,3,-13,2,3,-15
670,-70,19,10,2,-10,-20,1,22
675,14,-16,21,-6,61,9,-5,-51
680,-7,0,-51,0,-58,1,-5,-32
685,-50,-81,12,6,35,-4,-11,-17
690,-18,-1,18,-6,5,-6,6,23
695,-20,50,-40,-2,16,-6,-6,39
700,18,-33,5,-2,4,-5,-1,-21
705,-16,52,59,21,-32,18,-2,-23
710,24,-61,-14,-2,-48,-14,-7,18
715,11,37,-25,-21,61,5,17,58
720,12,-71,-58,-14,-34,2,-12,-39
725,2,42,48,8,1,-20,-4,-44
730,-4,15,-30,12,69,30,1,-12
735,-73,0,-5,2,-35,-2,8,65
740,57,24,-6,2,-39,-10,3,-41
745,-6,-1,53,5,18,-13,-6,20
750,-34,39,-34,-23,-10,-8,-8,-41
755,-26,-25,34,10,8,10,0,-19
760,-30,-18,22,7,-59,-2,8,79
765,88,-35,-8,4,-49,-21,-15,-51
770,-5,39,-14,-9,32,22,2,-10
775,15,-45,58,0,-56,-10,-5,-10
780,-21,-25,-5,-6,121,4,3,35
785,10,26,-15,-12,-60,-9,-1,-17
790,-35,-24,6,8,-9,3,-5,0
795,3,28,-2,7,-18,-5,0,1
800,10,-59,-14,-1,32,2,-5,-18
805,-92,-24,-3,-8,15,11,4,9
810,108,27,54,11,16,1,-7,-8
815,-18,-40,-19,4,-66,-8,2,10
820,-3,19,28,-1,22,10,1,10
825,18,66,20,2,33,7,3,14
830,-23,16,4,-9,-40,2,-4,15
835,42,-18,26,15,35,-8,-2,-41
840,-1,39,-31,-10,-19,-10,2,34
845,23,31,16,-6,-5,3,4,11
850,15,39,-10,7,25,30,4,-5
855,-7,23,-18,5,-14,-20,-9,-6
860,-42,-7,15,3,6,-7,5,17
865,76,38,18,9,50,19,14,-2
870,34,-39,-12,-1,-24,-14,-5,-5
875,-37,-60,-17,-15,19,10,-5,-20
880,-17,-22,-29,-1,-17,-17,-2,2
885,20,41,-27,3,-31,-4,2,13
890,7,2,68,-1,-4,-5,2,32
895,12,-16,-42,4,7,-12,-15,-56
900,-11,27,37,-7,10,7,8,19
905,1,-33,-22,-1,45,19,1,0
910,-47,-7,2,5,-17,-4,0,1
915,58,41,15,8,-62,-19,5,46
920,9,-17,38,0,53,18,-5,-36
925,-81,-90,-54,-9,-14,7,6,-19
930,42,47,28,-10,15,-6,-6,-17
935,-38,75,21,7,-24,-8,-1,18
940,36,0,-37,6,-34,-4,5,3
945,28,12,-11,12,-4,-20,-11,-1
950,-26,-22,38,6,-6,36,10,-4
955,2,8,-22,-24,33,11,0,-8
960,-16,43,21,2,15,-10,-6,8
965,31,33,16,8,-9,-4,-2,-28
970,-9,-44,-3,-3,2,3,-2,-5
975,12,23,8,-7,20,6,2,6
980,-29,42,56,13,-35,1,-8,-34
985,-37,-71,-60,-13,-97,-28,-9,22
990,-14,26,-20,-9,87,1,-1,-6
995,2,-10,5,10,13,18,11,34
1000,-54,-33,0,2,-52,-13,-14,-62
1005,26,-1,-17,-31,53,11,-14,-20
1010,25,-18,-10,14,-86,-28,-11,-21
1015,-5,-3,12,-14,98,15,0,-7
1020,-42,-47,-53,1,-52,-7,5,14
1025,-18,19,27,15,17,-3,6,39
1030,-15,-35,-15,-5,19,7,1,3
1035,44,-27,6,-7,0,-20,-18,-39
1040,32,75,37,7,33,25,8,4
1045,9,-17,18,-2,-61,-3,1,16
1050,-29,-3,-39,-24,65,-16,-7,0
1055,-35,16,0,14,-7,4,13,25
1060,17,-15,-16,-4,-9,-17,-2,-13
1065,21,-58,-21,-5,30,10,-7,4
1070,9,-2,-6,12,-79,-19,0,5
1075,-19,4,-14,-7,-9,-5,-5,-11
1080,-19,-29,-9,-25,60,6,7,42
1085,15,83,36,28,18,10,7,4
1090,23,30,21,-2,-7,-7,-5,-22
1095,2,-8,-47,-1,-36,7,0,-21
1100,-7,-43,4,7,-5,-9,-3,27
1105,-23,-4,-18,-13,-40,-15,-2,16
1110,8,22,-1,-3,96,15,5,10
1115,-28,-37,22,5,-24,-2,9,15
1120,68,9,-29,-8,-24,-3,-13,-44
1125,-35,-32,37,21,-24,-16,-1,14
1130,-2,-22,-16,-14,54,30,13,-33
1135,2,38,14,7,-3,-1,-2,-1
1140,-11,23,29,0,-83,-6,1,-5
1145,-30,-13,2,-2,52,7,5,4
1150,-6,-39,-43,7,-7,-8,2,54
1155,6,-17,4,2,9,-9,-6,-24
1160,34,40,27,8,1,7,3,-14
1165,-10,28,-14,-12,21,13,-1,3
1170,-31,-21,-19,10,-52,-23,-8,8
1175,28,11,-6,-19,27,29,12,23
1180,8,-48,-37,-3,-47,-22,-6,-22
1185,8,93,54,-3,73,13,-14,-26
1190,3,9,23,14,-44,5,3,-23
1195,-31,-32,-20,-15,-45,-15,-9,-21
1200,-14,54,-11,18,80,-2,5,42
1205,9,-1,-15,-12,-20,-1,9,-5
1210,-14,-17,8,-9,-8,5,-5,-6
1215,-4,45,36,13,-5,-14,-7,2
1220,35,2,5,0,25,13,15,52
1225,1,-57,-33,5,5,-2,-14,-62
1230,0,-32,-13,0,-22,-2,-4,-4
1235,-16,-47,-13,6,11,-1,-4,-4
1240,2,54,19,-5,-56,-1,-2,1
1245,-40,-65,-14,-6,65,13,7,17
1250,19,26,9,12,-15,-12,6,18
1255,14,-22,-21,-14,-1,19,2,-54
1260,-34,34,13,8,-4,-18,-18,-30
1265,30,-16,-27,-18,-51,0,2,8
1270,-1,3,6,1,20,-8,-10,-7
1275,-21,16,-5,7,82,15,8,47
1280,23,-20,2,3,-63,-2,0,-17
1285,-31,-58,-10,-4,10,-14,-5,1
1290,8,37,22,-12,9,8,4,33
1295,-2,-38,-2,-7,-5,-14,-7,-12
1300,-21,-14,-12,-9,-11,1,-12,-53
1305,-3,22,-14,-13,-32,-11,2,29
1310,6,11,17,3,24,-1,-5,-35
1315,11,9,12,7,-8,-5,-1,31
1320,-27,-6,24,5,10,-4,0,17
1325,25,-20,-16,0,-20,3,2,-23
1330,-33,-44,2,-9,38,-3,-9,-17
1335,46,47,-29,5,-53,-4,6,40
1340,-6,-33,25,12,83,11,-4,-39
1345,-19,-40,16,-16,-28,0,-7,6
1350,-4,12,-42,-13,-17,7,9,6
1355,-4,-23,-11,0,-21,-4,5,0
1360,18,9,5,-2,2,5,-2,17
1365,-25,19,21,21,-106,-28,-1,12
1370,-16,20,-33,-31,83,16,-1,-47
1375,10,-31,24,-7,-43,-5,-5,17
1380,42,10,-27,18,-7,-12,-1,6
1385,6,53,-9,6,71,38,10,-5
1390,-35,-46,-20,-19,-64,-18,-4,35
1395,15,42,17,1,28,12,-2,-47
1400,-32,-49,-23,-10,-16,-1,1,6
1405,-9,26,-20,7,-33,-12,2,-3
1410,17,-26,9,22,-26,-4,-3,25
1415,-5,-21,-8,-5,5,-4,-8,-23
1420,2,11,7,-15,58,24,14,10
1425,-17,18,23,15,29,-13,-5,-5
1430,32,40,32,-12,14,18,6,18
1435,0,-59,-37,2,19,8,-4,-37
1440,-7,38,-8,-10,-9,-21,-8,8
1445,-20,-23,-21,-13,-8,-1,-2,-1
1450,18,37,51,15,-55,-9,7,-3
1455,-45,-7,-15,2,-57,-21,-14,19
1460,42,-14,15,3,84,34,13,9
1465,10,-25,20,0,-4,4,0,19
1470,44,64,13,2,26,7,-3,-19
1475,6,-16,-8,16,8,-2,-1,-10
1480,-67,17,10,-17,-93,-21,-4,1
1485,-8,28,-47,7,86,35,14,6
1490,45,-34,-11,1,-19,-16,-10,-2
1495,-24,30,26,1,29,10,6,-4
1500,47,2,21,6,-45,-16,0,33
1505,-22,16,-37,-13,4,-20,-9,-22
1510,-75,-8,-16,3,-2,10,0,7
1515,44,31,0,-6,-28,-14,-3,-26
1520,-24,-5,24,-2,43,38,4,-16
1525,12,25,-32,-5,-15,-4,0,3
1530,-6,-30,8,10,-43,-19,-4,4
1535,-4,75,29,-7,96,9,6,29
1540,4,-91,-59,-14,-91,-26,-5,-4
1545,27,-5,39,-5,68,20,-5,-25
1550,-31,17,-9,3,-11,-9,-2,-11
1555,-98,-17,-1,2,-35,-17,-5,0
1560,56,18,0,-5,14,-11,5,14
1565,78,20,28,9,-8,20,-5,-11
1570,-10,-46,-25,-6,-25,-12,-3,3
1575,10,-7,19,13,-15,-6,-1,2
1580,-53,-10,-2,-10,36,5,1,10
1585,-16,-10,8,5,-69,-26,-1,12
1590,53,49,21,14,12,16,2,-10
1595,-43,16,-6,-13,23,10,2,12
1600,23,-84,-67,5,-13,-11,-7,-17
1605,-5,33,26,-12,15,19,7,2
1610,-26,-9,-4,15,28,3,-1,-3
1615,37,0,0,-19,5,-1,-1,1
1620,-38,14,14,7,-35,-4,-1,19
1625,-27,0,3,-8,-7,-4,1,-29
1630,43,-24,10,2,4,-13,-10,-16
1635,28,-4,-20,3,-6,7,0,-3
1640,-21,-8,-1,-3,49,14,4,3
1645,-14,-16,3,2,-49,-12,1,17
1650,-15,37,15,-10,-9,-3,-6,-8
1655,-7,-13,-7,6,-4,-6,-7,-22
1660,30,28,15,4,-75,-5,7,64
1665,29,61,-11,-8,85,-15,-7,-41
1670,27,-97,6,-6,-14,25,0,-19
1675,22,7,3,-1,-3,-10,-5,1
1680,-47,18,-7,-8,6,-2,-2,-4
1685,-60,-7,-1,0,14,-11,-2,23
1690,37,16,-31,-9,3,-2,5,4
1695,2,-30,28,0,-6,3,-5,-10
1700,-13,0,5,-2,-13,-10,-6,-15
1705,13,-19,14,7,-27,-10,-3,6
1710,-20,30,-27,-4,1,-3,0,-2
1715,5,-4,-12,-3,2,4,4,14
1720,-76,-1,6,5,10,1,3,18
1725,76,-26,-6,1,-87,-15,2,-7
1730,23,80,23,-6,92,20,-16,-50
1735,10,-24,-12,-3,-42,1,1,4
1740,15,13,7,2,26,3,-3,-28
1745,-48,-15,-5,-1,-18,5,5,34
1750,-41,-2,-9,-5,-50,-24,5,33
1755,14,-4,10,2,18,3,0,-9
1760,21,14,-9,-8,6,3,-6,-28
1765,-7,-25,-36,5,8,-4,-6,9
1770,-25,-7,19,-5,6,5,9,17
1775,18,24,12,3,-13,-2,-6,-8
1780,31,10,-13,-14,32,7,-4,-8
1785,33,-9,-1,4,6,-1,-8,-25
1790,-17,2,-17,2,-30,-3,2,-4
1795,-15,-9,-24,-3,27,-2,0,16
1800,-46,7,17,11,-46,-19,-2,12
1805,6,-7,-9,-20,52,10,-1,-19
1810,16,-26,6,6,-4,-1,-2,10
1815,-8,28,-5,0,-13,-11,-4,1
1820,34,-6,14,5,-7,5,3,-6
1825,-32,23,13,-1,14,0,-3,14
1830,-38,-33,-6,4,-49,-16,2,22
1835,15,-36,-13,-2,33,15,4,-29
1840,33,28,16,7,34,28,1,-30
1845,-22,3,-9,4,-27,0,4,10
1850,16,-26,-8,-7,-12,-18,4,57
1855,-61,61,6,0,-16,-12,-3,-18
1860,58,9,-17,-12,14,8,1,-22
1865,-9,5,13,7,-4,2,-3,-11
1870,2,0,-3,9,-2,-1,1,5
1875,-18,-10,2,14,-56,-16,-4,14
1880,-33,55,20,-11,97,-1,-1,32
1885,43,-60,-36,-14,-13,33,8,-28
1890,-3,29,0,-3,10,-4,-11,-19
1895,17,-15,11,-8,-19,5,6,12
1900,-11,-3,0,3,-45,-27,-8,-10
1905,-15,-2,25,10,-13,-20,-3,41
1910,0,4,-3,-15,11,10,1,-21
1915,69,41,-13,2,-9,0,-10,-38
1920,-5,-10,14,9,-1,2,-2,1
1925,-15,-3,-21,-6,19,5,2,3
1930,-37,-21,2,8,-20,-5,2,4
1935,13,12,-4,-4,-47,-7,5,49
1940,8,-15,-4,4,67,4,-7,-45
1945,-12,6,7,-11,-30,8,-3,-12
1950,2,-8,-4,-4,34,6,1,-5
1955,0,-32,-8,-4,16,4,2,9
1960,-6,-7,-14,3,-33,-2,2,13
1965,-2,7,8,4,-14,-17,-4,-1
1970,5,0,11,-2,-4,-3,-2,-5
1975,1,3,-5,-9,28,12,4,1
1980,-6,-24,-7,13,-24,0,-3,-9
1985,17,22,17,3,3,-12,-3,0
1990,8,10,-4,-5,-8,-1,-4,-9
1995,-15,-15,-4,0,26,12,3,5
2000,-5,-2,-12,-7,-19,-1,2,1
2005,-30,-6,0,-1,-2,-2,-2,6
2010,41,-24,-9,1,-5,-2,0,8
2015,11,8,14,2,36,9,-7,-35
2020,6,-17,-8,7,14,6,0,3
2025,-11,10,1,-12,-6,6,4,-2
2030,-33,16,9,12,-90,-28,-3,27
2035,0,-39,-43,-22,83,35,18,3
2040,14,11,14,0,-16,-12,-8,-21
2045,4,1,11,22,24,10,2,13
2050,0,7,-19,4,-13,2,1,-12
2055,-34,-10,7,5,-26,-12,-5,11
2060,25,7,-9,-7,-21,-12,2,29
2065,34,9,0,-9,22,16,7,-24
2070,-6,10,15,-7,21,2,-8,-11
2075,2,5,18,2,-3,-3,-1,-3
2080,-32,-22,-14,7,-8,0,1,9
2085,-28,0,5,2,-21,-21,-3,37
2090,43,-10,-7,-5,21,13,1,-43
2095,-12,45,16,4,-1,5,-2,-8
2100,-5,-16,-28,-8,-12,-3,-6,-5
2105,-7,-8,0,3,-4,-5,-3,5
2110,-37,21,0,-8,6,2,4,7
2115,24,-15,1,4,-36,-21,-3,21
2120,1,18,-14,-19,34,14,6,0
2125,34,-20,-11,5,22,0,-7,-24
2130,-28,19,8,1,13,-11,-6,15
2135,24,6,6,0,-13,9,3,-32
2140,-31,-9,-18,2,-20,2,2,-3
2145,0,-3,4,7,11,-4,-2,3
2150,9,-4,3,4,1,3,0,1
2155,-15,-1,1,8,1,-12,-7,7
2160,-5,-9,14,-4,-11,1,1,-3
2165,4,4,-7,-9,0,6,5,-7
2170,2,-5,6,-1,1,3,1,-3
2175,-4,-1,-9,-2,1,-3,-2,5
2180,-3,-11,1,-1,-2,-1,-4,-10
2185,-10,-5,5,-5,-19,-10,-3,4
2190,27,53,8,1,4,0,-2,-8
2195,-5,-48,-21,-7,4,1,0,-2
2200,10,3,11,1,0,0,-1,-2
2205,-16,2,-3,-4,-13,-6,-1,-3
2210,-8,-20,-1,0,3,0,-1,1
2215,-1,12,1,0,0,-1,-2,1
2220,2,-3,10,-5,-6,1,0,-3
2225,-2,0,0,6,1,0,1,3
2230,-1,-4,-6,1,7,4,1,-2
2235,-10,2,4,-2,-2,-2,-1,5
2240,21,-6,0,-4,-6,-5,-1,9
2245,-2,10,-1,-8,-3,0,-2,-16
2250,0,-11,0,12,2,0,-1,-1
2255,-7,0,-7,-6,-4,-6,-3,-2
2260,-5,-3,-5,-10,-5,-2,0,2
2265,2,0,-2,-5,-3,0,0,3
2270,0,-8,0,14,-4,-1,0,-4
2275,-2,1,2,12,10,4,1,4
2280,2,7,6,-2,3,1,0,-2
2285,4,2,-1,-14,-8,-1,1,0
2290,-6,-9,-8,-8,-4,-4,-3,-2
2295,4,4,5,5,-1,-3,-1,0
2300,0,-1,-1,-2,1,-1,-2,-4
2305,-2,3,5,21,1,0,0,-3
2310,8,-5,-6,-15,-2,0,2,4
2315,-7,1,-5,-11,2,0,1,0
2320,2,-1,3,17,-6,0,-1,-1
2325,0,-4,5,-21,-9,-5,-3,2
2330,-13,11,-8,-2,0,1,2,5
2335,9,18,6,0,-6,-3,-3,5
2340,23,-27,-14,-9,3,1,-4,-21
2345,-5,1,-3,7,-2,-3,-6,-5
2350,11,-2,14,18,8,1,5,2
2355,-27,16,3,-3,-4,-1,-1,7
2360,2,2,-7,-5,-6,-2,2,13
2365,0,-3,-9,-7,0,-4,-3,-6
2370,-7,-2,-5,-10,3,3,-3,-9
2375,4,-15,16,11,4,-2,0,-5
2380,-31,11,-5,4,-8,-4,0,17
2385,31,-9,-1,3,-69,-29,-4,28
2390,58,-69,-40,-10,78,31,5,-29
2395,-24,19,37,-14,-26,-3,-8,-35
2400,-16,22,31,16,-27,-10,-7,0
2405,-51,-50,-16,22,-36,-48,-13,21
2410,47,86,1,-18,39,11,10,24
2415,46,-93,10,-6,31,6,-6,-44
2420,-43,7,-7,-25,-5,41,9,-14
2425,-24,44,38,11,27,-12,4,23
2430,-128,-63,-24,40,-122,-84,-8,54
2435,109,41,-10,-48,86,91,8,-64
2440,1,55,20,38,22,-18,-6,1
2445,-25,-33,-12,-43,5,46,4,-23
2450,-9,45,34,11,-28,-7,3,31
2455,-61,-53,-38,2,-47,-36,-2,40
2460,-45,-34,-13,-2,5,-5,-4,-33
2465,78,39,-13,1,61,48,10,-5
2470,5,44,38,1,-20,-4,-5,-25
2475,-18,-21,-39,-2,0,0,6,48
2480,42,0,-29,-7,9,-7,-8,-27
2485,-19,23,-4,9,-1,-10,-1,-10
2490,19,17,44,-18,42,32,4,4
2495,-52,-7,-56,0,-61,-22,-9,0
2500,23,-26,38,5,25,-18,-1,1
2505,-22,-11,-6,2,-43,2,3,-3
2510,-31,53,1,-24,-33,-3,-6,-15
2515,23,-32,-16,41,-62,-30,0,-11
2520,66,43,32,-4,86,53,14,36
2525,13,-13,-23,-43,20,18,-6,-43
2530,-4,-30,-9,2,-23,-12,-10,-14
2535,-39,38,38,5,-2,-13,3,26
2540,-21,-34,-33,-2,-66,-21,0,15
2545,-19,-17,25,17,13,5,11,45
2550,55,-5,-16,-5,-3,13,-4,-64
2555,2,-18,26,0,54,16,-3,-2
2560,-5,8,0,-2,-1,-12,-2,3
2565,15,-39,-7,6,29,3,0,-1
2570,-58,-37,-15,-8,-9,-8,1,14
2575,16,40,-3,2,-17,-8,1,1
2580,-3,-31,12,-3,-2,0,-2,7
2585,-21,13,2,2,-7,-11,-3,-5
2590,28,-14,-28,4,-51,-10,-2,17
2595,-38,32,12,-5,80,7,4,-2
2600,49,21,-1,5,-11,3,-6,-22
2605,67,39,30,-1,12,7,-3,-22
2610,-1,-9,-26,-1,10,9,2,10
2615,12,-5,0,-4,45,-15,0,30
2620,-106,28,6,5,-64,-27,-2,9
2625,24,30,-20,-7,33,39,11,-16
2630,-44,5,-16,-8,-68,-31,-4,28
2635,-1,2,-11,0,19,-9,-6,-20
2640,25,29,-3,-1,25,-14,4,30
2645,-23,-44,15,8,-60,-10,-2,-51
2650,-1,17,4,4,51,21,-3,-7
2655,-29,-9,1,-2,-67,-14,-2,10
2660,-15,1,-39,1,4,-7,-4,-7
2665,-49,13,3,-1,-6,-16,-4,27
2670,42,6,-3,6,30,15,11,-3
2675,1,-8,9,1,-89,-20,-5,8
2680,42,3,14,-11,62,46,10,-16
2685,-53,-9,-25,4,12,-24,-13,-2
2690,62,-3,14,3,75,-7,-4,0
2695,29,31,-3,7,0,36,5,-3
2700,-19,-31,5,-12,-64,-5,-2,-4
2705,-17,3,14,10,-58,-22,2,49
2710,9,-2,-17,1,47,20,1,-67
2715,-3,10,-28,-5,-23,-14,-3,0
2720,11,15,34,-2,68,15,10,16
2725,25,-38,-37,-8,-47,-10,-15,-32
2730,-27,22,24,9,-36,-19,-6,13
2735,4,23,5,-4,72,27,5,2
2740,-9,-8,-10,-5,-35,7,-1,-7
2745,-15,2,15,-4,-23,-27,-7,17
2750,-18,-22,-15,4,91,19,4,25
2755,79,34,4,-16,-61,2,-1,-32
2760,-3,9,-37,10,-30,-22,-12,3
2765,18,12,-2,-5,19,8,3,-9
2770,-60,-35,12,0,-69,-25,-10,4
2775,-37,-46,-27,1,-106,-21,7,43
2780,81,4,9,-14,106,47,0,-45
2785,11,55,9,5,-88,12,5,-3
2790,-45,-10,-11,-2,-30,4,4,39
2795,-7,-8,23,5,28,-6,0,-32
2800,5,-44,-42,7,-62,-39,-25,-56
2805,-36,-11,7,5,40,2,4,-2
2810,36,-6,1,-7,-5,6,0,0
2815,-43,16,11,-12,8,2,3,23
2820,-34,16,7,1,-14,-12,0,20
2825,28,2,1,-1,49,3,-1,-5
2830,-5,-18,-12,-11,-20,2,0,-24
2835,0,-18,14,20,17,-4,-1,1
2840,2,28,-14,11,-7,8,8,10
2845,-32,-8,-5,-10,13,3,1,9
2850,29,-10,9,-12,-15,-11,-7,1
2855,-48,21,-6,-2,-51,-9,-14,-42
2860,36,-39,14,-6,75,-9,-2,-7
2865,-12,34,-4,8,-20,14,5,-13
2870,-4,-5,0,-7,-30,5,-5,-9
2875,12,4,8,8,34,0,2,8
2880,-85,-28,-7,-21,-104,-17,2,44
2885,-40,14,4,0,-34,-21,-2,14
2890,117,18,8,7,57,18,5,-37
2895,-11,28,18,10,43,32,4,1
2900,-21,-11,-5,1,-18,-19,-1,9
2905,-17,-7,-8,1,-19,4,4,23
2910,-32,-12,26,-2,26,13,3,8
2915,24,-33,-9,-6,8,-3,-6,-23
2920,6,42,-5,-8,-27,3,-3,0
2925,12,-19,-11,-13,13,2,2,-2
2930,-42,-23,1,25,-15,-12,-3,-4
2935,11,10,6,13,-8,-5,1,16
2940,-20,9,17,-1,8,9,9,31
2945,111,3,12,-4,9,-5,-1,-26
2950,-13,4,-2,-3,15,8,-6,-11
2955,-3,1,-8,-6,-17,-12,-2,6
2960,-70,12,8,13,-5,17,-1,10
2965,28,-29,-11,-13,27,6,6,1
2970,24,17,-6,-6,29,10,2,-21
2975,-16,-7,-1,-7,6,-5,-2,16
2980,-18,-20,1,5,-18,-19,-2,-3
2985,-11,-13,-8,8,-17,4,0,3
2990,9,0,-6,-6,15,2,-3,-8
2995,2,-10,5,-6,-24,-3,-2,-5
3000,14,-13,-6,8,4,-6,-2,-5
3005,0,8,30,14,31,3,-7,-9
3010,-24,2,-31,-8,-55,-8,2,14
3015,4,-12,-9,-9,19,0,0,-1
3020,20,-8,-7,-6,-11,-3,-5,-14
3025,-28,24,7,0,13,0,4,17
3030,14,-34,14,-2,-7,-3,6,20
3035,-21,8,-2,-1,5,4,-3,-29
3040,44,-9,-9,-3,-6,-1,-1,-14
3045,-12,5,-12,-9,36,-4,-9,-9
3050,-43,-6,2,7,-14,0,4,22
3055,12,-13,-13,4,-30,-9,7,31
3060,14,-2,12,2,15,7,0,-14
3065,24,14,-4,-9,16,7,-1,10
3070,3,-1,-4,-6,-11,-12,-8,-22
3075,-7,-6,8,-8,7,10,2,4
3080,-15,-1,0,10,-27,-9,-1,7
3085,-12,-23,-9,3,-5,-10,-3,5
3090,-13,10,-1,2,6,-1,2,12
3095,2,5,-10,-8,-24,-4,-3,-23
3100,13,-17,4,-1,40,16,2,-7
3105,18,16,-4,-10,-4,1,-3,-4
3110,-4,7,8,9,-8,-5,-4,-8
3115,-4,-4,0,24,4,-9,-4,5
3120,-10,-3,1,-10,-7,1,-2,-3
3125,-21,1,-25,-2,2,3,2,-6
3130,8,14,6,-10,-16,-1,2,0
3135,18,-3,-7,-11,16,0,-6,-1
3140,-2,-1,-2,-7,-5,0,1,-6
3145,4,5,6,17,-3,-2,-1,2
3150,-19,-7,-2,0,-4,-4,-1,3
3155,1,-5,0,2,10,1,-1,-2
3160,5,9,4,-6,-2,2,1,-2
3165,-5,-12,-1,-10,-2,2,2,0
3170,-3,3,-1,-8,-10,-3,-3,-6
3175,6,-6,-5,13,14,-1,-1,2
3180,-7,0,-1,8,-12,-3,-2,-1
3185,-20,-7,3,-1,-7,-4,0,-2
3190,-4,-14,-3,-2,-4,-5,-3,-1
3195,23,12,-3,-25,6,13,2,-6
3200,-9,-5,-3,-3,1,-6,-5,0
3205,-2,-5,5,17,-1,-4,-4,-9
3210,-29,4,-1,-1,-7,-4,-1,15
3215,8,2,0,-3,-16,-5,1,-9
3220,8,0,0,-6,31,9,2,-17
3225,3,-9,-4,-1,-5,-3,-4,-6
3230,-5,3,7,12,-11,-1,0,1
3235,-12,-4,0,2,-3,-4,-2,12
3240,-4,-2,-3,-4,-7,-2,0,1
3245,6,1,-11,-17,0,0,-3,-3
3250,10,-1,-3,-20,10,1,-1,6
3255,-1,-2,3,27,6,-2,-10,-24
3260,-14,1,5,-2,-16,-3,15,20
3265,-6,-3,1,-8,1,-1,4,1
3270,6,0,-6,-18,4,8,7,-2
3275,6,-1,-2,-10,0,0,0,3
3280,-15,-2,2,34,11,-6,-9,-5
3285,4,3,4,7,-25,-8,-2,5
3290,-7,-15,-4,2,4,-3,-5,-12
3295,-2,7,1,-27,4,6,3,0
3300,6,-2,-15,-17,-2,1,-2,2
3305,-3,-4,8,3,6,1,-1,7
3310,7,5,3,10,-1,-2,-5,-13
3315,-3,0,2,-4,-2,-1,6,12
3320,2,-4,-6,-8,0,2,-7,-3
3325,3,-4,-6,-37,-2,4,1,-4
3330,-4,2,4,41,-6,-7,-10,-4
3335,5,-5,2,26,10,-3,16,16
3340,5,1,8,0,-7,4,1,6
3345,-12,4,1,-23,8,0,1,-9
3350,2,6,-10,-49,4,9,6,5
3355,7,-3,9,47,-24,-14,-12,-5
3360,-10,1,8,32,-6,-9,-5,-6
3365,1,-8,-5,-5,4,-3,-4,-6
3370,0,-6,-8,-13,1,-2,-3,-1
3375,-1,5,-10,-31,14,13,2,8
3380,8,-2,4,-9,-20,-4,-3,-13
3385,-2,-10,13,6,0,-5,-4,-1
3390,0,9,-19,19,4,0,-2,-1
3395,-5,-1,3,-14,-5,-2,0,-5
3400,-9,-25,2,-3,2,1,-6,-8
3405,37,5,0,32,12,2,2,-11
3410,-50,7,-2,-17,-25,-6,25,16
3415,38,19,10,-12,6,3,-3,-3
3420,8,-30,-12,-12,1,1,0,2
3425,-10,-21,-12,-16,-3,0,-6,-3
3430,12,0,6,14,0,-1,-8,-9
3435,-15,1,-6,6,4,-8,-7,-10
3440,-6,12,5,12,-5,-6,5,8
3445,5,3,-2,5,-10,-7,1,3
3450,15,-1,-2,-14,1,9,2,1
3455,-17,-2,-6,-48,-15,-1,-2,3
3460,11,8,-4,6,8,-4,-7,-4
3465,-36,0,15,50,-7,-3,0,8
3470,25,35,12,6,13,-11,-8,-3
3475,20,-3,-18,-8,9,14,8,0
3480,-15,-26,-11,-33,-1,2,-1,-2
3485,-30,6,-29,4,-21,-5,2,27
3490,13,3,21,14,-50,-18,-3,-2
3495,55,62,34,7,34,-28,-12,-1
3500,27,-15,-3,-7,32,53,8,-45
3505,-49,7,26,-3,-28,-18,-6,0
3510,27,35,-8,-1,23,2,2,58
3515,-118,-59,-6,-5,-76,-22,0,10
3520,101,80,29,19,-7,-45,-14,-60
3525,0,20,7,-4,84,68,8,-5
3530,-3,-29,1,-2,1,-7,-5,-7
3535,-33,-16,-13,-4,-1,16,7,23
3540,-78,-30,-24,1,8,-9,6,45
3545,38,-4,-2,9,-38,-12,-2,-12
3550,-40,22,18,-3,-19,16,-1,-13
3555,83,-7,-27,2,31,3,3,39
3560,-2,3,-3,-8,-103,-17,-13,-90
3565,47,-21,5,-10,78,22,1,-9
3570,-19,-10,-13,-4,-24,-2,-2,-10
3575,-50,-46,-3,8,10,2,0,25
3580,-33,-10,-20,-3,-53,-18,-2,17
3585,18,27,21,2,42,-12,-2,-4
3590,4,36,-11,-4,16,-3,-3,-8
3595,-17,-69,-2,-8,-21,3,-7,-39
3600,-6,51,0,0,70,4,9,64
3605,5,-7,-19,-6,-58,1,13,-8
3610,-6,-45,-27,-9,71,-11,-27,-71
3615,4,62,11,16,-43,10,4,29
3620,-33,-77,-5,-22,1,11,1,3
3625,54,63,10,16,34,-36,-6,5
3630,21,-79,9,-9,-56,9,10,39
3635,-13,34,-22,8,37,2,-2,-48
3640,20,24,9,0,49,19,-2,-5
3645,-54,-55,-5,4,-52,-10,-9,13
3650,18,-66,-16,25,-78,-32,-9,-27
3655,6,50,6,-9,58,47,6,-2
3660,-26,-50,-22,0,7,-7,4,38
3665,35,30,11,-14,-43,-3,2,5
3670,-4,29,-12,-4,17,27,10,11
3675,-33,-72,12,17,21,-13,-3,6
3680,59,20,19,-7,-15,-2,-10,-20
3685,-20,7,-37,-7,-49,-3,4,2
3690,-55,-16,2,-7,-20,4,14,22
3695,72,86,33,11,56,18,-6,-32
3700,-42,26,32,16,-49,-19,-18,-56
3705,0,-67,-19,-20,85,18,-3,-9
3710,36,88,25,3,-56,-19,-8,13
3715,-63,-47,-21,-23,-48,-21,5,40
3720,25,9,2,13,4,-4,21,11
3725,69,21,6,12,20,15,-12,-13
3730,-14,23,-3,5,-31,12,5,-6
3735,10,-65,0,4,-6,-19,-5,1
3740,-93,11,7,-8,22,2,1,-4
3745,-22,-2,1,-8,1,-9,6,36
3750,48,12,1,0,35,-1,-13,-56
3755,-7,30,-1,8,-31,-16,-5,-8
3760,19,-26,-73,-11,58,51,15,35
3765,-13,45,32,9,0,-1,-4,-13
3770,12,3,35,12,-9,-5,-2,19
3775,17,16,6,-1,-14,-12,-5,-55
3780,13,-32,45,3,-10,-1,-3,13
3785,-82,-8,-6,1,-78,-11,-1,9
3790,53,10,11,-2,71,26,0,-2
3795,-59,-17,-30,-7,-63,-21,8,64
3800,103,17,17,1,67,3,-6,-32
3805,-16,25,-23,8,-43,3,-7,-19
3810,-43,-6,-15,-5,35,-3,9,29
3815,56,3,-8,1,-44,-8,-3,-9
3820,-3,-7,7,1,46,16,6,24
3825,-13,-40,-8,-9,-54,-12,0,12
3830,-56,-25,-7,0,15,-15,-5,-16
3835,41,15,-3,-10,-48,10,3,-28
3840,24,76,23,-7,0,-6,-14,2
3845,5,-44,-1,9,25,-1,4,-24
3850,-16,-49,-24,-2,1,15,4,18
3855,-54,2,11,3,9,3,3,2
3860,9,-16,-8,-3,-58,-14,2,39
3865,3,30,9,-7,15,5,-9,-61
3870,29,-4,0,8,-3,-9,-4,-2
3875,-36,24,2,-5,48,7,-1,0
3880,14,-33,7,0,-15,1,11,17
3885,41,15,-5,-1,-15,-7,-10,3
3890,-25,-20,-11,-5,45,11,4,9
3895,18,15,-1,-2,25,-3,-8,-30
3900,-34,-16,-13,9,-23,-10,-3,16
3905,-17,23,11,-7,-28,11,8,18
3910,-12,-13,5,-2,11,-12,-7,-31
3915,39,13,17,-10,-2,15,1,11
3920,-20,38,-9,1,-12,-8,-5,-5
3925,45,-55,-32,1,-15,-14,-3,8
3930,2,-14,-24,-6,14,-3,-5,7
3935,-9,-72,30,-5,0,-4,-5,-10
3940,-13,25,-1,0,-20,-7,2,2
3945,-14,2,-14,-2,3,3,-1,1
3950,8,22,21,0,-10,-1,2,9
3955,-42,-19,-23,8,-16,-9,-3,3
3960,40,10,-4,-4,-37,-4,-7,-22
3965,-10,-13,-6,-14,112,9,3,-3
3970,-6,38,16,-5,-13,11,3,19
3975,32,9,-1,8,-10,-1,-2,-36
3980,-26,-16,9,7,10,-6,-2,5
3985,28,-8,4,-5,-30,-12,-3,16
3990,5,39,-7,3,0,-1,6,4
3995,-42,-38,2,-1,9,10,1,5
4000,10,-20,-26,-7,6,-9,-6,15
4005,-19,-43,-6,-5,-4,6,-4,-14
4010,1,-18,22,6,-13,-3,-1,-18
4015,6,0,-31,-1,29,-1,-1,9
4020,-44,-6,-5,-5,-22,-2,4,-3
4025,8,14,6,-6,-9,-12,4,37
4030,26,46,0,-1,-15,-15,-14,-55
4035,23,0,0,9,40,31,6,7
4040,6,0,-7,9,42,7,1,2
4045,-18,8,-2,2,0,5,5,2
4050,3,-9,4,-2,-34,-10,1,9
4055,10,16,-3,-6,-16,-17,-6,6
4060,-9,-6,14,-3,-14,-6,-4,14
4065,-31,12,5,8,23,7,4,-14
4070,25,1,-30,1,-9,9,5,3
4075,39,21,30,-2,25,0,-5,-17
4080,-2,2,-9,-5,-16,2,2,12
4085,-1,-17,10,17,-2,-14,-5,3
4090,-30,-23,-8,-14,-15,3,1,2
4095,-4,21,-11,-2,9,-4,1,28
4100,-9,-24,-4,-6,-34,-7,1,-17
4105,28,19,6,1,21,-4,-8,-19
4110,3,-8,6,25,44,11,2,-1
4115,-7,-2,-4,-4,-27,-3,-8,-4
4120,-29,15,1,-6,-5,-4,3,11
4125,-12,-8,3,-5,-19,-22,-5,-5
4130,38,31,-6,-11,-16,10,-1,-15
4135,-8,3,-22,0,39,-1,-1,-1
4140,7,3,7,8,9,-1,-3,-11
4145,-11,4,-4,-4,-13,5,3,17
4150,-20,25,18,-5,-9,-11,-2,6
4155,-15,-13,17,2,-31,-6,1,8
4160,15,11,-34,-4,2,-4,-4,-15
4165,19,-15,-19,-6,-8,8,-1,-6
4170,-10,-18,22,-4,21,-2,-1,10
4175,13,22,3,2,-6,-6,-2,-1
4180,-15,-14,9,5,11,9,3,0
4185,-13,14,-4,2,-5,-4,-5,-11
4190,-17,-23,-17,-1,-7,-3,3,17
4195,58,17,2,-5,1,1,0,-5
4200,-8,0,-1,2,-19,-4,-7,-20
4205,21,18,15,-3,6,-1,-4,-6
4210,-37,-11,-7,-4,9,5,8,42
4215,2,-5,-6,1,9,-2,-3,-36
4220,6,-10,10,0,-6,3,-1,5
4225,-14,-15,-3,-3,-19,-2,0,-7
4230,-23,3,10,8,26,-11,-8,6
4235,0,-28,-42,-8,-48,-8,-4,9
4240,48,42,15,6,67,17,1,-16
4245,-18,-1,3,-8,18,16,9,17
4250,24,-14,-7,-9,-33,-7,-3,-8
4255,-49,3,3,4,3,-3,2,10
4260,5,-15,-1,-8,-19,-17,-8,1
4265,14,24,2,7,-29,-9,-10,-30
4270,21,15,-4,-2,23,4,3,3
4275,-20,-45,5,0,1,4,0,-21
4280,-27,-13,-38,-9,0,-3,-3,15
4285,-19,-10,-3,-7,2,-7,6,20
4290,14,-11,-3,-3,-9,-3,-6,-26
4295,23,20,3,5,5,1,-1,3
4300,-1,31,-1,-6,-3,-3,2,8
4305,0,-65,26,5,-47,-9,-8,-12
4310,-4,0,-34,-3,50,19,6,-2
4315,-14,-5,13,-3,0,-4,2,9
4320,-30,7,7,1,-6,4,3,4
4325,76,39,-2,6,12,-3,-3,-3
4330,-3,0,14,1,-22,-5,-2,-4
4335,-24,-63,-5,8,1,-9,-8,-12
4340,2,20,1,-10,-43,-8,-2,-3
4345,-51,6,-2,13,79,47,15,13
4350,11,-5,5,-3,-27,-10,-4,-7
4355,27,19,-6,-4,24,9,5,9
4360,-24,-4,4,2,-22,-13,-6,-8
4365,13,19,-1,-8,-3,-6,5,25
4370,28,0,-3,7,-46,-6,-10,-43
4375,-27,-34,17,4,49,1,-9,-16
4380,13,-35,-7,1,22,11,3,2
4385,-17,11,-4,-10,-2,2,5,9
4390,-4,4,-5,1,-8,-5,0,14
4395,-2,34,10,-4,-37,-15,-3,4
4400,-5,-11,6,0,13,1,-5,-9
4405,6,-6,-6,-5,2,-4,-2,-6
4410,-15,-10,-6,-3,-19,-15,-9,-14
4415,7,37,-14,-3,-36,-8,-4,-8
4420,-3,-17,3,6,62,24,11,21
4425,-36,3,-7,-6,-30,-5,5,25
4430,26,-9,15,5,20,5,1,-20
4435,-5,5,-9,1,-2,2,3,5
4440,6,1,-16,-6,-19,-8,-3,6
4445,-3,24,14,0,-3,-12,-6,-11
4450,-20,-32,11,5,11,2,0,6
4455,1,-18,-24,-10,-5,-5,-5,-6
4460,1,-10,-7,11,-1,0,4,-1
4465,-2,-3,-2,-3,28,8,1,-2
4470,-2,2,3,-3,8,2,2,15
4475,-15,18,1,-2,-15,0,-1,-12
4480,27,20,-2,-6,-11,-7,-9,-10
4485,-16,0,14,2,-10,-6,-1,6
4490,-28,-10,-11,2,-2,2,-1,-11
4495,35,-3,6,-3,14,-6,-2,15
4500,-11,6,-5,0,31,18,6,-2
4505,15,-49,0,9,-11,-3,-8,-30
4510,-7,5,6,-9,15,3,3,23
4515,-22,3,1,1,-13,0,4,-5
4520,-6,11,12,-4,-19,-5,-4,-14
4525,10,-30,-12,5,7,-5,-6,-2
4530,-9,14,7,-3,-21,-9,-3,0
4535,2,4,-5,10,15,-1,-4,7
4540,25,6,9,-6,4,10,5,1
4545,0,1,-41,-4,-2,-4,-2,-9
4550,5,5,4,-7,-12,5,4,34
4555,-32,-10,3,-5,-1,-5,2,-18
4560,38,27,28,5,-10,-10,-12,-36
4565,-14,0,-16,0,-8,-5,-1,5
4570,4,1,-9,-2,-3,-6,-2,-7
4575,-16,-1,1,1,48,17,6,20
4580,-16,-65,-8,2,-26,0,5,9
4585,-24,17,17,-3,10,-1,-2,-1
4590,20,-35,-9,-2,9,-2,-1,-6
4595,8,67,2,-11,-31,-2,-1,2
4600,6,-10,5,6,-25,-14,-3,-8
4605,5,14,9,12,22,-1,-4,3
4610,-24,-10,-28,-13,15,12,-1,1
4615,-21,-20,7,-1,-2,5,5,14
4620,42,-5,-9,-7,6,-2,4,20
4625,-14,64,32,-5,-30,-12,-8,-48
4630,-12,-28,-32,10,8,-5,-7,-18
4635,21,8,0,0,-1,4,-2,-13
4640,-38,7,-1,3,-11,0,2,21
4645,9,-15,-8,-7,-5,-5,2,18
4650,6,19,8,2,20,3,4,-3
4655,-32,-21,0,-1,-20,7,1,4
4660,21,-18,-14,-7,14,-2,5,19
4665,56,40,6,-5,-17,-2,-9,-32
4670,-2,21,27,0,1,-8,-8,-6
4675,-13,-20,-5,9,9,3,3,7
4680,-27,-10,4,3,-16,-6,-3,0
4685,-9,-18,-7,-2,26,18,7,15
4690,11,3,-6,3,-12,-3,4,6
4695,7,5,2,-9,10,4,1,5
4700,-5,23,7,-10,-10,-9,-5,0
4705,0,-57,-39,16,-7,-9,-7,-17
4710,-7,15,15,-5,12,10,0,1
4715,18,-14,-14,0,-22,-11,-3,0
4720,-2,13,4,0,27,4,-4,-3
4725,-10,-3,3,-5,-2,-5,5,15
4730,-31,-9,0,-2,-16,7,5,14
4735,21,-22,-1,-7,-5,-6,-1,-6
4740,64,71,0,-6,9,5,-5,-31
4745,-16,-22,-8,4,-5,-13,-12,-3
4750,10,2,13,3,-10,-3,-3,-6
4755,-14,9,3,2,2,-4,-2,9
4760,-39,-27,-14,0,-19,-3,0,0
4765,4,-3,4,3,-1,0,5,3
4770,-9,4,-6,-17,44,20,6,23
4775,23,-5,5,-1,-6,-1,7,-13
4780,-2,-22,-12,6,3,-8,-10,-15
4785,18,36,6,-12,-12,7,-5,2
4790,-2,-20,-1,13,-14,-16,-6,-11
4795,-2,17,7,-3,0,-3,-1,5
4800,-13,-10,1,-2,4,0,1,0
4805,-26,-11,9,-3,-4,-3,3,10
4810,-37,3,-3,-14,-8,-2,8,32
4815,80,39,6,15,18,5,-8,-37
4820,-17,1,-13,0,-6,-6,-1,-4
4825,-3,-9,9,1,12,8,3,8
4830,0,6,-3,4,-8,-8,-5,-14
4835,-15,10,1,-6,-10,-1,-1,8
4840,-15,-16,-2,-3,6,0,0,3
4845,1,0,-1,-7,-4,0,1,2
4850,7,5,0,13,-11,-8,-5,-15
4855,-13,-19,-9,-13,21,-9,-3,13
4860,-41,7,3,-10,0,30,18,20
4865,17,-63,-16,6,12,0,2,-17
4870,50,48,16,6,8,3,-14,-35
4875,-6,-22,-39,2,-31,-10,-6,-4
4880,-22,-9,2,0,0,-11,-5,4
4885,-11,10,3,-10,-12,4,5,25
4890,-3,-10,-5,-4,1,-1,1,-1
4895,-3,-6,7,0,6,-1,-4,2
4900,-14,5,7,6,-16,-5,4,17
4905,6,0,-12,-13,17,13,4,-15
4910,36,4,-1,1,-3,-6,-9,-15
4915,-2,2,-9,3,14,4,-5,-1
4920,1,-6,-1,6,2,3,2,2
4925,23,13,9,0,-20,-12,-7,0
4930,-14,24,-9,-1,-3,-3,4,8
4935,-10,-73,9,-8,-11,2,2,2
4940,3,-18,19,-1,11,-6,-5,-6
4945,-18,12,-15,11,26,9,2,-2
4950,1,3,4,4,-6,5,2,3
4955,-10,22,-10,0,-20,-4,0,19
4960,5,0,-7,-4,5,-8,-11,-46
4965,4,-3,5,-2,-6,-3,-1,-4
4970,-9,-16,-4,-3,-5,-4,1,3
4975,1,14,9,3,-10,2,1,-4
4980,-2,-5,0,1,-15,-2,3,13
4985,-15,5,0,-11,33,15,3,14
4990,15,-11,-11,0,3,-1,-2,-17
4995,-23,-6,-3,1,-11,-7,-10,-15
5000,44,31,2,3,-3,-9,-13,-12
5005,-7,-35,0,1,-14,-3,2,6
5010,-18,-18,5,-4,0,5,10,14
5015,-2,0,-2,-6,12,7,6,5
5020,-15,9,-12,-5,0,0,2,1
5025,6,27,14,2,-28,-12,-7,-11
5030,-9,-15,-40,-4,13,-2,-5,-15
5035,-17,21,9,6,1,-3,-3,-3
5040,39,-18,-8,5,14,6,0,-9
5045,6,23,11,-4,-6,2,4,29
5050,-12,-17,19,-1,-26,-4,-5,-8
5055,5,8,-32,5,16,-11,-2,-5
5060,-19,22,1,-11,-7,5,2,7
5065,20,-10,-3,6,-12,-8,-4,5
5070,4,3,12,-5,4,3,2,11
5075,-26,-1,2,4,9,0,-1,-5
5080,29,-11,7,-2,-13,-5,0,3
5085,-9,27,3,-1,5,1,2,-20
5090,-35,-8,4,-1,-9,-4,-5,-1
5095,34,-1,-5,-9,-8,-2,1,3
5100,-9,-9,-4,1,11,5,1,4
5105,17,-2,-6,3,0,-2,-4,10
5110,24,28,18,3,-21,-6,0,-1
5115,-35,-13,-1,3,45,17,2,-18
5120,11,12,0,-7,-10,0,1,-6
5125,-9,-7,0,1,2,-5,-1,-1
5130,-9,-11,-7,3,3,0,-5,5
5135,2,23,4,-8,-24,2,7,18
5140,2,-23,-2,-2,4,-2,-2,-13
5145,-12,2,7,0,12,7,-5,-19
5150,6,0,-8,0,-1,-2,-3,-5
5155,-1,-29,-9,0,16,4,-2,-1
5160,0,-3,12,-4,-27,-12,-2,17
5165,6,-6,-13,-9,4,2,4,12
5170,17,9,16,10,13,2,-3,-19
5175,6,12,12,0,-16,-3,1,3
5180,-12,0,2,5,-2,-2,-1,4
5185,-13,-23,-9,-4,4,-7,-1,1
5190,-22,-6,-5,-2,11,-7,-1,16
5195,27,8,9,-6,-14,8,4,-13
5200,7,13,-5,-6,3,2,-6,-20
5205,-26,8,19,-3,4,11,0,-6
5210,24,6,-7,5,1,-5,-2,4
5215,-8,-19,-9,-1,-5,-5,-3,6
5220,-20,-6,3,2,11,6,4,10
5225,9,-2,-20,-7,-4,-3,-1,2
5230,-6,3,6,-2,-16,-1,-4,-18
5235,14,21,8,5,-2,2,0,1
5240,-5,-11,-8,3,0,-2,-3,-7
5245,-21,2,-2,0,3,-6,-2,21
5250,-36,-41,-14,-13,-16,-6,7,12
5255,59,35,14,-2,14,1,-10,-44
5260,-19,-17,-31,7,-19,-5,-1,-2
5265,5,24,15,-2,13,-4,0,-4
5270,-13,-33,-9,-1,-7,7,0,12
5275,-3,-7,0,-5,6,-2,0,8
5280,-17,-5,0,-4,-1,-1,0,5
5285,10,10,-7,0,-16,6,3,-7
5290,1,-2,1,-2,17,-3,-2,-16
5295,-2,4,8,-1,-17,3,0,6
5300,7,1,-2,3,8,-4,-3,2
5305,-20,-20,0,6,1,-4,-6,-9
5310,-19,33,4,0,-6,7,4,9
5315,34,-55,2,-3,11,-1,-4,-10
5320,0,30,-27,-3,2,5,-4,-11
5325,1,-1,3,1,-10,-10,0,5
5330,-1,3,-2,-4,-4,11,5,10
5335,-44,2,3,3,-2,-7,0,11
5340,41,2,20,7,15,-1,5,17
5345,3,-4,7,-5,1,4,-6,-18
5350,4,-3,-35,-6,-13,-2,4,-11
5355,-25,13,-1,-2,7,-4,-5,-3
5360,6,-7,-1,2,-4,2,2,17
5365,15,11,14,2,-7,-6,1,-6
5370,14,-1,17,-7,-5,-2,-4,-11
5375,-33,9,-16,7,-8,6,5,9
5380,27,4,17,-2,24,-3,-6,-9
5385,11,-22,-55,-5,-9,-3,-3,6
5390,-1,3,6,1,10,1,-3,-6
5395,17,-5,3,2,-11,-5,1,9
5400,-38,3,11,-2,11,-3,1,-3
5405,-4,-1,12,-3,-27,1,-2,-18
5410,6,12,7,6,51,2,-3,9
5415,-8,2,3,-5,-6,-2,3,13
5420,13,1,5,-3,2,0,-3,-20
5425,-3,1,7,-1,-16,-2,1,-3
5430,3,-10,-12,2,16,-2,-2,9
5435,-28,-17,-2,-2,-8,-4,-1,-14
5440,3,3,22,0,8,8,-3,-13
5445,13,9,-12,2,-3,2,-1,-4
5450,-2,-18,17,1,-18,-9,-8,4
5455,5,1,-21,2,12,-3,-1,-3
5460,1,-7,1,-14,-24,7,5,13
5465,-21,-13,9,4,6,-3,-2,-7
5470,30,5,-17,-4,1,-4,1,14
5475,6,-1,13,-2,1,-5,-7,-21
5480,-7,10,-3,3,-14,-5,1,2
5485,-17,-17,4,5,36,3,3,5
5490,-20,7,1,-5,-10,4,5,9
5495,11,1,-5,-5,-13,1,-2,8
5500,10,-4,-6,3,-6,-5,-3,-19
5505,-39,-2,4,0,15,-6,-5,-7
5510,31,18,-3,-5,-42,-10,1,4
5515,18,-32,-16,-9,41,13,5,18
5520,-33,-6,-9,-1,-7,0,-2,-18
5525,6,12,1,13,8,-1,0,5
5530,8,-2,-4,-2,-33,-1,-5,-14
5535,-12,-4,7,-2,-11,-7,2,13
5540,-14,-19,5,-10,3,-8,-7,7
5545,16,-1,-24,-7,-20,-4,0,-3
5550,-12,-8,-1,-3,26,6,1,1
5555,16,16,14,6,-21,4,0,-12
5560,-4,12,-3,4,21,-3,-2,10
5565,24,-7,-7,-11,-12,3,-3,-1
5570,9,19,28,8,0,-6,-5,-22
5575,1,-42,-2,-4,-11,-1,-9,-6
5580,-22,14,-28,7,13,-3,5,7
5585,4,-6,7,-2,-6,17,9,24
5590,-5,0,-4,6,4,-4,4,7
5595,4,9,8,-2,10,-5,-2,-7
5600,5,2,11,-3,-22,-7,-3,3
5605,-1,0,-1,-1,-3,-5,-2,3
5610,-53,-5,-15,-9,27,10,3,7
5615,39,5,2,2,-18,-6,-5,-29
5620,14,-9,-6,3,13,6,-3,6
5625,-8,8,23,-4,26,-2,-1,-5
5630,3,-10,-6,2,-12,-4,-3,-4
5635,-18,18,-3,0,-26,-7,1,20
5640,-5,-11,-2,-5,18,8,3,-4
5645,15,13,1,1,-2,-11,-6,-14
5650,-8,13,-6,9,3,7,1,0
5655,-14,0,-5,-7,1,5,5,23
5660,5,-12,2,-6,-14,-6,-3,0
5665,-14,3,-5,4,-3,0,-4,-13
5670,-2,0,13,-2,6,-10,-6,-12
5675,9,16,-5,9,5,2,1,12
5680,-30,11,-12,-11,-29,5,2,-9
5685,34,-20,0,-4,34,-2,-3,8
5690,-1,-6,0,-2,-7,9,-1,-2
5695,-14,-7,4,-5,1,-5,-1,-1
5700,15,5,9,5,-26,-10,-7,-10
5705,-6,31,9,5,12,-3,3,6
5710,9,-54,-28,-16,-20,1,-1,-5
5715,-11,5,-1,-3,-8,-7,-8,-11
5720,7,-13,-7,2,29,6,8,12
5725,-39,8,7,-12,-27,-6,-5,-10
5730,11,-10,5,13,7,-4,-1,-8
5735,3,6,2,4,21,2,-1,-11
5740,16,-4,2,-3,-29,0,3,3
5745,-1,-20,5,-3,16,4,-1,6
5750,-16,22,4,-1,-40,-4,-3,9
5755,32,-12,-5,-7,22,5,-6,-27
5760,-13,8,0,-1,26,-4,-6,-3
5765,-4,-29,-10,3,-8,-3,3,7
5770,-19,7,1,-8,-23,-8,-6,-6
5775,5,10,25,7,-10,3,4,8
5780,0,-4,-13,4,18,3,4,27
5785,-4,5,-12,-7,-20,-1,-6,-42
5790,29,-6,7,1,21,-8,-4,-10
5795,-7,15,4,0,-4,-1,2,16
5800,-18,0,-9,-3,5,3,0,-3
5805,1,12,8,7,-8,0,1,15
5810,8,-5,2,4,10,1,1,-4
5815,17,2,-5,3,18,4,2,-10
5820,-20,-9,-6,-11,-31,-4,-2,0
5825,5,-5,-31,-5,-18,-5,-1,9
5830,-2,-3,0,1,23,5,-1,0
5835,-17,-4,-19,-3,-10,-1,5,14
5840,6,1,14,11,3,-11,-8,-11
5845,11,-38,-9,5,-11,9,1,-10
5850,13,52,17,1,28,2,2,1
5855,-21,-32,-23,-10,-17,-7,-4,8
5860,5,2,4,-3,-12,-5,-4,-10
5865,-25,8,11,0,13,7,6,18
5870,5,8,-2,-8,-22,-10,0,-1
5875,10,-11,22,15,6,8,-4,-20
5880,14,14,4,4,17,12,1,2
5885,-3,-6,-5,8,2,-4,-1,9
5890,-60,-24,-12,-17,-3,4,6,12
5895,35,23,-8,-10,-26,-11,-6,-8
5900,-8,-12,1,3,16,-3,-9,-15
5905,6,12,4,6,5,-3,-2,3
5910,10,-19,13,0,15,6,-1,4
5915,-33,3,1,-2,-7,0,2,0
5920,26,10,-29,-1,13,5,1,0
5925,1,-12,3,-13,-14,-3,-2,-8
5930,-3,-11,-9,5,-14,-11,-7,-2
5935,-8,11,8,1,17,3,1,6
5940,-5,-1,-1,-6,-1,3,6,10
5945,2,3,-6,-1,1,-3,-4,-10
5950,-13,17,5,6,-13,-4,-4,-13
5955,8,-35,-12,-4,7,-2,1,7
5960,8,11,2,0,-1,-5,0,-4
5965,15,24,7,0,-7,-1,-4,-6
5970,10,-21,-1,2,-4,2,1,3
5975,-24,9,4,-10,-18,-9,-4,0
5980,18,-24,3,-3,12,4,-1,-14
5985,7,45,21,5,0,-2,2,0
5990,2,-6,-21,-1,-2,2,2,1
5995,-9,-2,-2,5,17,3,2,-2
6000,-5,-7,0,-4,-22,-9,-5,2
6005,-10,-13,2,-4,-17,-5,-1,3
6010,4,9,15,1,28,6,0,5
6015,-4,-3,-35,4,7,9,7,1
6020,6,-5,14,1,5,1,-5,-21
6025,0,-3,-5,0,4,0,-2,0
6030,-9,7,-2,-1,-7,-4,-1,-2
6035,6,9,0,-10,-6,-7,-4,0
6040,-20,-45,-2,-1,-12,-3,5,22
6045,-3,7,-16,6,-8,-13,-10,-13
6050,23,-31,-23,-20,17,16,5,-1
6055,-5,11,17,10,15,-8,-6,-8
6060,-25,21,-1,-7,-39,1,3,-1
6065,2,-29,-18,-1,13,0,-2,0
6070,-6,20,2,-2,-11,-6,-4,3
6075,0,-3,8,0,-6,-6,3,5
6080,14,2,-3,-5,12,9,2,9
6085,-30,-4,5,-3,1,-2,-5,-28
6090,13,11,7,15,-7,-1,-2,-12
6095,-13,-8,-11,-3,13,3,-1,1
6100,7,13,0,-1,-10,-6,1,12
6105,9,1,-3,-5,-1,1,1,1
6110,-10,0,-5,7,17,10,2,5
6115,-2,7,34,-6,-11,3,-3,-7
6120,-39,-21,-25,2,11,-6,-4,-7
6125,39,24,2,4,6,9,4,13
6130,-5,-34,-3,-5,-4,-11,-8,-12
6135,6,16,-2,1,-6,-2,-3,-2
6140,-19,-2,6,-4,-6,-5,-3,-7
6145,-5,-7,2,-4,-8,-2,4,14
6150,11,6,4,4,-4,10,9,17
6155,25,0,5,9,20,8,-3,-16
6160,17,13,-12,-3,-8,-4,-4,-3
6165,-5,-15,2,-1,5,-6,0,6
6170,-6,-6,-1,-11,-10,-8,2,10
6175,-8,8,2,6,3,-10,-4,2
6180,-8,19,36,4,7,15,1,-5
6185,-5,2,-26,-7,-25,-6,-1,3
6190,16,-6,-2,-6,21,7,4,4
6195,7,6,-6,2,-15,-3,-2,-6
6200,0,-7,-3,3,20,-11,-7,5
6205,-16,-4,-10,-6,7,2,3,10
6210,-20,-4,0,3,6,-2,-4,-21
6215,-5,-3,-9,-9,-10,-2,-4,-10
6220,15,5,2,-3,-16,-4,0,1
6225,-23,7,13,4,5,10,5,6
6230,28,0,-16,1,-7,-12,-5,-2
6235,0,7,-18,-8,-4,0,3,13
6240,-2,-41,-22,-3,-5,2,-1,-5
6245,6,-6,29,-1,11,-4,-3,-3
6250,-22,26,-2,2,20,10,1,-9
6255,16,-16,3,3,-23,-6,-2,9
6260,-8,18,14,2,19,-2,-4,-14
6265,5,-12,-12,-1,-21,0,0,0
6270,-6,-13,-1,-3,5,-8,-8,-2
6275,-13,-1,1,-8,3,-2,2,-3
6280,-6,24,3,10,7,8,5,18
6285,19,9,-1,-2,-12,2,2,-8
6290,39,21,17,-2,-4,-3,-8,-11
6295,-26,-13,-4,2,4,-2,1,2
6300,9,-9,-4,-5,-1,-3,2,22
6305,-16,-4,-10,-1,13,0,-3,-33
6310,-7,-7,4,-1,-17,-8,-4,11
6315,14,10,6,-7,-22,2,-2,-14
6320,4,11,0,4,21,-3,-4,-5
6325,2,-25,2,-2,7,1,4,15
6330,-12,26,9,10,-13,-1,1,4
6335,17,-5,-4,-1,6,-2,-6,-3
6340,22,11,1,5,-12,-1,-1,-17
6345,11,-5,1,-14,-2,6,2,13
6350,-8,-6,-12,-2,-5,-1,0,-3
6355,-22,-14,-3,2,6,-1,2,8
6360,-12,0,-11,-4,-2,-2,-2,-5
6365,10,15,18,5,1,3,-3,-3
6370,8,-6,-12,-4,-8,0,0,3
6375,-7,1,-6,4,6,-3,-3,2
6380,14,-11,5,-8,-11,1,2,-4
6385,-25,5,20,6,-19,-13,-9,-12
6390,-8,-4,-13,-21,-1,4,-2,-9
6395,14,13,8,12,2,-11,-2,2
6400,11,-1,-8,-5,18,14,2,9
6405,1,3,-8,6,5,-3,-2,-5
6410,-3,-5,3,5,-14,-5,1,2
6415,-8,-7,-7,-12,-14,-4,3,4
6420,8,0,15,1,-4,-1,-1,-14
6425,4,-1,-9,-7,12,4,-2,2
6430,-26,9,-4,0,18,-4,2,-2
6435,5,4,16,7,11,10,-3,0
6440,-9,-6,-3,0,-12,-9,-2,1
6445,0,6,-20,-4,5,-3,0,8
6450,8,2,7,-4,-8,0,0,-1
6455,-33,-70,-1,-1,11,1,3,6
6460,16,6,-12,-4,-8,0,-6,-18
6465,-16,7,-5,1,-9,-9,-5,1
6470,34,8,7,-1,1,5,2,8
6475,-21,13,-4,-3,-4,3,-1,-11
6480,-21,-4,4,-1,6,-7,1,7
6485,1,-17,3,7,-2,0,-1,0
6490,-4,-6,-4,-3,-4,-5,-4,-6
6495,9,22,-5,-2,-11,2,2,-3
6500,-13,-24,-4,-3,4,1,-3,-2
6505,1,13,10,0,15,1,1,4
6510,-25,-14,-18,1,13,2,10,29
6515,51,14,21,2,-4,-4,-6,-20
6520,12,16,-6,2,-14,9,4,14
6525,6,-11,0,-6,4,-11,-8,-7
6530,6,-6,-5,4,-11,4,1,1
6535,-35,5,-11,-10,19,2,1,1
6540,-7,2,9,11,7,3,3,1
6545,-1,-10,-6,-4,-1,4,0,1
6550,16,-1,13,9,-26,-9,-8,-16
6555,8,-6,-1,-6,10,2,-1,14
6560,-3,7,-7,-9,6,-8,-2,-8
6565,-5,1,-10,-3,0,5,3,9
6570,3,3,10,2,3,1,-3,-14
6575,-8,-4,-13,1,-11,2,-4,-7
6580,15,-30,-8,2,-3,-12,-2,4
6585,40,16,7,-4,-12,10,11,35
6590,-6,7,14,-6,7,-4,-6,-33
6595,5,0,-16,0,-5,0,3,1
6600,-21,-2,11,1,-2,-1,-2,-5
6605,-21,24,-4,-4,4,-4,-2,-3
6610,13,-15,-3,3,10,-1,-3,6
6615,1,22,8,1,-28,-6,-3,-4
6620,-15,-32,-1,-1,8,1,0,-8
6625,-11,-21,2,2,-29,-4,-2,-11
6630,-11,10,-13,-7,63,12,4,10
6635,-5,-2,-9,-5,-12,-10,-1,-3
6640,27,5,0,-16,-16,-6,1,11
6645,14,-2,-12,7,-11,-3,-9,-20
6650,-9,6,22,24,-3,0,1,-3
6655,-7,16,-1,-3,22,5,4,8
6660,-8,-1,12,3,13,4,-1,-7
6665,0,-7,-6,-4,-8,-3,1,1
6670,-7,3,-2,-8,-17,-6,0,17
6675,-1,8,-3,3,7,3,4,-1
6680,-41,24,39,5,-11,4,-2,-18
6685,13,-21,-44,-4,0,-3,-7,-10
6690,-15,-5,-11,-2,23,1,-1,4
6695,51,-5,13,-5,-8,5,5,9
6700,-6,7,-16,-2,-14,-11,-3,8
6705,-21,-4,12,-5,-5,1,-2,-2
6710,-7,-18,-2,2,-18,-13,-4,-8
6715,8,13,-9,-4,3,5,-4,-2
6720,-5,-54,-10,0,19,10,6,9
6725,-7,-7,4,12,8,-8,-5,-24
6730,11,9,-17,0,-19,5,3,8
6735,-18,0,6,-1,7,-5,-4,-9
6740,4,-1,-10,-8,-18,-1,-2,-1
6745,-7,2,11,-3,7,5,4,3
6750,3,5,-3,-10,-6,0,0,0
6755,-30,-4,13,12,11,1,-5,-13
6760,45,14,-11,0,-15,-7,-5,5
6765,-16,-21,-3,5,18,-3,4,10
6770,3,21,3,-3,-21,-1,2,-12
6775,30,-4,1,-12,-13,3,-1,-7
6780,-11,31,1,11,25,3,-4,-7
6785,-4,5,15,-13,-6,0,3,2
6790,-11,-16,-8,-2,-11,-6,-3,-4
6795,-12,-1,-6,0,4,0,4,22
6800,-4,-5,-12,-8,-15,-6,-6,-15
6805,-13,-4,12,11,13,4,-2,-8
6810,14,21,-1,-3,-6,0,-1,7
6815,-1,-24,-11,5,-8,3,2,-3
6820,11,11,-3,-3,30,8,0,1
6825,-11,9,0,-8,1,-4,-1,5
6830,24,-13,12,-5,-15,-5,-3,-1
6835,-22,-8,-29,5,-8,-10,-6,-9
6840,-19,-20,9,-5,-47,0,1,1
6845,17,10,-1,2,37,5,-1,3
6850,27,33,24,13,39,0,2,1
6855,-6,-31,10,-17,-13,15,4,1
6860,-21,-9,-31,2,-13,-12,-4,-10
6865,4,-12,-5,1,-12,1,2,8
6870,-21,-20,-9,-1,1,0,-4,-6
6875,10,13,11,0,-20,-10,-2,8
6880,-2,4,15,6,38,-2,-1,2
6885,-13,-11,-21,-11,-14,8,0,-12
6890,11,22,7,-2,3,2,-1,0
6895,-32,-7,-4,-7,4,-6,-2,3
6900,41,2,-4,12,-5,0,-1,7
6905,7,4,3,-4,-16,-5,-2,0
6910,-14,-10,-9,-4,-3,-1,-4,-3
6915,3,-7,3,3,-14,-5,-2,-2
6920,-17,28,20,-6,24,-1,-1,-6
6925,15,-27,-26,2,-7,-12,-6,0
6930,7,3,-5,-2,6,13,4,6
6935,-11,18,8,-5,10,-1,1,-5
6940,-8,-7,-17,-5,-15,-5,1,-8
6945,5,41,19,9,14,8,-3,-14
6950,-49,-36,-24,-10,-17,-2,-1,3
6955,52,4,-10,13,33,-1,-3,-2
6960,9,9,18,4,-5,0,3,10
6965,-13,-12,-26,-17,-20,-2,2,3
6970,7,-3,-4,6,9,-3,-7,-10
6975,-26,-3,1,5,19,2,0,3
6980,4,20,13,0,-12,5,1,-2
6985,9,-16,8,6,2,-7,2,10
6990,9,-1,3,-11,-13,-1,2,13
6995,-24,-9,-25,-8,-4,-6,-3,-33
7000,-13,8,-1,-3,2,-1,-5,-12
7005,11,-3,-4,4,-1,-2,-2,10
7010,7,-6,10,0,-10,-4,-3,0
7015,-31,-6,0,4,3,-6,-2,8
7020,26,-16,-13,-6,20,1,-1,-2
7025,9,25,20,-4,-6,4,2,-8
7030,-19,-31,-34,-5,0,-3,-5,-3
7035,9,14,-3,14,10,-5,-3,5
7040,4,-9,-4,-11,-37,8,6,12
7045,10,4,1,-5,4,-5,-6,3
7050,4,-3,-2,1,6,0,0,-15
7055,1,11,14,-4,-9,5,3,18
7060,-21,-13,-5,1,-2,-4,-5,-36
7065,-14,7,8,2,24,7,1,-3
7070,1,17,8,2,-7,-1,4,15
7075,8,-19,5,-7,-21,0,-5,-9
7080,-8,-10,-26,3,4,-6,-2,9
7085,23,12,0,-4,17,3,2,-2
7090,-23,-12,10,10,-4,-2,1,-5
7095,30,17,6,-5,-21,-5,0,16
7100,-6,12,6,6,12,0,-6,-1
7105,-10,-40,-11,6,-11,3,-2,-10
7110,27,10,7,-3,1,-2,2,12
7115,-9,-2,0,-2,12,9,3,-15
7120,-7,0,0,-10,-9,-7,-1,5
7125,-7,11,20,2,0,-9,-8,-1
7130,5,12,-6,7,-2,-5,-4,-8
7135,12,-62,-15,-14,-3,9,0,0
7140,-13,5,1,-1,6,-4,-3,4
7145,-11,3,-1,5,16,5,3,2
7150,-1,6,9,-5,-20,-6,-3,-7
7155,-11,1,-1,-1,-6,-2,-1,-6
7160,2,-3,-5,6,3,1,-2,-5
7165,11,4,9,-1,20,-3,-2,6
7170,-2,0,-14,4,3,11,9,11
7175,-14,-4,6,12,9,-6,-6,-34
7180,19,-12,-2,-6,1,3,-1,7
7185,-26,54,-4,-10,-28,-2,3,1
7190,-28,-13,9,-4,4,-2,-3,-13
7195,26,13,-5,0,31,-5,2,18
7200,13,15,7,4,-14,-3,2,11
7205,-28,-25,11,-2,11,4,0,-6
7210,29,-7,-18,5,0,-2,-1,8
7215,10,13,9,-2,-11,-4,-2,5
7220,-13,-6,2,-5,-6,2,3,-3
7225,0,11,2,1,-1,-4,0,8
7230,-16,-15,-5,0,0,-7,-5,-10
7235,13,0,-27,-6,-3,12,6,11
7240,0,2,19,4,1,-3,-5,0
7245,6,-4,-5,-6,-7,-6,0,-9
7250,8,-12,-5,2,4,9,1,-3
7255,-8,-7,15,2,5,-4,-2,3
7260,0,16,-4,-7,-7,1,4,9
7265,9,1,-2,10,-2,5,-3,-5
7270,-5,0,1,-7,-4,-4,-2,0
7275,-19,0,-10,8,2,-1,-2,-4
7280,9,-15,-2,-5,6,0,9,16
7285,2,12,-4,-2,-24,-3,-9,-12
7290,9,8,16,-5,24,-1,-1,-5
7295,3,21,-5,-4,-7,-1,0,19
7300,11,-22,-10,-2,-3,1,-2,-13
7305,3,0,-2,8,-5,-5,-5,-16
7310,-13,-12,13,-1,-8,2,-1,9
7315,-21,19,-3,-3,-4,-2,2,-1
7320,10,-2,-5,1,13,-1,-2,-11
7325,22,-17,19,-8,-17,-8,-2,3
7330,-31,22,3,5,37,14,5,6
7335,30,-7,10,-2,-18,-4,-3,1
7340,-17,18,10,-4,4,-2,-3,-21
7345,-26,-26,-20,14,5,0,-2,-12
7350,13,-2,0,-15,-47,-7,1,12
7355,-8,6,9,12,32,0,-2,2
7360,1,-12,3,-7,15,-2,-5,0
7365,-1,-1,0,-7,6,1,2,6
7370,-20,-2,-8,3,-6,-7,-4,-6
7375,25,24,-3,-6,-6,7,3,-8
7380,-1,3,9,7,-5,-4,-3,7
7385,-11,-9,13,2,13,3,3,11
7390,16,-14,-46,-4,-3,-5,-5,1
7395,-18,-18,16,-11,-9,5,1,-10
7400,-2,35,-6,1,-16,-10,-5,-22
7405,-8,4,-1,-5,-11,8,3,-1
7410,19,7,12,2,28,3,1,3
7415,-12,-16,-2,0,-12,-12,-7,-3
7420,-7,-10,-4,9,-2,5,7,19
7425,0,3,-24,-8,1,-4,1,7
7430,-29,-37,4,-6,-3,-9,1,-13
7435,30,-26,-3,7,-32,2,-4,1
7440,1,-2,10,-5,15,3,-1,3
7445,1,-20,-5,3,26,0,-3,-4
7450,-5,12,-18,-8,-3,-1,-4,-6
7455,9,4,-1,-3,2,-3,3,11
7460,-49,-15,-8,-11,-38,-7,-2,1
7465,69,29,5,7,-6,5,-3,-5
7470,5,6,18,-4,7,0,0,-7
7475,-16,-5,-18,-2,-11,-3,1,-2
7480,11,2,0,14,17,-2,-7,-3
7485,-16,-5,-20,-9,-10,-7,-3,14
7490,-12,4,5,3,2,6,1,-9
7495,5,23,8,2,28,6,2,2
7500,4,-53,-22,7,12,-1,-4,-18
7505,-11,1,12,-19,-26,-1,1,0
7510,20,14,15,7,-10,-2,-3,-4
7515,-21,-17,-44,-10,-8,-8,-4,4
7520,-39,29,6,0,11,5,8,16
7525,40,-21,-3,1,5,6,2,-14
7530,-10,16,16,7,-19,-6,-7,-11
7535,9,9,15,-11,25,12,1,-4
7540,6,13,-14,3,-20,-9,-4,8
7545,-25,-11,-8,1,2,-4,0,7
7550,-5,-7,-3,7,18,3,-1,-2
7555,-14,-8,13,3,-29,-6,-3,-13
7560,26,13,5,-1,30,17,1,9
7565,-22,3,7,-1,-9,-2,0,-5
7570,23,-14,-21,-7,8,-7,0,9
7575,-11,-1,6,-2,-30,-9,-4,-22
7580,32,-2,-1,-10,18,12,4,-1
7585,10,-8,3,4,4,-5,-6,-7
7590,-1,-35,-18,2,2,-6,-5,-3
7595,-16,5,6,0,-16,-2,2,13
7600,-18,-12,1,-3,9,-3,0,2
7605,-12,17,-4,-4,5,0,-3,-13
7610,11,6,12,3,-10,2,2,10
7615,18,-3,-6,2,16,-2,-2,-2
7620,-9,1,-3,0,-16,-3,-1,-7
7625,-8,-5,-8,0,-1,-2,-2,9
7630,-22,-16,-8,-19,-33,-13,-1,22
7635,7,35,8,6,61,18,-6,-55
7640,21,-1,-5,4,-43,2,0,-3
7645,-14,-13,-10,7,34,-1,3,5
7650,1,9,1,-3,-7,2,1,6
7655,-2,-14,21,-3,-13,-9,-1,22
7660,-17,27,17,-4,-1,-8,-8,-5
7665,16,9,-28,9,1,2,-3,-16
7670,0,11,-9,-7,10,7,4,-2
7675,-14,-6,-7,-2,0,5,3,1
7680,0,-3,-3,-5,-5,-4,-1,3
7685,-13,-5,20,2,-35,-6,2,24
7690,18,4,3,1,25,-8,-8,-21
7695,-29,4,-2,-8,-12,-8,-7,-17
7700,29,-6,-7,8,6,8,5,3
7705,-13,-17,-3,-5,2,0,-1,-2
7710,0,-11,-3,9,-8,6,-2,-6
7715,-3,-4,-9,-2,-1,-1,0,14
7720,-1,-10,-5,-7,-2,-10,-3,5
7725,23,12,8,-9,3,-1,1,6
7730,-19,24,-13,1,-4,2,-2,-21
7735,15,-2,4,4,16,4,-1,5
7740,-23,-7,14,-10,-9,-6,-3,3
7745,-4,13,-26,3,9,-1,1,-9
7750,10,2,20,10,-12,8,0,-6
7755,6,-8,-8,-5,11,-7,-2,5
7760,9,-5,-6,3,1,-1,2,6
7765,-23,4,24,3,-17,1,2,0
7770,10,34,-1,-8,17,5,0,0
7775,0,4,9,1,-9,-4,-1,-4
7780,2,-26,-25,-4,-3,2,1,6
7785,8,-12,11,0,0,-9,-3,-1
7790,-5,-8,-11,-2,-14,3,0,0
7795,8,2,10,-6,2,1,-1,12
7800,5,37,12,10,3,1,2,-11
7805,-10,-33,-4,-2,4,0,-3,-2
7810,5,-3,2,-5,-2,0,-3,-4
7815,-23,-12,-9,3,-4,-9,-2,3
7820,15,10,15,8,-2,1,-1,13
7825,-5,1,-13,-6,-2,3,-1,-24
7830,-15,-9,-19,-9,12,-2,-3,-8
7835,25,-14,-23,-5,-27,-7,1,1
7840,-28,-10,-3,-3,18,1,2,1
7845,15,3,3,11,11,-7,-1,29
7850,-27,17,16,-9,-13,5,0,-21
7855,-4,-6,-4,16,8,7,0,-12
7860,5,-13,8,0,-7,2,0,-1
7865,-1,8,6,-4,-11,-2,-1,2
7870,1,2,5,-6,-3,-10,2,21
7875,-13,-25,-11,-6,4,0,-2,-1
7880,19,9,6,-1,-14,-2,-7,-29
7885,5,14,13,-1,14,11,-2,-1
7890,5,-38,-9,6,-1,-10,1,11
7895,-4,15,-1,-2,-3,2,2,6
7900,-23,-7,1,-6,2,-2,0,10
7905,1,-14,-10,-18,-30,-7,-3,-15
7910,17,10,12,25,43,5,-2,-6
7915,2,-8,-2,5,-29,4,3,10
7920,-16,-12,-10,-4,21,-8,-3,-9
7925,3,25,7,-4,8,4,1,11
7930,7,-5,6,-11,-11,-6,0,10
7935,-35,3,8,-4,-7,-5,-1,21
7940,13,0,-20,-5,-22,-3,-8,-58
7945,3,5,1,0,29,11,-1,-8
7950,12,4,0,-2,-9,-5,-1,5
7955,-9,10,-8,18,11,-1,-4,-6
7960,-5,1,-1,-7,-10,-6,-1,18
7965,-16,-3,-2,7,-6,-6,-3,0
7970,-38,2,-3,-12,-15,-1,5,-3
7975,57,51,35,-3,1,1,-7,-20
7980,-5,-16,-37,-8,18,1,-3,-7
7985,-16,-10,-3,8,17,2,-3,-3
7990,21,1,12,8,-11,0,-1,-7
7995,5,-2,-1,-5,13,-4,1,10
8000,7,-2,10,-1,-9,0,0,10
8005,-8,-6,-9,-4,-9,-6,3,27
8010,5,10,-4,-10,-14,-1,-4,-28
8015,1,-21,-4,3,-14,3,4,-7
8020,-3,-10,22,12,40,3,-8,-5
8025,-15,-1,-7,2,-13,-5,1,3
8030,10,-5,-7,-7,-1,-2,1,21
8035,6,5,-5,-12,-10,-6,-3,-12
8040,-23,-1,8,4,-16,1,3,19
8045,-15,11,10,-7,16,-5,6,14
8050,44,-2,-10,1,0,29,2,-42
8055,-1,-16,1,0,6,-8,-6,-9
8060,-16,-6,-11,16,-1,-3,0,8
8065,-18,4,-3,4,-26,-9,-4,-5
8070,-21,-8,-7,-1,-4,-7,3,18
8075,24,12,1,-2,12,5,2,3
8080,12,26,7,-4,-3,0,1,-1
8085,9,-23,-10,-7,-4,4,-2,-12
8090,-13,-13,3,2,-7,-10,-4,12
8095,-21,1,-9,5,13,-2,2,2
8100,-3,5,5,-9,-26,-9,-2,15
8105,45,13,-2,-6,-26,4,-4,-29
8110,-35,-4,6,17,75,4,-1,-12
8115,1,-13,-18,-9,-30,-7,-5,14
8120,12,0,6,-8,0,5,3,-8
8125,-5,1,3,-5,-10,1,-1,11
8130,17,6,13,1,-1,-8,-3,1
8135,-21,-12,-3,5,9,3,-1,5
8140,6,-13,-15,1,-5,-3,-5,-14
8145,7,23,22,2,2,-3,-1,0
8150,-11,-6,0,-12,-19,-8,-4,13
8155,-25,1,-10,4,11,0,3,-18
8160,44,-19,-1,-8,-21,-3,-3,7
8165,5,25,-15,5,45,6,0,0
8170,-12,-10,-2,8,-19,-9,-7,-6
8175,-12,3,2,-13,5,-2,-1,1
8180,-14,1,-13,-5,-27,6,4,1
8185,31,5,8,6,-6,-1,1,-2
8190,-15,7,5,-3,11,5,4,21
8195,10,-10,-7,6,8,-1,-5,-19
8200,-21,8,18,-13,-14,-5,-3,-8
8205,3,-14,-14,7,-1,-7,-3,-3
8210,-31,17,-5,2,-1,0,-3,0
8215,49,-36,9,-3,-20,-2,-2,4
8220,7,-30,-4,3,36,1,-2,-7
8225,-41,7,11,-9,0,6,4,8
8230,29,-20,-20,-5,-18,-2,-6,-14
8235,-21,18,-32,2,15,-1,-1,-6
8240,10,3,4,-1,-22,-2,4,42
8245,2,-18,-4,-1,15,8,-5,-34
8250,-5,11,-4,-1,9,1,1,-8
8255,13,-5,17,-5,1,7,1,3
8260,-10,0,-9,7,5,-3,1,-1
8265,-17,23,5,1,-27,-13,-2,17
8270,41,-18,-7,-11,-20,-7,-4,-11
8275,8,8,12,1,38,6,-1,-8
8280,-34,-31,-8,0,-7,-4,-5,-1
8285,-12,9,12,1,-3,7,3,-9
8290,19,-1,6,1,-18,-1,2,11
8295,-13,26,-9,-3,12,-3,-3,10
8300,-26,5,-10,-5,-4,-2,-1,-22
8305,-2,-30,-21,2,2,0,-4,-15
8310,5,2,2,-1,-25,-5,-1,16
8315,-17,-6,-1,5,13,-4,1,-5
8320,22,32,8,3,14,3,3,7
8325,-7,-8,0,-12,-28,-7,0,3
8330,-4,1,1,6,42,9,-1,-7
8335,3,6,13,-7,-38,-11,-4,6
8340,-6,-4,-6,8,29,6,-1,-14
8345,38,-6,8,5,5,-1,-1,11
8350,-22,5,4,-2,-5,-1,-2,-7
8355,-2,-4,0,2,0,-3,4,18
8360,19,16,12,-17,-18,7,1,11
8365,18,-14,-6,10,17,5,2,-22
8370,-39,47,1,7,20,-3,-4,6
8375,0,-60,-6,-1,-15,2,6,-1
8380,-4,-2,8,3,0,-4,-7,-10
8385,6,28,-7,-11,-4,-5,3,29
8390,18,-13,-3,0,-13,-3,-7,-8
8395,12,17,-11,5,6,6,5,-12
8400,-1,-10,2,2,17,7,3,1
8405,-2,13,16,8,2,4,-1,8
8410,-37,8,3,1,14,2,-1,-9
8415,-16,-24,-5,-20,-33,2,-1,4
8420,44,6,-20,5,8,-3,-1,4
8425,3,4,0,3,-16,-11,-5,-6
8430,2,-27,15,7,14,-4,1,12
8435,-33,21,6,-9,0,-3,-9,-9
8440,30,21,2,1,-4,-3,1,-21
8445,-8,-25,14,-1,-13,-1,-2,0
8450,18,-5,-2,1,1,2,8,8
8455,-13,13,8,3,11,1,-3,7
8460,-48,2,3,-4,-44,-10,-1,14
8465,23,-16,-29,-9,39,-1,1,-8
8470,13,8,22,8,12,11,1,-9
8475,8,4,-39,-2,-36,-4,2,13
8480,-22,3,-2,3,11,-14,-9,-25
8485,18,-4,4,9,26,20,3,-18
8490,-40,17,20,-10,-49,-3,7,37
8495,17,6,-11,-6,38,-9,0,-25
8500,-19,-13,-16,0,-53,-7,-2,2
8505,-34,-5,5,-3,65,0,-5,9
8510,40,-23,-8,2,-27,-6,2,12
8515,-7,20,13,9,5,-6,-7,-21
8520,-17,-22,-34,-14,-19,2,1,-8
8525,14,-9,12,-1,15,-4,-5,-5
8530,-31,11,-12,-2,-29,-6,-2,1
8535,13,3,10,-7,8,-7,0,31
8540,-1,-30,22,-1,37,17,8,-2
8545,5,55,-5,6,-25,-10,-1,3
8550,-32,-69,-19,-16,-7,7,2,10
8555,82,-8,1,12,-13,-2,-12,-45
8560,-14,9,20,8,28,-1,-6,0
8565,-2,-19,-18,-17,-65,-12,1,35
8570,-45,4,-6,-7,56,-4,-7,-33
8575,7,12,20,-8,-11,9,10,21
8580,20,36,-2,18,-5,-5,3,23
8585,38,1,-11,3,-44,-7,-6,-20
8590,53,-1,-10,-8,78,-9,-13,-33
8595,-2,8,4,9,-85,15,3,7
8600,-99,-57,-89,-29,44,-17,-9,-13
8605,57,19,38,0,17,6,5,16
8610,5,54,10,-10,-20,-12,-4,-7
8615,19,22,26,-13,-3,-8,-11,-4
8620,-13,-15,32,5,6,8,-7,-17
8625,-26,19,-13,0,-17,-2,6,39
8630,-79,-19,-46,10,-50,3,4,-64
8635,19,-30,-23,-12,38,-12,-2,13
8640,107,87,52,15,-4,-11,-8,-16
8645,2,8,-49,5,27,-10,-2,1
8650,13,-26,12,2,-67,17,6,21
8655,-18,23,45,10,73,25,10,42
8660,-77,-8,-30,-6,-19,9,15,27
8665,-28,-68,5,-4,25,-1,-15,-67
8670,88,44,24,7,-68,-17,0,16
8675,-108,-102,-34,14,-41,-15,-4,-15
8680,127,92,43,-28,93,32,10,33
8685,-33,-54,-34,-2,-105,-19,-6,10
8690,-20,-8,-42,-19,66,7,-7,-32
8695,-4,4,-43,3,-48,-2,1,6
8700,-36,15,33,17,76,1,1,28
8705,-56,-8,-9,-16,-94,-22,6,-31
8710,67,-8,4,12,77,33,1,13
8715,66,47,21,4,-21,-22,0,14
8720,-42,-100,-10,4,16,37,6,-34
8725,6,92,69,17,-9,-2,13,43
8730,6,-64,-87,-6,11,-7,-7,-6
8735,-65,15,20,14,-4,8,3,-1
8740,100,7,-9,-19,-28,2,1,-2
8745,-101,8,65,9,5,13,0,36
8750,94,39,13,-26,76,-14,-10,-48
8755,-85,-33,-20,9,-67,-39,-12,12
8760,96,17,6,11,33,44,2,-38
8765,-79,0,-2,5,-43,-9,-12,-45
8770,-80,5,-33,-10,1,-3,8,24
8775,0,41,12,-15,-27,6,-1,14
8780,29,2,42,7,20,-21,-8,-20
8785,48,46,2,8,53,20,9,18
8790,-57,-24,16,-2,-106,-11,1,21
8795,-53,-30,17,-10,47,-16,-2,-6
8800,-30,47,19,0,-128,1,3,-20
8805,47,-69,-38,1,127,25,-4,3
8810,-41,38,17,6,-75,-27,-5,-8
8815,31,15,4,-7,113,41,5,-15
8820,-73,-27,-33,-9,-60,-38,-8,74
8825,101,-13,28,7,-41,-7,-7,-57
8830,-21,-16,18,6,-23,8,9,14
8835,120,34,11,17,51,27,-10,-66
8840,-110,-9,-26,2,-23,-16,-4,21
8845,-31,-14,-16,-22,-2,5,4,-1
8850,7,-21,15,1,7,-22,-2,46
8855,-1,38,-2,-3,19,20,7,18
8860,5,-83,-45,-11,-22,-16,-7,-22
8865,-18,63,8,6,-53,-12,-9,1
8870,39,-21,25,3,66,6,-3,-4
8875,-50,-84,-28,-13,-2,-4,6,25
8880,17,86,0,1,-49,-12,-3,-56
8885,0,-45,-17,-5,-31,-25,-18,-27
8890,-45,26,31,0,60,33,4,54
8895,27,0,3,6,3,10,8,-39
8900,68,-20,8,14,-34,-41,-12,59
8905,-86,35,-30,-23,13,30,9,20
8910,127,-38,-36,2,31,-7,-11,-80
8915,-50,4,20,10,-47,-10,-10,8
8920,-28,-13,17,-1,5,3,9,14
8925,27,-7,8,-2,36,8,3,13
8930,-40,14,-48,-8,-29,-3,1,-1
8935,6,-1,29,-6,-18,-1,-1,-1
8940,7,-39,-37,2,-12,-8,-3,-35
8945,20,-17,6,-4,-12,-3,6,12
8950,-17,69,0,-3,-12,0,0,16
8955,-18,-28,-3,7,64,12,2,-9
8960,-14,49,27,2,-20,-8,-13,-48
8965,34,3,-10,-1,64,17,8,32
8970,-12,-25,15,3,-32,4,3,-6
8975,13,9,-7,-17,-86,-18,-9,-22
8980,-84,1,7,1,106,11,8,20
8985,45,-4,9,-16,-65,-12,-3,-11
8990,-16,-8,2,1,-27,-7,-6,-3
8995,-4,3,-15,6,13,-8,2,18
9000,-22,0,-1,-2,-4,12,-1,1
9005,28,24,5,4,-22,-16,-6,-14
9010,-56,-18,21,-1,21,4,7,41
9015,13,49,5,13,22,15,8,-11
9020,76,44,12,2,3,7,-3,-24
9025,-11,-9,-47,-1,20,-5,-12,-40
9030,-5,8,7,9,-27,-9,0,10
9035,-14,-53,-7,-14,-17,-4,5,40
9040,-37,-23,3,1,-1,-5,-4,-15
9045,15,14,-17,-12,11,12,4,7
9050,-43,33,10,3,-8,-2,2,-18
9055,54,31,10,1,-25,-13,3,26
9060,31,-48,-44,-12,-16,2,-1,5
9065,-14,-14,14,19,49,-3,-6,-9
9070,-17,-5,-2,-14,-28,1,-3,-23
9075,22,-28,-29,0,-27,-6,-1,14
9080,-27,0,23,-9,79,14,7,19
9085,4,3,-2,-2,-29,-5,5,15
9090,28,4,15,29,-4,-10,-6,-1
9095,-40,-24,-24,-13,35,17,3,11
9100,1,-73,-16,-15,-91,-10,-1,-13
9105,27,19,0,-6,34,-15,-12,-1
9110,68,1,41,5,20,10,6,11
9115,-25,-10,-42,-6,-24,1,-5,-23
9120,13,31,2,15,3,6,-1,4
9125,-34,-13,8,-4,-18,2,7,10
9130,6,-11,15,-2,-27,-7,-3,15
9135,-52,14,3,-3,-8,-18,-8,-1
9140,-4,-4,-10,-7,66,9,6,-4
9145,23,-75,-10,9,-22,3,-1,-14
9150,10,11,-14,-3,13,7,4,13
9155,26,9,-15,-2,0,-1,-5,-9
9160,-43,19,-19,-2,-32,-7,1,7
9165,-23,0,23,5,-7,-12,-2,11
9170,42,5,-21,-8,24,23,3,-33
9175,15,-7,11,6,7,1,-3,5
9180,4,20,18,2,-62,-11,-1,13
9185,-15,12,-14,3,58,17,7,24
9190,-22,-13,11,0,3,-11,-11,-33
9195,0,33,14,-2,11,-14,-5,-15
9200,47,-32,1,3,17,14,2,5
9205,-50,0,-15,-11,-11,-4,-6,-2
9210,24,-6,-18,12,-10,-7,-6,-15
9215,19,13,12,-10,4,21,4,-3
9220,-17,19,-9,0,17,-12,-4,24
9225,-31,-49,-18,-9,-21,4,-4,-48
9230,-7,21,15,2,-9,3,1,9
9235,20,2,-23,5,-12,-17,-5,-17
9240,30,-9,12,12,9,12,2,19
9245,-1,53,16,-7,-14,9,6,8
9250,-15,-55,-17,-5,15,-5,-2,6
9255,2,7,11,4,-26,-7,0,1
9260,-42,4,10,-3,2,-3,2,20
9265,47,17,-18,-1,-22,-9,-4,-19
9270,-10,24,4,5,43,12,-2,-20
9275,-11,-23,-2,-6,11,-1,-6,-15
9280,-32,8,-1,5,-6,1,-3,-8
9285,-20,-39,-11,4,-14,-3,0,9
9290,31,6,-9,-3,-7,-11,-2,37
9295,2,20,14,-4,-34,-7,0,-22
9300,-1,-3,3,-4,65,9,-1,-3
9305,-19,44,-4,3,-25,-6,0,-6
9310,37,1,-10,-14,-17,3,5,26
9315,-9,-33,0,1,4,0,-7,-6
9320,5,4,6,7,-22,-20,-8,-23
9325,14,10,5,0,21,7,0,8
9330,-38,11,0,9,5,-3,3,15
9335,16,11,17,-11,11,4,5,5
9340,67,3,8,-4,-28,-3,-8,-26
9345,-12,-2,5,-13,40,7,7,15
9350,-22,1,-15,13,-16,-6,-6,1
9355,-5,-1,8,2,-15,-1,1,2
9360,-2,17,-3,-6,-12,-4,0,4
9365,6,-10,14,11,4,-9,-7,-19
9370,1,-1,7,-19,29,26,14,20
9375,-22,-23,-37,-2,-4,-5,-11,-20
9380,-17,12,0,-1,15,-3,-2,-4
9385,3,-23,0,5,-20,-6,-5,-6
9390,-7,-3,2,-3,-31,-18,-6,-2
9395,-14,-6,-8,-8,30,2,0,23
9400,-7,-9,-10,-8,-15,0,5,-2
9405,71,31,23,12,-37,-6,-3,-17
9410,9,-14,-50,-10,56,19,4,5
9415,3,5,7,15,22,-4,1,-7
9420,-31,-10,1,-3,-26,0,0,7
9425,-26,14,7,-4,-2,-10,-2,5
9430,3,-2,12,-2,-15,-5,-5,-13
9435,-2,4,4,-9,-65,-3,3,22
9440,-15,-20,-19,-9,82,10,4,-18
9445,17,-13,-32,-1,12,6,-8,-21
9450,1,5,37,5,-23,-9,-7,-10
9455,-5,-5,7,3,-2,1,3,11
9460,-10,20,10,5,-23,-14,-3,11
9465,-50,-29,-4,-3,19,7,7,32
9470,31,21,13,4,-27,-7,-1,-46
9475,12,-6,-9,-16,39,10,-5,-14
9480,-7,-17,-11,-5,-19,-7,-8,-5
9485,-6,-1,-17,1,6,-3,-1,1
9490,-58,-6,-14,-1,5,3,6,22
9495,4,6,4,-4,3,-3,3,-7
9500,16,-5,-12,7,-2,1,-2,-18
9505,7,12,12,-9,-4,2,-3,5
9510,-27,36,13,-4,-5,-21,-7,6
9515,35,-28,-30,-5,3,6,0,-10
9520,-25,14,10,4,17,12,1,-6
9525,17,-16,6,9,-7,-3,9,30
9530,-9,21,0,0,-2,-3,-5,-27
9535,-13,8,-12,4,15,-7,-4,0
9540,-12,2,2,-8,-38,-5,0,0
9545,34,-16,-3,-5,32,-2,-2,16
9550,-19,-24,-2,2,1,4,2,1
9555,8,1,1,1,-24,-4,-8,-26
9560,12,-8,-14,3,6,2,0,9
9565,-5,6,7,-14,-32,-1,1,-16
9570,-4,-39,3,1,-13,-5,-1,24
9575,10,27,22,13,28,6,0,-19
9580,26,-49,13,-1,-31,-12,-6,23
9585,-27,-14,5,-5,37,0,-2,-28
9590,0,2,-9,-10,-15,10,9,17
9595,-15,11,4,2,6,-2,3,11
9600,26,5,-3,2,-2,0,-3,1
9605,15,20,-20,2,-8,-5,-4,1
9610,16,-18,-2,-5,8,-1,-2,-9
9615,-21,20,14,6,-29,-2,3,8
9620,31,2,2,1,25,-2,4,22
9625,-67,6,12,-4,12,16,0,-28
9630,27,21,3,8,-8,-6,-6,-26
9635,17,6,-11,-5,14,7,5,19
9640,-14,11,-2,2,-18,-19,-11,-2
9645,-2,31,-2,-8,24,20,7,26
9650,2,-35,-2,-1,-3,-6,-2,-18
9655,-25,-4,20,-2,0,-4,-4,-15
9660,25,-1,-9,-4,-13,2,4,14
9665,-31,-1,-2,-2,-34,-18,-9,-5
9670,19,5,3,1,29,0,-2,-6
9675,19,-6,8,4,11,5,2,3
9680,-23,8,-18,-6,-12,0,3,-7
9685,25,-20,0,-8,-31,-7,-3,6
9690,-29,-4,0,0,2,8,3,19
9695,-26,-20,2,14,0,-9,-4,-14
9700,33,17,13,-4,15,19,7,-14
9705,-1,7,11,8,-7,-6,-6,2
9710,-12,-9,10,0,-5,-4,-1,6
9715,11,10,-17,-6,-2,-3,1,7
9720,-3,6,2,13,15,10,-2,-19
9725,-17,-13,-4,1,2,5,6,3
9730,24,19,-9,-2,-13,-7,-4,-11
9735,-12,-1,-1,-4,-6,1,0,-3
9740,-13,-4,0,-7,-5,-10,1,-2
9745,6,-36,11,1,-6,4,3,-1
9750,2,21,8,13,26,-1,-3,21
9755,-11,-25,-32,-4,21,9,5,8
9760,-30,-8,-7,-4,-10,-5,-6,-13
9765,21,-20,-3,-6,-35,-10,1,14
9770,36,0,9,2,8,-7,-10,-37
9775,39,20,11,-2,24,24,2,-1
9780,-17,-4,-4,0,-5,-6,1,14
9785,1,1,4,10,7,-2,3,5
9790,-45,9,-22,-3,-20,-1,4,24
9795,25,-45,11,-4,-43,-20,-6,9
9800,-6,3,1,3,40,10,0,-22
9805,17,-7,-16,-5,0,5,1,0
9810,-6,3,-2,-4,-18,-2,-3,4
9815,2,-17,-41,-6,4,0,0,-13
9820,-10,20,15,1,-19,8,6,34
9825,-33,-14,6,8,40,-8,-8,-51
9830,15,-12,6,-1,27,8,-1,-15
9835,-20,34,1,9,-23,-18,-7,5
9840,14,-12,15,-3,7,18,2,9
9845,-2,17,-8,3,3,-9,-2,5
9850,-10,-16,-6,-4,-36,0,-2,-3
9855,-20,-9,5,-7,4,-6,2,10
9860,-25,8,-4,-8,4,-6,-3,-6
9865,8,-9,-4,5,21,9,-1,-23
9870,33,17,-8,6,-11,-4,-1,3
9875,-10,5,-1,-11,-3,1,-2,1
9880,11,10,12,3,-5,-4,1,18
9885,-13,21,22,-2,-18,9,7,-17
9890,-15,2,-40,14,23,10,-3,-12
9895,-2,-63,-13,-3,15,5,-1,-1
9900,-16,-1,-4,1,-24,-5,1,-4
9905,18,19,4,-10,10,-10,-5,23
9910,-44,-12,6,-12,-9,-5,2,6
9915,53,36,7,12,5,1,-4,-19
9920,-4,-9,-7,5,15,5,-4,-18
9925,13,-10,-15,0,-8,-4,-1,10
9930,-4,1,14,-6,1,4,1,10
9935,-23,11,-11,-3,8,1,0,-10
9940,6,-17,-2,-2,-32,-14,-4,-13
9945,7,3,-1,9,36,12,-2,14
9950,-4,28,15,-17,-27,-3,2,-4
9955,-13,-1,10,4,-19,-8,-4,0
9960,-43,-54,-35,-12,18,3,-2,0
9965,30,-16,-3,10,-3,-6,0,10
9970,17,10,-3,-13,-10,6,-3,-12
9975,24,32,26,6,-5,-6,-3,-4
9980,-7,7,-2,1,-33,-14,-3,5
9985,-22,-1,-5,-3,17,3,1,1
9990,9,-22,0,5,17,0,-1,-4
9995,-2,12,-1,-3,-22,-1,0,7
10000,9,14,13,3,10,0,0,-6
10005,-17,-11,-8,-4,-13,-7,-2,9
10010,7,3,3,1,6,-4,-2,3
10015,-1,-11,-29,-9,-1,12,1,4
10020,-2,4,13,1,10,-3,-2,-17
10025,11,6,5,1,-22,2,3,10
10030,15,-4,-3,1,9,-4,-4,-17
10035,-10,37,22,0,-7,-3,-1,10
10040,13,-39,-29,0,0,-5,0,23
10045,-20,-4,-1,8,2,4,-4,-35
10050,-24,-21,4,2,-21,-2,0,10
10055,-16,-22,-6,-8,9,-3,7,12
10060,36,31,17,1,10,4,-5,-14
10065,-44,-14,4,-11,-7,-1,-1,7
10070,33,-3,-1,2,0,1,3,6
10075,-8,1,10,-7,-13,-8,-5,-10
10080,-16,2,-8,15,-4,7,5,4
10085,19,-6,-10,-5,9,-5,-3,-3
10090,-15,2,21,8,2,13,7,19
10095,23,-16,-33,9,6,-2,-4,-37
10100,15,59,12,-6,8,1,-6,-14
10105,-2,2,-11,0,-10,-8,-6,-18
10110,-5,-2,9,-8,20,1,3,-3
10115,-9,-4,-5,-3,-29,-11,-3,20
10120,-21,5,18,-1,28,15,4,14
10125,29,-9,-18,4,-18,-6,-3,-15
10130,8,2,-4,-7,-2,-6,-3,27
10135,-21,-1,0,6,-2,2,-7,-30
10140,18,-8,4,-9,10,-1,0,-4
10145,-8,5,15,1,-8,-2,7,19
10150,4,-15,-28,-8,-28,-6,3,5
10155,11,23,30,21,36,1,-11,-15
10160,-16,-15,-19,3,-24,-11,-4,-6
10165,23,6,7,-17,4,5,-2,3
10170,-9,-17,-10,4,10,-5,3,16
10175,-10,-2,-14,-13,9,-1,2,12
10180,-8,6,15,3,-4,3,-1,-31
10185,27,27,16,7,11,8,0,9
10190,-30,-11,-17,-2,0,-12,0,4
10195,9,-8,14,-10,26,17,4,2
10200,25,14,2,0,-14,-12,-6,-8
10205,-35,6,17,7,-11,-2,-7,3
10210,1,17,12,7,20,-3,-4,-32
10215,-7,-24,-40,-10,-43,1,3,7
10220,-51,-45,-9,-2,5,-7,1,14
10225,47,17,-6,-12,1,3,1,-19
10230,-17,0,20,15,5,5,-5,-13
10235,-6,-25,-20,-1,-14,-6,-2,15
10240,-1,5,-10,-6,16,4,4,19
10245,13,-8,-11,5,-32,-13,-1,-4
10250,-42,-1,-6,-1,-9,10,-4,-19
10255,76,25,33,5,57,7,9,45
10260,-4,-10,-3,-1,-24,-5,-6,-27
10265,-51,-22,16,5,1,0,-3,11
10270,-11,3,-2,-6,-22,1,4,-13
10275,-4,-16,-12,-3,2,0,-7,-21
10280,19,27,5,0,-3,-2,-3,18
10285,-15,1,11,-3,7,-1,4,3
10290,19,2,-20,-5,-11,-5,-2,-2
10295,-23,-3,38,13,-8,-4,3,3
10300,44,-11,-38,-4,45,14,-3,-20
10305,-28,8,0,1,-11,-9,5,-10
10310,-5,2,17,5,29,18,-3,2
10315,-37,23,-3,-5,-17,-14,-2,-3
10320,2,0,21,-1,-39,-6,1,14
10325,20,6,-13,-8,-6,3,-1,-5
10330,36,4,6,-6,6,0,-2,10
10335,43,8,4,1,5,1,1,-11
10340,-21,-27,-6,11,-44,-16,-7,9
10345,3,28,0,-6,1,-6,4,17
10350,5,-34,-41,-7,18,5,-2,-25
10355,-7,-1,-19,-6,-16,16,7,21
10360,8,9,-8,-1,18,-10,-1,-4
10365,-35,-26,-3,1,-16,-5,-4,3
10370,16,40,33,-9,-15,-18,-5,3
10375,-12,-49,1,8,37,5,4,1
10380,36,21,-8,-7,-8,2,-3,-15
10385,-23,-7,6,-4,-6,-4,-5,9
10390,10,3,2,4,0,-9,-6,-30
10395,-29,6,-22,-4,-20,0,-1,-6
10400,-15,5,13,-4,21,-2,5,10
10405,-1,-59,-26,0,9,-1,-2,11
10410,-21,-8,-15,4,-11,12,5,7
10415,2,33,21,3,20,-6,-4,5
10420,26,-7,3,-8,-43,-2,4,3
10425,69,33,-2,4,16,3,-6,-17
10430,-46,-26,-2,4,38,2,-1,16
10435,0,-1,-2,-6,-27,-4,6,-10
10440,-30,-11,-2,0,-10,0,1,4
10445,-10,20,4,4,-5,-2,-2,5
10450,15,21,-14,-13,-7,5,2,12
10455,-80,12,11,-5,-32,-13,-5,17
10460,75,-28,-28,0,26,4,1,-14
10465,20,15,6,9,23,3,-1,-1
10470,-3,-22,-4,0,-54,-5,1,-5
10475,30,-3,0,-5,33,-6,-8,18
10480,-43,23,5,0,-11,-1,-4,-10
10485,-3,7,-3,-12,-24,-10,2,-14
10490,-30,0,7,3,48,6,5,25
10495,34,-6,2,11,-2,3,-3,-26
10500,19,18,25,-2,-46,3,4,12
10505,12,0,-24,5,61,16,0,2
10510,-31,-8,-3,-11,-22,-6,-5,-25
10515,-1,-3,-10,4,17,2,3,-2
10520,-16,19,11,10,32,-2,-1,0
10525,-33,-47,-8,-8,-53,2,-3,-12
10530,32,10,-9,-1,24,-6,3,26
10535,-103,-12,12,-11,-9,5,-4,-9
10540,93,-13,0,-1,-15,-1,0,-20
10545,-27,29,6,4,2,-6,-2,22
10550,-12,-19,4,-10,-1,-3,-1,-11
10555,22,23,9,4,-5,-3,-3,-12
10560,-62,-12,-14,-1,-8,-2,-4,7
10565,24,6,-4,-12,15,3,-1,10
10570,-6,-25,34,9,-11,-2,-2,-17
10575,-1,20,2,0,-6,-9,-5,-2
10580,28,-8,-17,3,3,4,4,23
10585,31,-7,4,-5,-3,-3,2,1
10590,65,36,-3,10,17,9,-4,-1
10595,-17,-26,-13,-8,9,0,3,-1
10600,-45,-7,4,-3,2,-2,0,-12
10605,-39,4,7,-3,-53,-8,0,24
10610,3,7,-23,1,33,-6,-7,-35
10615,-47,-9,-1,-1,3,3,1,0
10620,69,-1,-3,-8,-36,-12,-4,9
10625,5,27,11,16,72,10,6,-8
10630,-16,-11,-4,-2,-7,18,7,23
10635,41,-11,1,6,-36,2,-3,-23
10640,-67,19,1,1,66,15,1,0
10645,-33,-22,-12,-16,-48,-1,5,3
10650,50,24,3,8,11,-11,-4,-1
10655,6,-6,-3,8,-15,-3,0,2
10660,-28,-16,7,0,14,3,0,12
10665,-19,7,7,5,28,3,-3,-23
10670,53,-8,-13,-17,-35,-11,-6,3
10675,45,0,-5,-2,-20,1,-3,-3
10680,-18,3,10,-2,21,-1,-4,-12
10685,-11,15,5,6,18,0,-1,1
10690,-16,15,-23,-9,-40,-8,5,39
10695,27,-44,1,4,1,1,0,-15
10700,-13,9,10,1,31,-1,-5,-16
10705,-77,5,12,-4,-1,16,5,-5
10710,60,-48,4,4,-19,-6,-2,-1
10715,17,26,8,-3,7,-9,-9,4
10720,-33,3,0,6,-9,-2,-4,-7
10725,38,-33,-19,-7,-25,-13,-4,-1
10730,-41,21,16,-4,13,2,-1,-1
10735,-46,-27,-14,-2,-12,-1,7,30
10740,56,7,-9,-7,6,-2,-4,-19
10745,-11,17,10,2,32,13,1,-23
10750,-7,-10,-6,6,-3,1,-2,-5
10755,-54,2,8,3,-13,-16,-2,1
10760,6,-8,-30,-5,13,12,2,2
10765,58,1,5,6,-29,-14,-7,-10
10770,-13,-14,3,-3,18,8,2,1
10775,-9,0,18,-9,16,9,2,0
10780,-25,-2,3,1,-28,-8,6,15
10785,11,-14,-9,-3,-4,-6,-10,-5
10790,18,17,11,2,0,-5,3,6
10795,-5,27,-15,0,4,-4,-15,-30
10800,-18,-61,7,-9,-19,-2,-4,-2
10805,29,15,-1,-1,11,3,7,12
10810,-58,-23,18,6,0,-5,-5,-17
10815,61,14,-13,4,16,5,4,9
10820,-22,4,4,1,-5,2,-1,-7
10825,-11,17,-15,1,-10,-7,-2,11
10830,-6,-16,-19,-9,-43,-12,-1,20
10835,33,4,6,-3,58,19,3,-16
10840,-34,-4,5,5,-13,-1,-3,-3
10845,22,-14,-15,-7,-5,-7,1,18
10850,30,29,22,7,-10,-4,-7,-32
10855,-13,-6,2,-6,10,2,1,5
10860,12,9,16,1,-14,1,0,5
10865,-12,-9,-5,5,10,1,4,4
10870,-9,19,4,-10,-4,3,1,23
10875,12,1,-2,2,-36,-8,-8,-26
10880,10,3,-15,1,57,6,1,0
10885,2,-15,-1,-4,-15,-5,-6,-12
10890,-2,5,6,7,0,-4,1,18
10895,-23,-12,-13,1,-13,-4,1,3
10900,-16,18,-2,-5,7,12,5,13
10905,30,-6,7,-6,-7,4,-3,-22
10910,-6,-12,-12,3,-9,-1,-4,-29
10915,17,24,7,1,2,-1,-2,21
10920,-37,-10,-10,-2,-13,-8,4,9
10925,28,-5,1,-2,11,-2,-8,-9
10930,23,17,7,0,2,4,0,1
10935,6,7,10,8,-10,0,7,-9
10940,7,-4,-6,-5,-16,0,-3,4
10945,-33,12,15,2,8,0,-1,22
10950,-32,-29,-35,-5,-2,-6,3,10
10955,23,8,3,-13,-1,-7,-11,-26
10960,-1,12,2,3,22,2,-5,-16
10965,-7,-11,10,9,-12,-2,4,0
10970,-24,5,14,-3,-19,8,1,0
10975,-30,-14,-25,-3,41,2,3,18
10980,49,-3,0,-3,-20,-15,-5,0
10985,-5,-2,8,-6,0,0,-1,-22
10990,-39,-3,-10,3,13,2,0,1
10995,38,-13,21,-9,-13,1,6,23
11000,-8,22,5,-3,12,-7,-2,-9
11005,-6,-28,-17,9,0,6,-2,7
11010,-8,21,-7,-5,4,-5,-5,-27
11015,-23,-12,27,2,-19,-5,-10,-14
11020,16,-10,-25,4,23,-6,2,-7
11025,-21,-22,-2,-12,-17,4,6,12
11030,-4,19,5,8,1,8,1,-9
11035,5,6,-4,-6,-18,-3,2,8
11040,11,-3,13,-4,6,-4,-3,13
11045,34,10,10,-3,8,-9,-9,-24
11050,16,8,9,2,-29,-2,-3,-1
11055,-15,16,-21,9,31,17,10,16
11060,4,-22,6,-7,-19,0,7,26
11065,2,50,3,-1,30,-5,-7,-8
11070,23,-38,-3,-10,4,-1,-6,-37
11075,-14,3,9,9,-13,-5,-4,-4
11080,9,-19,-57,-18,-17,2,3,19
11085,-14,1,4,7,-3,-2,-1,-4
11090,22,19,30,-4,-5,-6,-5,6
11095,-31,45,2,10,32,-13,-3,-6
11100,12,-54,15,2,-30,2,-2,-4
11105,7,-31,-12,-8,-7,8,8,10
11110,0,30,-16,7,-33,-3,2,-4
11115,-7,-32,1,-9,48,-1,-3,11
11120,1,24,-7,-5,-3,-14,-11,-14
11125,-23,18,-2,2,-6,8,8,-18
11130,-24,-47,-22,7,19,11,17,31
11135,-13,-38,-8,-10,-11,9,-1,-21
11140,34,53,3,9,22,0,-10,-22
11145,-12,-55,-7,-5,-5,-10,-5,13
11150,34,39,-11,-4,16,1,0,6
11155,-43,-40,0,7,-25,-4,3,-4
11160,16,-6,18,-2,4,7,7,20
11165,-5,44,5,7,-66,-7,0,-5
11170,-39,-28,-2,2,18,-7,-8,10
11175,32,-14,-7,-16,60,12,-7,-41
11180,-22,39,22,10,-20,5,10,-4
11185,-8,-33,-27,-7,29,3,5,32
11190,-23,2,-2,1,-23,-7,-6,-12
11195,26,10,23,-3,-50,-20,-6,19
11200,-7,-1,-27,-11,10,9,-8,-29
11205,16,-17,24,1,-10,4,-6,-18
11210,-23,-11,12,-6,-10,-12,-3,3
11215,9,13,-13,1,55,21,10,16
11220,-34,-19,-26,0,-3,-13,3,27
11225,-2,-1,28,-2,-5,-2,0,-26
11230,49,19,-23,-4,41,-2,-8,-25
11235,48,11,-35,-3,-57,-8,1,15
11240,-16,-11,36,9,-20,-14,-5,-9
11245,-26,2,0,1,-4,13,9,28
11250,-13,-46,-13,-3,3,-4,-2,-7
11255,1,40,2,-1,-50,0,0,-8
11260,6,25,-16,-3,35,10,-3,20
11265,-32,-3,-23,-5,50,-12,-14,-42
11270,44,-3,27,12,-2,-4,7,10
11275,1,-3,-2,-2,-8,24,10,25
11280,-36,-15,43,-1,-39,-17,-5,-9
11285,27,25,-12,3,7,22,-1,11
11290,3,-3,0,-7,10,0,4,9
11295,-22,-1,-6,-4,-8,-26,-18,-24
11300,-32,-34,10,9,-8,13,13,10
11305,21,38,-12,-1,15,-3,2,24
11310,63,6,25,3,47,14,-4,-40
11315,-23,-22,-1,5,-73,-2,-4,11
11320,13,21,-31,-8,35,2,5,-4
11325,18,-39,16,8,33,3,-3,-9
11330,-33,7,-16,-8,-59,0,-1,13
11335,2,13,36,0,34,-7,2,-7
11340,-2,-23,-18,1,-40,-11,-9,-13
11345,-11,19,-18,-7,-30,-20,0,10
11350,-38,-15,-9,-12,27,-1,-1,35
11355,39,10,-6,0,6,16,6,-29
11360,-45,-15,12,0,19,1,-5,-8
11365,58,36,6,-2,-24,-11,-6,-2
11370,3,33,7,2,-57,-3,-3,-5
11375,-14,-29,-18,-4,97,-12,1,25
11380,26,23,1,2,-37,11,-1,-11
11385,-11,0,14,2,-28,-6,3,-4
11390,-78,7,-20,-3,74,4,4,27
11395,24,-66,-13,-5,-32,4,6,-2
11400,30,25,35,9,18,-2,-1,-29
11405,-4,20,-17,3,-57,-9,-8,-13
11410,36,-17,17,5,-6,1,-5,-13
11415,-24,24,1,5,-44,-8,3,32
11420,-12,-6,-30,-8,80,7,4,6
11425,16,18,15,4,-23,3,-2,-7
11430,-21,-36,17,-3,4,-9,-4,-13
11435,30,12,-32,-1,1,15,3,0
11440,-27,-31,15,-1,-53,-10,-7,-10
11445,-31,38,-16,1,42,-6,4,37
11450,39,1,-5,1,-20,9,3,-18
11455,1,12,25,0,11,3,-4,-11
11460,5,-4,-8,3,-32,-16,-6,4
11465,-24,-4,0,-3,63,17,8,-1
11470,9,-2,-8,-1,32,6,0,8
11475,-24,-1,23,2,-28,-8,-5,-17
11480,16,-4,-1,1,5,11,3,14
11485,12,-95,-30,-7,20,-2,-4,3
11490,-26,27,0,-7,-18,4,-1,-1
11495,15,25,-6,-8,-34,-18,-7,-22
11500,19,-23,-18,4,26,-5,-9,-2
11505,-62,10,20,1,39,3,6,-17
11510,34,3,19,5,20,10,4,13
11515,-22,81,-8,-1,-19,-11,-11,-14
11520,-18,-59,-22,-10,-20,-5,1,13
11525,84,9,33,2,10,-13,-13,-19
11530,16,-12,-43,7,8,14,10,20
11535,18,17,-20,-6,-16,-3,-3,9
11540,7,49,33,2,-25,7,4,-6
11545,-32,-29,-39,-7,38,2,0,6
11550,-67,-11,0,-5,-12,0,3,17
11555,70,59,3,8,13,4,5,25
11560,-51,7,40,-10,10,-15,-15,-59
11565,48,-48,-37,-6,-51,5,9,-4
11570,83,49,44,16,-25,-15,-16,-31
11575,-128,-31,-16,-7,-7,-19,-6,-8
11580,63,36,-18,-7,69,26,12,45
11585,-26,49,58,-8,-80,-17,5,42
11590,-27,74,40,-1,53,18,15,91
11595,-36,67,-50,-13,-25,-27,-1,13
11600,78,-44,56,9,42,2,-14,16
11605,-68,-41,-33,-4,-67,-18,-12,-33
11610,35,12,-22,-3,90,18,3,-18
11615,-46,69,85,-2,16,-4,9,39
11620,-69,-72,15,-13,-17,-4,21,102
11625,113,-19,-94,-17,-14,-14,-11,-80
11630,-51,7,2,8,-10,23,-11,-6
11635,-43,-35,-43,-1,-53,-77,-11,-42
11640,-6,67,42,3,109,96,28,6
11645,57,-37,24,0,-79,-13,-12,-27
11650,-52,-57,4,-9,-118,-38,-12,-15
11655,38,-15,-40,-4,-27,11,-8,-29
11660,38,46,-35,9,37,-22,-6,-32
11665,-128,-14,-20,-12,34,19,13,51
11670,127,45,7,15,-23,-10,1,5
11675,-22,20,42,8,-5,13,-4,-37
11680,-47,-20,2,-12,-38,-25,-12,20
11685,-27,-30,0,2,78,0,6,24
11690,-71,29,-21,-9,33,0,5,35
11695,127,21,-17,0,2,31,16,4
11700,4,74,21,-9,-22,-4,-16,-41
11705,-31,-41,-10,12,-64,-32,-3,10
11710,-2,14,18,-25,-91,-9,-2,1
11715,33,20,28,5,51,25,13,63
11720,-18,-38,-44,3,44,-1,-4,-28
11725,-11,21,16,-2,-48,10,0,9
11730,5,-16,7,-2,11,-2,0,-1
11735,-61,1,35,11,-34,-18,-13,-22
11740,52,20,8,3,10,13,5,7
11745,-27,-9,18,-15,-19,6,3,43
11750,92,-28,-46,-14,117,23,9,-46
11755,-5,48,37,2,-39,-36,-22,-26
11760,-20,-33,-10,12,0,-13,1,21
11765,-28,37,-6,-9,11,12,9,2
11770,-26,-47,22,0,-67,-1,1,15
11775,27,1,15,2,33,-13,-10,-7
11780,-96,10,26,-2,32,17,4,21
11785,42,-50,-28,-4,-9,0,17,18
11790,77,52,28,16,-21,9,-4,0
11795,-58,-53,-20,-2,-9,-2,-4,-27
11800,-21,-14,3,-14,10,-26,-13,-29
11805,-15,-49,-31,-2,-38,-20,-5,11
11810,-44,7,-17,-19,28,9,5,5
11815,-8,-70,21,26,10,-23,-2,14
11820,40,32,7,-17,-50,9,7,25
11825,-15,-10,12,1,15,-3,-12,-30
11830,35,67,-13,-5,-45,-16,-5,-22
11835,-12,4,5,2,26,18,-1,-4
11840,0,-79,-44,-11,-37,-11,3,18
11845,53,97,55,7,56,12,5,12
11850,-95,-78,-74,-3,-30,-2,-10,-32
11855,101,3,1,-6,-31,-4,5,20
11860,-35,34,8,16,2,-7,-2,-7
11865,15,-20,22,2,25,19,2,-20
11870,-89,5,12,8,18,4,9,44
11875,42,32,25,-11,-32,4,-2,-44
11880,-23,4,-23,-5,15,-12,-3,11
11885,41,-15,-14,3,-27,4,-7,-17
11890,-25,-12,7,1,35,13,7,3
11895,-21,2,-1,-6,-27,-3,0,18
11900,-18,12,12,3,-4,-14,6,4
11905,24,45,-32,-6,62,3,-7,-44
11910,-28,-48,50,1,-32,4,-7,-9
11915,6,32,16,-6,-53,-3,4,28
11920,8,-9,2,4,53,22,3,-21
11925,-24,41,-17,0,-12,-7,-7,-14
11930,27,-9,-77,-1,26,1,-1,-11
11935,-49,-30,-16,-6,-27,-9,0,12
11940,1,5,11,5,-64,-20,-7,24
11945,20,16,23,6,56,29,8,4
11950,49,50,27,2,-10,0,-1,-13
11955,-19,-48,-45,-8,-27,-10,-5,14
11960,-80,11,11,15,17,-3,2,-1
11965,78,-2,-29,-12,-13,-13,-4,2
11970,35,12,19,0,30,26,3,-17
11975,-12,12,-29,-3,-74,-11,-2,-1
11980,-19,8,16,6,66,17,1,18
11985,-38,-67,-80,-5,-85,-27,-4,-2
11990,-6,-5,8,-6,92,17,6,15
11995,33,34,11,9,36,10,3,-4
12000,29,-21,-1,-11,-65,-10,-6,-13
12005,-34,13,41,7,9,6,9,29
12010,-46,-65,-50,-1,-59,-32,-8,-15
12015,-29,-9,-9,-12,44,12,5,7
12020,97,76,7,-1,-15,-13,-11,-25
12025,2,-39,10,-5,3,3,-5,6
12030,-8,-17,-15,-1,-25,-8,-2,-13
12035,-49,8,10,1,29,3,3,13
12040,-49,-9,-17,-2,-17,-6,-2,-3
12045,73,-16,18,-1,-22,-3,-3,-6
12050,0,23,16,7,32,-2,2,16
12055,3,52,16,-1,-9,3,-2,-8
12060,38,-66,-58,-9,-8,0,-4,-3
12065,-76,27,12,-3,24,7,6,23
12070,1,-12,16,2,9,1,0,3
12075,71,42,7,9,7,3,0,-31
12080,27,23,12,6,-3,-8,-10,-5
12085,-39,-29,-22,2,-20,2,2,16
12090,7,25,-13,-15,-12,-5,0,15
12095,-53,-6,28,-1,-4,-8,-1,9
12100,14,13,-17,-3,-26,-3,3,-10
12105,-8,-36,-27,1,-15,-5,-7,17
12110,2,-4,4,3,49,13,1,-6
12115,6,16,-34,-6,-17,-5,-4,-28
12120,20,-50,15,4,5,0,-1,23
12125,40,40,18,4,-22,-5,-3,-20
12130,-4,7,7,-7,4,-1,-6,-8
12135,-10,-28,-28,0,-1,-11,-8,7
12140,-11,14,15,-4,18,15,16,24
12145,-13,-15,-57,-5,21,1,-8,-22
12150,12,4,66,5,-23,-6,-7,-15
12155,-3,-39,-4,1,-3,0,-3,-7
12160,-5,14,14,0,11,-3,1,4
12165,-1,-9,2,1,14,19,5,-1
12170,21,23,13,2,-19,-10,3,2
12175,-10,-46,-39,-8,-67,-13,-6,3
12180,-33,-50,-66,-13,54,20,0,14
12185,-45,18,46,6,-7,-21,0,-9
12190,-23,21,21,0,19,34,10,-8
12195,105,-36,6,9,-4,1,-4,-23
12200,14,51,-3,-7,-21,-18,-9,-6
12205,-20,-43,6,-1,49,17,9,17
12210,-4,11,-3,6,-29,-20,-1,21
12215,-35,29,64,3,11,14,5,6
12220,25,-41,-45,1,-41,-7,7,-1
12225,-11,12,32,-8,14,-1,-12,-20
12230,-47,-14,12,1,-13,-12,1,34
12235,81,33,13,-2,27,14,0,-34
12240,-11,-4,-1,8,11,2,-7,-9
12245,-10,9,-4,-1,-6,0,7,8
12250,27,0,-24,2,6,-1,2,19
12255,-82,5,16,-8,-21,-13,-2,3
12260,43,-47,9,-1,34,21,1,-11
12265,-34,-20,-15,-5,17,-3,-1,-7
12270,39,53,0,1,6,7,-5,-25
12275,-20,-54,2,2,7,-9,-4,30
12280,-31,5,20,-5,-41,-19,4,8
12285,24,35,-39,10,-9,-3,-10,-34
12290,-17,-24,-18,-8,-17,-1,0,21
12295,13,32,8,-14,39,11,2,-17
12300,-12,19,7,3,-21,-12,-5,7
12305,3,-44,20,2,12,-1,1,15
12310,11,19,20,-2,-17,-1,1,-2
12315,-21,-38,-41,-3,16,1,-4,-7
12320,9,11,41,7,-31,-5,-1,1
12325,-18,50,-28,-13,8,1,3,8
12330,-9,-26,11,11,-18,-11,-16,-48
12335,25,16,-1,-1,28,10,6,13
12340,-25,4,0,2,-24,-12,-7,1
12345,35,4,-8,-4,27,15,-1,-24
12350,-11,1,-18,-3,-1,-3,3,19
12355,-21,-6,2,8,-16,-5,1,-3
12360,-2,42,0,1,29,6,-3,-8
12365,-26,-53,-16,-4,-40,-6,4,18
12370,14,-4,-25,-13,36,3,-2,-15
12375,17,27,2,16,18,7,2,20
12380,3,9,19,-9,-13,8,2,-13
12385,13,23,55,3,-13,-7,-2,2
12390,-8,-29,-52,-2,10,-16,-9,-36
12395,3,-27,-8,-9,-18,-2,-8,-21
12400,6,21,7,3,27,1,2,11
12405,-20,-33,-26,1,-13,-9,1,11
12410,11,-4,24,-14,-30,-5,-2,12
12415,-22,16,4,-2,21,-5,0,5
12420,-13,-7,-1,-2,-7,-1,-1,-14
12425,28,9,-3,9,8,6,2,9
12430,-18,-68,-17,-13,-31,-16,-5,16
12435,21,-2,-13,2,19,-5,0,-8
12440,34,0,7,1,-3,12,2,-1
12445,-6,44,23,7,-19,-4,0,-10
12450,18,48,5,4,22,6,4,43
12455,-39,-28,-16,-1,-27,-3,5,-23
12460,18,7,-29,1,13,-4,-10,-26
12465,-6,-32,-7,-7,13,5,6,13
12470,21,17,2,8,-2,0,-4,-9
12475,-5,15,10,-5,-26,-3,6,27
12480,-113,-4,2,-5,-2,-2,-2,7
12485,111,-48,-17,-5,-27,-10,-5,-13
12490,-22,15,41,0,48,13,-4,-33
12495,-11,-6,-19,-3,-31,-13,-2,4
12500,-7,-17,-8,5,-17,-10,-6,-9
12505,-46,17,-11,-1,-10,-11,-2,22
12510,-13,-13,6,-10,-14,9,8,-7
12515,7,28,20,1,15,-2,-6,-10
12520,-7,-52,-27,-2,-10,-2,-2,-27
12525,22,32,18,3,25,8,6,15
12530,-39,0,0,3,5,-5,-3,17
12535,38,-5,-44,-10,7,6,-3,-21
12540,23,9,30,7,8,0,-2,-4
12545,-23,-24,1,-5,-36,-6,-3,-11
12550,-6,14,16,8,25,6,-1,-2
12555,-20,3,-2,-6,-4,2,2,17
12560,9,-11,-12,-8,-10,-2,2,10
12565,8,-1,6,6,27,-8,-6,-5
12570,-23,5,-4,-12,-55,4,3,-25
12575,1,8,12,5,41,6,0,1
12580,14,-34,-18,-1,23,6,7,33
12585,-34,44,9,-6,-8,0,-13,-45
12590,43,-26,-34,3,15,-11,-4,4
12595,-11,0,44,5,-21,-4,-2,14
12600,-7,32,7,-2,-49,-10,-1,-20
12605,-8,-5,-11,-7,79,7,0,13
12610,12,-24,3,7,-25,-1,2,-1
12615,6,40,6,2,-8,0,-3,-9
12620,14,-11,-12,-3,14,0,6,48
12625,9,18,-1,7,-24,3,1,-24
12630,14,-33,-19,5,9,-15,-5,-4
12635,-14,18,15,-11,1,23,5,12
12640,-10,-6,-21,1,-2,-2,2,16
12645,-1,-2,11,-4,-14,0,0,-6
12650,29,-25,-16,3,9,-1,1,7
12655,-8,-1,-2,1,-7,-11,-7,-19
12660,54,11,20,1,5,-1,-6,8
12665,-14,-22,0,-1,0,-1,1,3
12670,-31,-3,-2,-3,-15,7,2,22
12675,-14,-37,-15,-4,5,-5,1,-8
12680,5,44,16,3,18,4,-3,-33
12685,-12,-37,-16,-1,-6,-7,-2,11
12690,9,21,1,2,-16,3,1,-3
12695,-4,-16,15,5,-15,-4,-1,17
12700,-12,-8,-16,-6,43,6,3,2
12705,6,11,7,-3,8,-4,-4,-13
12710,13,45,32,3,-16,1,5,2
12715,-50,-43,-35,-11,-5,-2,0,-12
12720,42,38,10,7,-3,-7,-12,-13
12725,-16,1,4,7,-18,-12,-2,13
12730,-2,4,9,-7,17,8,0,-4
12735,8,-9,-22,-2,-6,2,6,20
12740,-42,-1,9,-5,28,-4,-3,-20
12745,9,26,5,1,-31,13,6,10
12750,11,6,-10,0,6,-6,-3,-10
12755,14,-9,-3,8,-3,-5,-4,6
12760,-15,-10,8,-8,-24,-9,3,-2
12765,23,53,32,3,52,16,0,-10
12770,-15,-29,-52,-3,2,-8,-4,-4
12775,0,-34,4,-8,-5,-2,-4,-3
12780,-11,12,16,1,-16,-3,-2,7
12785,11,-28,-1,-5,-15,-8,0,2
12790,11,11,5,3,19,8,2,-1
12795,0,9,0,-3,18,-4,4,43
12800,30,12,-17,-6,-11,-6,-12,-55
12805,-20,-15,-8,-2,4,4,0,2
12810,-9,-17,5,5,-19,-6,-3,0
12815,-18,57,-5,-7,8,3,3,2
12820,33,-14,27,6,-38,-1,-1,7
12825,-20,-4,-41,-12,10,3,-7,-20
12830,10,-10,11,3,4,3,1,-3
12835,-11,11,8,2,24,-3,-1,-3
12840,-58,-8,-11,-10,-28,-1,1,13
12845,37,11,9,6,4,-15,-2,-2
12850,3,21,12,2,13,2,3,20
12855,3,-12,-25,-5,-12,7,-9,-35
12860,-3,-11,-3,7,25,3,1,-6
12865,-13,-10,21,-1,-22,1,2,9
12870,-24,9,0,-4,-6,-7,-1,10
12875,28,0,16,-1,5,-1,2,-9
12880,-25,12,-12,0,2,4,1,2
12885,7,-49,-17,-1,-11,-6,-3,11
12890,2,11,-5,-6,40,8,-2,-11
12895,-3,9,10,5,-10,3,-1,-7
12900,17,-3,6,3,1,-3,-1,-3
12905,-9,10,-13,-5,-10,0,3,9
12910,1,-29,-3,0,-19,-8,-5,-15
12915,22,-16,-26,4,-4,-5,5,13
12920,-18,-14,-2,2,37,5,-2,-3
12925,16,24,16,0,29,11,3,9
12930,-31,-23,-14,-8,-32,-6,-1,-8
12935,8,29,2,1,1,-3,-10,-25
12940,11,-15,5,0,-15,2,5,12
12945,-3,13,-6,4,-5,-5,-3,0
12950,-6,11,-7,-5,3,1,0,15
12955,-3,-15,25,-5,-11,-4,-2,0
12960,-63,-30,-8,-3,-19,-3,5,8
12965,65,53,19,-2,17,3,-3,-7
12970,5,-2,-20,-6,7,-3,-5,-15
12975,6,-4,-1,6,-7,-2,-7,-17
12980,-6,-6,4,-3,-2,-2,-1,7
12985,-33,-12,-1,5,-5,-2,8,23
12990,22,7,2,-11,-15,3,1,-5
12995,13,29,33,0,3,0,-5,-12
13000,2,-24,-50,6,9,-9,-3,-7
13005,-23,7,16,-9,10,18,3,1
13010,5,4,5,11,-42,-15,-4,-1
13015,-10,-18,-14,-6,38,5,4,12
13020,-9,33,10,-5,4,14,6,14
13025,-1,-22,-6,3,-10,-13,-8,-25
13030,36,-1,-29,-4,-15,-8,-9,-12
13035,-7,3,15,3,-28,3,5,10
13040,14,12,11,4,19,3,-3,-3
13045,-52,-14,-16,-3,8,8,4,9
13050,-21,-11,25,2,-5,1,3,14
13055,35,-1,-15,-3,-6,-3,-6,-20
13060,2,-1,7,-3,6,-5,-6,-18
13065,-5,6,1,5,-15,-2,-7,-9
13070,-10,-8,-1,3,11,2,3,10
13075,-12,-15,2,1,13,6,2,7
13080,-11,0,-2,-5,-16,-2,7,16
13085,-6,-6,-2,-6,-9,1,-3,-10
13090,26,17,6,2,12,-6,-10,-25
13095,-13,-7,-24,-4,21,2,-2,12
13100,17,15,-3,-1,-7,-4,-5,-15
13105,2,-9,6,4,-11,-4,0,8
13110,-13,-1,14,-10,8,3,3,9
13115,0,-10,-16,4,-17,-6,0,-2
13120,-28,2,-4,-7,8,-3,0,32
13125,14,-39,-4,-8,13,3,1,-26
13130,11,15,0,4,2,5,-3,-15
13135,-7,23,2,2,-18,-10,-5,2
13140,9,-35,-1,-4,17,1,-2,-5
13145,-10,5,-10,-1,-5,-10,-3,7
13150,-27,1,1,1,4,3,0,1
13155,-10,-9,1,-3,-15,-1,1,19
13160,35,21,22,3,-13,-6,8,-3
13165,25,17,-65,-3,-19,-1,-10,-24
13170,4,-19,2,-3,19,2,1,-1
13175,-3,17,24,3,5,1,0,4
13180,-12,-2,1,-1,-4,4,3,15
13185,-9,-11,8,-1,-32,-13,-1,6
13190,-21,3,-8,6,36,4,5,12
13195,44,13,-2,-21,-20,9,-3,9
13200,-5,17,5,-1,17,6,-5,-30
13205,17,-43,-8,1,9,-3,-4,-21
13210,-28,10,-4,3,-14,-7,-4,5
13215,0,-19,11,10,12,-4,2,-1
13220,10,3,-4,-3,-22,0,-2,5
13225,-11,17,16,4,-42,-12,-2,13
13230,19,21,19,2,76,27,5,-5
13235,-21,-68,-63,-13,-15,-4,-3,-19
13240,7,-1,2,2,3,-2,-7,-12
13245,-5,7,13,4,6,1,5,20
13250,3,-13,-3,-4,-29,-16,-3,0
13255,-11,19,20,7,-2,3,7,15
13260,32,-9,-28,-2,12,4,4,20
13265,-15,6,32,-1,15,7,-4,-39
13270,26,28,5,-3,-23,-5,-6,0
13275,-9,-3,-6,0,9,-4,-2,-8
13280,-32,-44,-18,0,-7,-7,1,14
13285,-22,-19,-6,-10,1,1,5,23
13290,8,0,-17,-4,-19,-2,-4,-26
13295,-9,31,27,10,16,2,1,-3
13300,28,13,1,3,1,1,2,6
13305,-16,12,-9,-2,5,5,-1,-10
13310,-3,-13,9,7,-4,-4,-2,11
13315,9,-11,-12,-9,-55,-12,-5,-9
13320,-1,5,28,-9,49,6,-2,-19
13325,-15,8,0,14,35,9,0,8
13330,-3,-29,-10,-11,-43,-5,0,2
13335,-13,15,6,7,18,-1,-1,3
13340,6,-1,6,3,-41,-6,-4,-13
13345,3,45,14,-3,7,-2,4,35
13350,-22,-53,-14,1,0,-3,-3,-27
13355,30,-15,-21,3,34,1,-5,-7
13360,-17,0,0,-7,-27,-2,-1,-10
13365,9,-8,2,0,9,2,-1,3
13370,4,43,11,1,-11,-3,4,22
13375,-27,-15,-15,-6,-2,-1,0,0
13380,-16,-16,6,4,-8,-2,-5,-11
13385,74,18,-2,-3,17,1,-1,16
13390,-2,5,10,2,5,-7,-7,-31
13395,0,6,-6,0,25,20,4,-6
13400,-21,-1,-10,-2,-4,-2,-1,6
13405,-16,-11,-3,-3,-14,-7,0,5
13410,9,0,0,1,-3,-5,2,10
13415,7,19,20,0,8,1,-1,2
13420,11,-23,3,12,6,3,0,-3
13425,-9,-17,-24,-16,-34,-5,-1,-5
13430,-4,-10,-8,4,17,5,2,11
13435,-42,-19,-6,-2,-3,-6,-1,0
13440,69,25,-2,-5,4,4,-3,-15
13445,11,-7,10,4,-7,-9,-7,-14
13450,-15,0,-4,1,-1,7,8,21
13455,8,11,8,1,7,7,6,5
13460,-26,-3,11,1,-5,-1,-5,-3
13465,17,-1,0,-2,1,1,3,11
13470,-13,2,-1,-7,-13,-10,-8,-15
13475,-31,-13,-2,2,-1,2,-3,1
13480,2,5,0,-4,-8,-4,-1,-27
13485,-3,4,4,4,24,9,-1,-22
13490,7,29,-2,0,3,0,2,16
13495,-15,-15,8,-2,-36,-7,3,22
13500,34,8,-33,-6,41,-1,-7,-12
13505,-8,1,24,7,1,9,2,-5
13510,-4,3,-9,-1,-4,4,-1,-3
13515,1,6,1,-3,1,-9,-5,-9
13520,-47,-8,-2,-1,-20,-6,3,20
13525,16,17,-14,4,16,-5,0,10
13530,10,-27,8,-11,-14,3,-8,-25
13535,10,10,-9,-1,4,-1,-4,-18
13540,-12,-14,-7,0,0,9,3,5
13545,-15,-8,-5,-5,-17,-7,-3,-6
13550,-7,2,0,3,11,-8,-1,12
13555,13,-2,6,-5,1,-1,-4,-4
13560,-18,17,0,-1,-3,0,0,-3
13565,-11,-23,-37,-2,-14,-4,3,6
13570,31,-22,-1,2,11,8,5,4
13575,29,-10,-2,-2,-1,-4,0,2
13580,12,32,21,9,2,2,0,1
13585,-10,-22,-8,-5,17,5,1,1
13590,-24,-10,-6,-6,-20,-7,-5,-1
13595,-2,14,1,0,21,-4,0,5
13600,-6,-22,10,5,-17,-9,-2,-5
13605,-5,1,24,0,-4,-4,-4,-10
13610,-2,3,-14,-20,10,9,4,16
13615,-2,22,6,1,0,-5,-6,-6
13620,20,-16,-5,-2,-15,-6,-1,9
13625,19,8,-13,-4,-13,-9,-7,-11
13630,-11,11,11,5,33,10,-3,-6
13635,-6,57,13,4,-20,-8,-2,-4
13640,18,-27,-25,-10,11,-1,3,18
13645,-11,34,13,5,-15,3,-2,-15
13650,5,4,4,8,-10,-3,3,10
13655,-9,2,2,1,5,-3,-2,-4
13660,-7,10,-8,-6,-5,-1,1,9
13665,-14,-22,-9,-8,-2,3,-5,-12
13670,13,19,6,0,-8,-6,-1,-3
13675,-7,-20,4,0,3,2,0,-8
13680,-5,-13,-16,-3,0,-4,-2,3
13685,1,38,12,2,-37,-5,3,6
13690,8,-55,-16,0,30,1,-3,-13
13695,14,-6,6,0,-9,8,2,-3
13700,-32,-5,-5,0,28,0,-5,-3
13705,1,2,-3,-6,-15,-1,4,38
13710,25,23,1,1,-15,-10,-4,-32
13715,-11,-71,-2,4,24,6,-3,-17
13720,1,23,7,2,-7,-1,-4,-7
13725,-10,-11,8,0,10,4,-1,1
13730,-35,-5,-6,-2,-16,-2,3,18
13735,15,-6,3,-2,-5,-7,-4,4
13740,11,27,4,-4,-16,4,-2,-2
13745,6,-20,-29,-2,12,-4,0,-5
13750,-10,18,18,2,28,11,2,-1
13755,-2,3,6,-4,-10,-3,0,2
13760,-22,-1,12,3,-3,-5,3,3
13765,3,-3,-12,-2,-1,1,1,1
13770,7,-11,-18,-3,-25,-6,0,-4
13775,12,13,1,2,6,-7,-4,-2
13780,7,3,6,3,23,5,-2,0
13785,-2,0,10,-3,-27,1,3,10
13790,-17,-34,-7,-4,12,3,1,-12
13795,-9,-3,-18,-3,-8,1,3,22
13800,9,-5,0,2,2,-4,-3,-34
13805,14,-7,-5,4,9,-1,-3,-9
13810,7,9,1,-3,-36,-8,-5,1
13815,10,20,15,3,25,5,3,9
13820,-14,-1,-25,-3,-10,0,0,5
13825,-30,-12,7,3,17,0,1,19
13830,21,22,10,-8,-14,-3,-3,-30
13835,5,-1,2,-2,-12,-1,-5,-8
13840,2,9,-6,0,-4,-5,-2,5
13845,1,1,3,-2,-5,-3,-2,4
13850,-19,-11,-11,1,15,7,4,11
13855,-34,9,-11,-6,-28,-6,-6,-12
13860,5,-26,25,3,8,2,0,0
13865,65,-12,-18,-2,27,8,-3,-8
13870,-7,14,5,5,2,-9,-4,4
13875,8,-4,-11,-6,-15,9,5,2
13880,-32,13,6,-3,0,-11,-2,11
13885,-24,-14,12,-4,-2,-3,-3,-13
13890,19,10,0,5,-9,1,-1,-7
13895,14,-9,-8,2,8,-6,-4,-4
13900,-4,-2,8,1,-36,-1,3,12
13905,6,12,17,-1,44,6,2,3
13910,-22,10,-4,-4,-18,0,0,13
13915,-14,-54,-14,1,7,-8,-7,-28
13920,33,29,-3,1,11,5,-2,-10
13925,-34,-5,4,-2,-14,-4,0,0
13930,25,1,0,1,-5,-5,1,8
13935,-27,7,-1,4,12,-2,-1,6
13940,-11,15,26,2,10,-7,-3,-16
13945,12,5,7,1,-27,-5,-1,2
13950,-40,-26,-10,3,38,7,0,9
13955,24,30,9,-15,-11,-7,-4,23
13960,12,17,6,4,-27,-5,-4,-35
13965,6,13,-37,-4,32,0,4,4
13970,-44,-24,7,3,-12,-1,-9,-35
13975,18,34,-2,10,21,6,1,19
13980,-15,-66,-11,-15,-29,1,2,8
13985,20,37,26,0,3,-5,-12,-22
13990,16,6,-4,6,-4,-11,-1,3
13995,-29,-7,-34,-6,8,8,5,1
14000,-21,2,5,-1,-2,2,3,16
14005,25,-12,4,10,-17,-6,-3,-12
14010,25,16,17,-9,13,5,-2,9
14015,-34,-47,22,2,0,-7,-6,-23
14020,30,21,-28,-3,8,5,3,16
14025,-7,-17,1,-2,-5,-3,-2,-8
14030,-13,-48,1,-4,-10,-4,-4,-1
14035,-26,-2,2,5,-22,-21,3,26
14040,31,31,-16,-5,46,28,0,-25
14045,-2,-17,-4,3,-16,-10,-5,0
14050,-4,26,29,5,-1,5,2,7
14055,1,-28,-14,-5,-12,-1,1,-6
14060,11,6,16,2,7,-2,-2,-1
14065,2,-26,-18,-12,6,19,6,1
14070,-5,-2,-10,6,15,-8,1,4
14075,-22,-19,-7,-9,-28,-2,5,23
14080,11,88,33,6,3,13,0,-12
14085,17,-55,-1,3,-7,-5,-4,-15
14090,-19,30,13,1,-6,-4,0,19
14095,-3,-24,-40,-7,-24,-2,-2,-15
14100,5,25,5,5,52,-8,-3,4
14105,7,-13,16,1,4,3,-3,-4
14110,-19,-2,-1,3,4,1,0,10
14115,23,65,10,-8,-1,2,1,-2
14120,-29,-98,-36,-5,-16,5,0,0
14125,-7,44,5,1,-15,-8,1,10
14130,23,-58,-16,-4,-22,0,1,7
14135,-19,-21,-8,-4,72,-2,-11,-47
14140,2,35,51,5,-26,-11,0,20
14145,-11,-44,-14,-2,5,7,9,9
14150,5,31,-7,1,-8,0,-4,-26
14155,3,12,10,6,-14,0,-1,1
14160,-18,-27,1,3,-12,-11,-4,-2
14165,4,62,6,-3,-4,-1,2,22
14170,-11,-44,3,-6,37,3,2,-12
14175,17,-30,2,6,-11,8,-1,-18
14180,-20,-16,-20,-4,14,7,-1,6
14185,7,21,5,2,-4,-5,-1,7
14190,18,6,1,-3,-12,-2,1,5
14195,-14,-23,33,10,-3,-2,-1,-7
14200,-22,-14,-39,-11,-14,-8,1,32
14205,25,-28,16,1,-42,-14,-2,-46
14210,7,62,11,-2,50,25,-4,-24
14215,-23,5,-28,2,-4,-3,3,22
14220,24,57,17,9,-41,-24,-3,-13
14225,-22,-82,-14,-5,52,34,6,12
14230,16,17,-6,-6,-37,-18,-6,9
14235,18,14,12,10,-20,-1,1,11
14240,-22,-4,-18,-15,17,-8,-5,-9
14245,-35,-14,-34,-7,-20,-4,1,1
14250,17,-5,32,4,0,-4,-3,-10
14255,-13,-1,0,-6,5,3,-4,-11
14260,16,-18,6,5,-5,-2,4,10
14265,0,31,5,0,5,-7,-4,-18
14270,-8,24,10,5,34,8,0,2
14275,1,-26,-41,-7,-28,-12,-2,7
14280,46,5,10,3,20,3,-7,3
14285,-22,12,8,-1,-14,-5,-3,0
14290,-2,-10,-23,-6,-30,-12,-2,-6
14295,11,14,1,0,45,9,0,-1
14300,-27,11,6,-2,-12,-2,-3,1
14305,18,-3,-24,0,-28,-9,-5,9
14310,-13,7,9,-7,19,-1,-8,-35
14315,20,20,23,4,-1,4,8,32
14320,-1,-19,-20,5,4,4,0,-36
14325,-22,25,23,7,14,4,2,1
14330,-9,-45,-25,-6,-26,-16,-1,19
14335,54,0,-7,-6,-22,2,-1,-3
14340,-8,27,20,8,24,6,3,0
14345,0,-39,-34,-4,-18,-7,-1,3
14350,-10,2,-9,-6,-7,2,2,17
14355,-38,-3,-9,-1,28,7,-4,-11
14360,-4,11,10,-4,-24,-7,-2,-12
14365,17,15,19,2,26,-2,-9,-33
14370,-17,4,-21,0,-24,6,7,16
14375,-32,-45,9,5,5,-16,-12,-20
14380,19,-2,-13,-16,3,17,5,32
14385,55,33,10,5,-5,-6,0,-7
14390,-25,-10,9,1,20,12,4,4
14395,27,30,8,-1,-11,-13,-1,3
14400,-59,-37,-7,2,-10,-9,-4,6
14405,27,1,-26,-17,-4,1,2,32
14410,-7,-28,6,0,-4,-3,-7,-33
14415,2,13,3,3,24,1,2,4
14420,2,-3,-5,-15,-7,-3,-1,-3
14425,-29,39,20,16,19,13,6,11
14430,-10,64,-10,-1,-11,-3,2,5
14435,-5,-37,-6,-9,-14,1,1,-23
14440,30,49,29,4,5,2,-1,-11
14445,11,-42,-10,3,9,-9,-7,-3
14450,-6,-15,-23,4,2,-2,-4,9
14455,1,6,-2,3,4,10,3,0
14460,-7,-21,-7,-2,-4,-3,-3,-22
14465,-23,18,1,-3,8,4,2,-6
14470,28,-23,42,2,-2,-1,-4,6
14475,-4,36,25,-1,-17,-4,3,23
14480,13,-52,-12,1,26,-5,0,1
14485,-28,-9,-17,-11,-25,-1,-4,-16
14490,34,-6,-2,-3,23,-8,-6,-7
14495,16,37,16,-3,16,5,0,8
14500,-22,10,-11,5,-10,10,6,18
14505,2,6,21,-5,-4,-4,4,20
14510,7,-2,-41,6,-10,0,-7,-46
14515,1,-9,10,2,9,4,-1,-7
14520,-54,-4,2,-1,1,-11,1,20
14525,34,14,10,2,-17,-10,-8,-16
14530,-8,12,19,-1,-4,12,8,10
14535,5,1,-2,0,16,-3,-6,-5
14540,-24,-14,-6,-2,-15,8,0,-6
14545,14,36,-3,8,11,1,2,0
14550,-8,-28,28,-3,3,-14,-5,-3
14555,-24,-14,-1,-6,-58,2,-2,7
14560,29,26,-4,8,77,8,13,21
14565,16,-10,-9,-4,-2,19,-5,-27
14570,-4,-43,-4,1,13,0,-2,3
14575,-2,25,-5,-6,-18,-9,-1,0
14580,-27,11,10,2,-30,-14,-7,0
14585,2,-20,18,-4,14,-3,2,7
14590,-28,40,-7,-2,-22,2,2,0
14595,38,-19,-7,3,43,0,0,3
14600,10,-29,-42,-2,-24,3,2,-6
14605,-43,-2,7,0,4,-1,-1,-13
14610,62,32,-5,-2,-35,10,-2,-4
14615,-13,4,2,4,8,-10,-5,-11
14620,26,-17,3,-4,-7,1,-3,-9
14625,-40,-14,-35,-6,9,-3,1,16
14630,-37,15,10,5,-36,-10,11,50
14635,12,-79,-32,-6,-22,-6,-3,-31
14640,37,11,-8,-10,71,19,-12,-43
14645,-27,-17,3,3,-17,4,1,13
14650,36,-8,12,-4,27,5,1,4
14655,-5,25,-19,-1,-28,-4,3,15
14660,-20,-7,3,-2,-21,-14,-2,8
14665,3,12,8,-1,-8,-12,-4,-2
14670,-4,-4,-16,-1,17,3,2,0
14675,-18,2,10,-4,-1,4,-1,2
14680,10,-6,1,3,-22,-6,0,-3
14685,4,12,6,1,14,4,4,12
14690,-37,-11,-10,-18,-44,-17,-9,1
14695,63,30,6,19,50,27,5,-11
14700,-16,-51,-7,-10,-18,-9,-9,-39
14705,24,-3,13,5,11,0,-4,-6
14710,-21,-13,-8,-5,3,-5,2,12
14715,-32,21,10,-6,-33,-5,3,15
14720,6,15,12,6,-1,-2,1,10
14725,-2,-4,-2,-3,-2,-2,1,3
14730,0,-8,-4,6,7,-1,-3,-13
14735,-9,-11,8,6,-20,-3,-1,5
14740,11,99,18,-5,49,10,2,-3
14745,23,-67,-20,-4,-9,0,-4,3
14750,0,23,-3,1,25,-6,-8,-12
14755,-4,-26,-7,-10,10,2,-4,-15
14760,-15,-5,7,6,-21,-11,0,5
14765,-6,38,13,1,-7,-2,2,4
14770,13,5,-1,-2,4,4,0,-5
14775,-24,-8,0,1,-9,-8,-2,7
14780,-29,-19,-4,3,-1,-7,1,25
14785,29,-3,-4,-5,-9,-2,2,-19
14790,6,21,14,11,35,27,13,-14
14795,20,28,13,-6,-18,-2,-7,16
14800,-3,-71,-19,1,2,-4,-6,-20
14805,-8,-6,-5,-2,-13,-8,-10,-16
14810,-16,-41,-11,3,9,-9,-1,7
14815,3,8,-1,-11,-15,-1,4,1
14820,2,9,4,3,-19,2,3,18
14825,-10,-1,-5,-1,26,-1,2,12
14830,1,-2,-6,-3,22,-1,-3,-9
14835,-33,11,7,-4,10,2,0,1
14840,35,16,1,-1,-43,-1,0,-5
14845,15,18,-14,-7,24,-6,-7,-18
14850,19,10,11,-3,-42,-11,-8,-2
14855,-14,-13,-8,-3,-17,-7,-2,3
14860,-13,24,13,3,56,14,3,7
14865,-29,12,5,5,-18,2,6,12
14870,-6,-79,-26,-7,-11,2,-4,-3
14875,2,7,-5,-3,7,-4,0,-17
14880,18,26,6,1,-21,-11,-11,-4
14885,-11,8,19,2,5,3,0,-3
14890,-28,4,-1,1,7,-5,3,40
14895,18,-8,-32,-6,13,8,6,-32
14900,20,-16,20,6,14,-3,-6,-19
14905,-15,10,5,4,12,5,3,7
14910,26,26,12,-7,-39,-10,-1,-5
14915,-8,-31,2,1,10,0,2,15
14920,-18,-6,-7,-1,2,5,7,16
14925,0,10,4,-1,7,-7,-6,-13
14930,22,-11,-5,1,-6,6,-6,-16
14935,1,38,5,6,-15,2,-2,1
14940,6,-9,-18,-7,-7,0,1,14
14945,-39,-8,-2,-3,4,-4,0,0
14950,2,0,13,8,-9,-4,-8,-26
14955,22,-4,10,0,29,9,-2,2
14960,-18,-17,-36,-9,-24,-1,2,-5
14965,11,-8,5,0,-11,0,-1,7
14970,-3,9,-15,-5,11,5,3,3
14975,-16,29,-6,3,-12,-7,-3,0
14980,-9,-42,24,-2,5,-6,-2,-4
14985,32,10,-3,1,-10,-11,0,16
14990,17,7,6,-4,4,14,11,10
14995,11,-5,13,4,27,3,-6,-13
15000,-13,1,-14,-2,-6,-2,0,7
15005,-17,-16,8,-3,-20,-3,-2,4
15010,-3,6,-28,-1,6,-8,-4,-6
15015,-44,-11,2,-1,-7,-5,1,23
15020,49,1,24,-2,-42,-10,3,-2
15025,54,5,-40,-6,44,18,-9,-21
15030,-13,16,19,4,7,4,0,6
15035,1,-18,3,-2,-4,-2,-3,-9
15040,-28,4,0,5,0,-1,-3,5
15045,-14,-6,8,-3,-23,-5,4,12
15050,-6,-4,-15,-2,15,2,-1,-9
15055,-10,19,1,9,-34,-14,-2,17
15060,-25,-55,-15,-29,37,16,5,-27
15065,38,31,-7,5,-18,-16,-13,-14
15070,-7,-3,14,-1,35,5,0,-3
15075,4,9,-4,0,-11,-2,2,3
15080,15,6,-6,4,-10,-9,-3,11
15085,-21,-9,-10,-2,4,4,6,-4
15090,-39,-34,-2,1,-50,-13,-3,5
15095,26,-31,-12,-10,48,-4,-5,-9
15100,35,22,-35,6,3,13,3,7
15105,-12,-1,3,-6,7,7,2,5
15110,12,-3,9,1,-17,-9,-4,-6
15115,-18,0,8,-2,4,2,2,5
15120,-5,4,7,6,-2,-3,-3,-4
15125,-6,-4,11,-1,-8,2,3,23
15130,-16,-14,-20,-6,0,-6,0,-2
15135,28,12,13,8,5,1,-4,-16
15140,15,-3,-1,-8,11,7,-1,0
15145,-17,-29,15,-1,-7,-8,-2,-8
15150,-12,4,-1,-4,4,-2,1,20
15155,-9,-25,-18,-5,-13,-1,-2,-21
15160,-23,24,7,7,-12,-12,-5,-6
15165,-10,10,-17,0,-2,0,1,-1
15170,60,-8,-14,7,-7,0,-2,-5
15175,-11,-14,4,-17,37,0,3,17
15180,1,2,13,6,6,10,2,-6
15185,-40,-11,1,0,1,4,-1,-2
15190,-5,23,17,0,-17,-2,1,-1
15195,44,44,0,4,-6,-6,-1,7
15200,-6,-11,-10,1,-18,-9,-5,6
15205,3,-11,-8,-8,-4,1,-1,-12
15210,-3,34,7,0,25,5,1,0
15215,-25,-49,2,-2,-13,3,-3,-8
15220,-16,-2,17,-4,-1,-4,2,10
15225,15,8,-19,2,-19,-12,-5,3
15230,-5,28,4,-1,13,4,0,-17
15235,-1,-35,-13,2,9,0,-7,-26
15240,-13,51,15,6,7,-4,-4,3
15245,10,-14,-4,3,-4,7,2,-1
15250,-20,-36,-11,-4,17,3,-2,2
15255,-5,17,6,2,-15,2,5,0
15260,9,1,-12,1,-14,-8,2,1
15265,-2,2,-12,0,22,-3,1,21
15270,-11,-1,33,-11,-6,9,0,-10
15275,10,-7,-22,-1,-17,3,-1,0
15280,-14,13,-4,-2,5,-7,-8,-15
15285,8,-28,-11,4,-20,8,6,2
15290,6,-19,-12,9,15,-13,-2,2
15295,-14,11,5,0,22,8,5,5
15300,-28,7,5,-5,-4,6,0,-2
15305,30,-8,8,-2,3,-5,-1,1
15310,-1,10,-19,-5,-43,-8,-3,-11
15315,4,8,26,2,3,-2,-2,6
15320,-1,-21,-1,0,5,-1,2,0
15325,-15,26,7,0,6,1,-1,-6
15330,3,-10,3,-4,-18,-2,-1,-1
15335,5,-5,-11,0,-5,-2,-2,12
15340,0,-20,-6,0,2,0,-2,2
15345,12,17,40,-5,14,1,-1,-17
15350,7,32,-41,-2,-17,-2,-2,8
15355,-44,-41,-19,-7,22,-4,-2,-5
15360,48,-6,2,-10,-46,-10,2,10
15365,17,14,8,10,27,16,-2,-30
15370,-14,-11,7,6,-2,0,0,3
15375,-13,12,0,-9,-11,-4,3,12
15380,-6,-23,-14,-3,5,-9,-4,-11
15385,-6,18,-19,-4,-22,-7,-2,5
15390,24,14,22,8,31,10,3,2
15395,-13,5,-12,5,-14,0,1,9
15400,8,8,21,-2,-1,0,-1,-10
15405,-28,-11,-21,-4,-11,0,2,11
15410,-4,-65,-28,-4,12,-5,-2,-7
15415,9,15,33,5,-18,-8,-5,-8
15420,9,0,-28,3,16,7,0,-10
15425,-5,37,18,3,8,9,5,18
15430,-7,7,14,-7,-7,-5,-4,-9
15435,17,4,-11,2,-3,2,6,17
15440,-28,-3,7,1,3,-8,-10,-28
15445,13,-21,-4,-1,-38,-6,-1,0
15450,-8,12,-5,-8,18,1,-3,4
15455,16,14,-1,4,3,8,2,-4
15460,-7,2,2,3,-9,1,0,0
15465,-10,-7,6,-9,-8,-9,-1,7
15470,2,41,8,6,24,7,6,3
15475,-18,-77,-25,-14,-9,-1,-9,-27
15480,29,16,-18,11,-14,-6,2,8
15485,-10,-5,0,-10,27,-2,-2,8
15490,-8,-3,-4,-1,-15,-6,-2,-5
15495,45,34,-3,-3,0,0,2,10
15500,-42,-6,8,0,-10,-1,-3,-15
15505,11,-11,-5,3,-7,4,-1,-19
15510,-12,-21,1,-6,9,-2,0,11
15515,-16,-2,12,3,-33,1,-5,-4
15520,22,10,0,1,31,1,5,23
15525,-24,-28,-22,0,14,2,-6,-20
15530,4,15,21,-1,-15,-4,-3,-11
15535,1,17,-7,6,4,-4,-1,0
15540,-22,-15,3,-10,-11,-2,-1,11
15545,30,1,3,-2,-9,1,1,0
15550,2,36,26,5,8,3,0,-5
15555,2,-4,-18,-2,0,-4,-2,-5
15560,-21,-11,-3,1,16,0,-2,15
15565,-3,2,-13,1,-10,-11,-4,-16
15570,24,-22,9,-11,-1,5,0,-9
15575,-5,1,-9,4,3,-4,-3,-7
15580,-15,22,4,-3,-17,2,-1,-5
15585,14,-22,-7,-3,16,-5,-1,36
15590,6,26,29,13,-2,1,-6,-25
15595,-15,-23,-22,-2,-22,-2,1,-4
15600,-4,-11,-12,-3,27,13,2,-5
15605,13,-2,19,-3,12,-6,-2,5
15610,0,6,-13,1,4,0,5,19
15615,-12,17,27,-3,-3,4,1,-1
15620,28,-11,-28,-5,-10,-5,-7,-21
15625,-7,25,2,10,-13,-6,-1,-5
15630,-3,2,5,-1,23,8,5,18
15635,-17,-25,8,-16,-16,11,6,9
15640,30,30,10,8,-20,-9,0,15
15645,-15,-12,2,-8,7,-3,-11,-32
15650,2,4,-5,7,31,0,5,7
15655,-41,19,-6,-3,2,-1,-3,-5
15660,49,-10,-6,-3,-54,-2,8,19
15665,-11,-15,-9,0,57,-2,-1,2
15670,-29,-6,-3,2,-17,0,0,11
15675,35,-8,7,-2,13,1,-4,-18
15680,-34,26,8,-4,4,2,10,28
15685,20,1,-13,0,-45,-7,-5,-42
15690,13,-4,-8,6,-12,-3,-3,0
15695,9,14,18,1,0,-4,-2,18
15700,-18,-15,22,1,18,4,-3,-17
15705,-22,-5,-57,-5,-7,2,6,18
15710,-4,-13,-1,-4,6,-2,-2,0
15715,29,27,0,5,-27,-10,-5,2
15720,18,-15,-14,-5,-5,-7,-6,-17
15725,-14,21,39,3,27,10,5,11
15730,-6,-23,-8,-4,-14,-1,2,10
15735,6,29,0,-4,-7,1,-4,-37
15740,-5,-11,18,2,-25,-10,-8,-7
15745,-6,-21,-16,1,44,15,-2,2
15750,-7,24,-12,-5,-20,-9,-1,7
15755,-7,-2,8,3,9,-2,4,26
15760,8,-8,-6,8,37,7,-1,-26
15765,12,-7,-3,-7,-50,-8,-1,20
15770,5,-16,-2,-9,-1,-3,-5,-27
15775,1,19,5,-1,22,1,-1,10
15780,8,3,-13,-3,12,1,-2,-12
15785,-18,9,39,7,2,-1,0,12
15790,13,-6,-32,-8,-16,5,-1,-6
15795,2,-23,-7,0,18,-3,0,-9
15800,-25,-16,-22,1,8,1,1,14
15805,-13,0,9,-5,-26,-11,-3,-15
15810,-2,27,17,-1,-5,-1,-2,-7
15815,-8,-29,-33,-1,8,-3,-1,-10
15820,-11,-21,8,-2,9,1,-2,2
15825,18,-3,24,1,-3,3,2,13
15830,-25,-13,-4,-3,4,-4,-2,0
15835,13,9,-7,-3,-30,-14,-1,4
15840,34,30,17,2,28,13,7,32
15845,-27,-40,-11,-5,-5,-10,-6,-25
15850,-7,2,-3,2,2,-1,-6,-22
15855,-4,-16,-19,-6,10,4,-2,-2
15860,-12,-7,-6,0,-15,-6,-1,7
15865,38,49,8,-5,-9,2,3,6
15870,-5,-58,-19,-3,-2,-6,-1,5
15875,-14,-9,-19,2,14,5,-2,-5
15880,-6,-20,-3,-2,-17,-8,-8,-14
15885,-35,4,-12,2,2,1,-1,7
15890,2,15,2,0,10,0,4,24
15895,50,13,24,0,4,-1,-9,-40
15900,-22,11,10,1,6,7,2,-14
15905,10,-19,-40,6,5,0,4,5
15910,-9,-15,-14,-12,4,9,1,9
15915,-8,5,17,2,-24,-12,0,2
15920,8,25,24,9,22,9,0,-8
15925,-18,-38,-7,-7,6,19,5,-1
15930,10,7,-1,2,7,-8,3,17
15935,-9,-22,-13,2,6,4,1,11
15940,1,-1,2,-6,-14,-11,-5,-21
15945,-6,18,25,-3,-1,9,-1,-3
15950,18,9,1,4,-3,-8,-6,-10
15955,14,2,23,0,4,5,1,18
15960,-18,-13,-12,-3,0,4,2,0
15965,23,27,3,1,-3,-9,-4,7
15970,1,6,10,-4,-25,-5,-3,-14
15975,-43,18,-24,6,17,9,4,-2
15980,35,12,3,-8,-21,-6,-1,25
15985,-24,15,23,3,2,-3,-4,-19
15990,6,5,-7,3,-4,-2,1,-10
15995,-5,-9,-29,-1,-6,-6,-3,-3
16000,-5,-2,1,-8,-5,1,-1,8
16005,-10,8,6,1,-7,-4,-4,-2
16010,-15,-21,6,6,12,0,4,21
16015,55,-8,-6,-11,-41,-8,-1,9
16020,-8,-2,-11,5,61,26,0,-50
16025,2,-3,4,2,-12,-6,-3,8
16030,11,0,-1,0,-10,1,-4,-12
16035,-20,-17,-6,-1,8,-5,0,20
16040,5,-1,6,-1,-23,-10,1,8
16045,-10,3,-1,1,-12,-13,-3,3
16050,13,16,3,-9,20,4,-1,-13
16055,-13,-8,12,-3,-7,-1,-3,-3
16060,-2,-10,-46,-2,2,-4,-3,-1
16065,-5,3,-14,0,0,1,-2,-9
16070,-3,-10,4,3,-6,-11,-2,4
16075,3,13,22,1,1,1,0,-4
16080,-8,6,7,-3,4,1,1,6
16085,-5,-12,2,4,-10,-4,0,11
16090,12,12,-29,-4,-20,-2,0,22
16095,16,-35,3,-9,8,-6,-4,-41
16100,17,17,6,2,-3,3,-9,-25
16105,21,-54,-12,3,13,0,-2,-9
16110,-37,31,14,5,9,6,2,9
16115,-20,1,5,7,4,-3,1,9
16120,4,53,-1,-8,-20,-16,-1,15
16125,4,-52,2,-8,-5,4,2,2
16130,-4,-30,10,4,-3,-2,-2,-9
16135,-21,-26,-41,-7,-4,0,-3,4
16140,-3,-6,7,0,3,6,0,-6
16145,3,61,22,7,18,8,1,1
16150,6,-31,-19,-9,-18,-1,-2,-6
16155,9,7,21,5,10,4,0,2
16160,-8,-13,34,-4,-12,-1,2,11
16165,1,21,0,5,8,-7,-4,-4
16170,4,-34,-9,-10,-56,-13,-6,-10
16175,-13,18,-1,-3,55,4,2,16
16180,0,-1,-8,-2,-6,7,8,1
16185,34,-17,1,1,-13,0,-3,-22
16190,6,-4,16,7,17,3,-2,-7
16195,-5,33,9,3,-24,-7,0,12
16200,-28,-9,-49,-3,-1,-7,-1,0
16205,-4,2,4,-7,-21,-6,-5,-3
16210,15,-1,-8,5,20,5,-1,-1
16215,-18,15,10,-7,-2,9,-3,-15
16220,9,-28,28,3,12,-1,4,17
16225,-6,26,-7,-2,-6,1,-2,2
16230,-23,22,7,-4,1,-2,-1,-3
16235,2,-19,-2,2,-8,1,3,2
16240,31,12,-1,-2,-1,-4,-5,3
16245,17,-54,-9,-2,6,2,-1,-6
16250,-9,51,10,1,10,7,3,1
16255,-1,19,-2,0,19,-1,-1,5
16260,-13,-22,16,-1,-13,-2,-1,-6
16265,-17,-4,-55,-4,-6,-5,-3,5
16270,0,2,3,-5,14,0,0,-10
16275,6,67,15,5,-12,1,0,-8
16280,-17,-46,19,0,7,11,2,1
16285,8,38,3,1,10,-5,-1,4
16290,-4,-18,-2,-7,-23,2,1,-5
16295,5,-12,-9,3,-8,-10,-3,-1
16300,2,26,4,7,29,1,-1,5
16305,-19,5,-2,-9,6,13,6,6
16310,24,-11,-23,7,2,2,4,10
16315,28,-1,14,-6,-9,-2,-2,-9
16320,-22,-2,-18,2,-1,0,-3,2
16325,-12,-10,20,-3,-8,-2,-1,-5
16330,1,-11,1,2,-19,-11,-6,-7
16335,-4,23,-17,-2,60,10,-3,-3
16340,-2,-53,-11,-3,-18,-3,1,-5
16345,2,14,-6,-1,-6,-2,3,5
16350,-17,-6,18,0,5,3,-5,-7
16355,-11,-12,6,3,-25,-7,0,0
16360,3,31,-3,-2,-15,-3,-1,3
16365,13,51,-4,-5,19,-1,-2,5
16370,19,-30,-16,-2,6,2,-2,-4
16375,-5,5,-2,0,-7,3,-1,-7
16380,-3,6,-9,6,2,-7,-5,-8
16385,-2,1,13,-4,-15,1,1,-1
16390,-34,70,20,-2,7,-2,2,21
16395,23,-97,-7,-6,-20,-9,-2,-8
16400,15,25,-13,4,26,9,-5,-12
16405,1,-3,5,10,-30,-10,1,5
16410,-5,-12,11,-9,22,11,2,-6
16415,-29,8,13,4,19,5,3,12
16420,13,14,2,-5,-6,-5,-1,-3
16425,-2,-30,-8,-3,8,0,-1,2
16430,-9,-4,-19,2,-6,-6,-1,1
16435,-12,-8,4,0,-30,-2,-3,-2
16440,14,5,-2,-4,2,6,4,-1
16445,11,-28,-4,2,3,-5,-6,0
16450,13,60,9,-2,2,2,1,1
16455,-14,-20,11,3,-4,-5,-2,3
16460,-6,-27,-37,-9,-8,-9,-9,-21
16465,-6,-1,4,-1,4,11,2,1
16470,2,-14,-12,-1,2,-5,-2,-5
16475,1,38,-1,-3,-6,2,2,11
16480,-6,30,19,-1,-20,0,2,11
16485,2,-39,-6,7,44,-4,0,7
16490,-20,-20,-14,-11,-30,4,-1,-8
16495,54,-2,-11,6,36,8,3,5
16500,14,27,13,-4,-34,-10,-7,-9
16505,-2,23,9,-3,25,5,-2,-4
16510,-8,-1,6,9,3,-1,0,8
16515,-26,9,16,-4,-27,-4,0,-5
16520,-8,-16,-52,2,19,-6,2,26
16525,18,17,13,-2,-4,16,0,-20
16530,6,-9,-11,1,2,-5,-2,-2
16535,-1,8,-31,1,6,-3,-3,-5
16540,-4,-17,22,1,-24,-7,-2,1
16545,-22,14,-7,-9,-2,6,6,11
16550,-4,-23,-11,0,3,-6,0,2
16555,31,0,9,10,-5,6,-1,-1
16560,-22,-11,1,-7,4,0,-3,-14
16565,-3,0,-12,-4,-18,-10,-7,-4
16570,11,5,7,-1,6,-2,1,6
16575,-27,30,3,-10,10,-3,-2,2
16580,1,-22,6,4,10,-4,4,-5
16585,-11,-29,-4,1,9,15,0,-15
16590,31,18,19,8,-7,-2,-2,-4
16595,-17,16,-24,-7,-11,-6,-5,5
16600,-1,-5,11,-5,1,-3,-1,3
16605,-7,4,11,-4,-40,-16,-4,0
16610,-44,-16,-28,13,44,-2,-1,-6
16615,54,-37,-7,-15,-10,24,13,29
16620,-9,41,2,2,6,1,-8,-21
16625,5,-2,15,1,-16,-10,0,6
16630,-9,-3,12,-2,6,3,-5,-11
16635,-10,40,14,-1,-11,-11,-3,-10
16640,1,-38,-39,4,-14,1,0,6
16645,-19,18,14,-2,40,6,-4,-8
16650,31,-4,-17,-5,-8,-5,-1,10
16655,-13,-15,21,1,12,-4,-5,-9
16660,18,29,23,-4,-19,2,2,5
16665,-33,-3,-31,4,4,-9,-2,-13
16670,10,-9,4,2,-16,-3,2,1
16675,-4,3,6,-6,-13,7,0,-4
16680,-46,-10,-7,3,42,1,0,5
16685,47,3,-7,-4,-18,-4,-4,13
16690,-33,-22,-7,-5,10,1,-1,-17
16695,15,29,5,5,-8,-9,-6,-13
16700,-3,9,8,4,-4,-5,-1,2
16705,-8,7,2,2,8,4,1,4
16710,5,-7,-16,-11,-12,7,0,0
16715,-22,-19,-5,-1,0,-8,-2,0
16720,5,25,6,-1,-16,-1,3,-1
16725,-11,-8,7,6,26,-1,-1,6
16730,38,-21,-1,-9,-21,-5,-4,-10
16735,-32,37,7,0,-14,2,4,-11
16740,26,-46,2,-3,21,-5,-7,8
16745,11,3,-10,-3,-5,2,3,3
16750,-17,4,12,2,5,-3,-2,-15
16755,-8,-8,-4,2,-30,0,0,4
16760,6,-17,-17,-7,32,4,0,-9
16765,-8,-21,-4,-4,-13,-2,0,-2
16770,4,28,8,-1,16,-1,-2,10
16775,-6,-23,-18,-1,-7,-1,1,-6
16780,-9,-2,0,1,-25,0,0,7
16785,20,-2,4,-4,26,-2,-2,9
16790,-14,1,-5,-3,0,2,-1,-34
16795,11,13,13,10,20,0,-4,0
16800,28,-24,5,-3,-6,0,-1,2
16805,-14,-9,-46,-1,-6,-6,0,0
16810,3,-13,4,3,-37,1,3,29
16815,-14,18,-1,-12,27,0,-4,-11
16820,-16,-52,3,7,32,8,4,-8
16825,9,-4,-13,-6,-29,-1,-4,-5
16830,8,3,11,-6,10,0,-2,-1
16835,-1,-27,-10,2,-18,-10,-2,-2
16840,4,31,19,-1,-22,1,0,-4
16845,-12,16,-1,-4,25,0,5,20
16850,19,-24,-5,1,-22,-7,-7,-9
16855,-6,5,-7,-5,34,8,2,4
16860,2,-18,2,4,-11,2,-3,-13
16865,-1,10,33,6,-12,3,1,-6
16870,2,20,1,1,-21,-13,-3,7
16875,12,-10,-6,3,28,8,4,10
16880,-6,39,-16,-6,-10,-1,4,16
16885,-18,-46,38,5,2,-6,-5,-17
16890,-3,0,-17,-7,12,9,1,0
16895,1,-20,0,5,-11,-10,-7,-16
16900,-17,31,-7,1,3,-5,0,-1
16905,25,31,14,-3,-23,0,1,10
16910,-16,-64,-8,-5,-1,1,1,1
16915,-7,-1,-8,1,2,8,2,-1
16920,7,5,4,-5,0,-5,-8,-9
16925,-18,8,-15,0,-6,-3,-2,-5
16930,-24,26,10,7,24,-4,3,13
16935,34,-20,-4,-12,-16,-3,3,3
16940,-12,6,11,1,-19,1,-1,-1
16945,9,-17,-27,-1,28,-3,-5,-13
16950,-11,44,17,1,-4,1,-1,0
16955,-4,-60,3,-1,-21,-8,-1,-7
16960,-11,40,-1,1,20,4,2,14
16965,5,-20,15,1,-16,-5,3,5
16970,16,-12,-48,-6,4,-4,-6,-23
16975,6,8,19,5,8,18,4,4
16980,2,-13,1,-1,-2,-3,-2,0
16985,-20,16,7,1,-7,1,0,-7
16990,5,11,5,2,11,7,5,24
16995,7,-18,-9,-4,-24,-12,-5,3
17000,16,9,-8,-3,16,-2,-2,-6
17005,-16,17,15,-3,-1,11,-1,-7
17010,4,1,7,5,11,3,1,-3
17015,1,20,7,0,-3,-3,-1,1
17020,-26,-53,-4,3,-18,-6,-2,7
17025,2,44,-8,-4,11,-5,-4,-14
17030,18,-24,-26,-3,1,4,-1,1
17035,-15,20,21,-4,9,8,0,-3
17040,9,17,-13,3,-11,-6,2,16
17045,-3,-36,18,-4,7,-1,-7,-15
17050,-4,-8,5,1,-3,-6,4,11
17055,10,4,-6,1,-22,-10,-5,-13
17060,2,2,-4,-10,13,4,0,-2
17065,-17,-15,-32,0,2,-3,0,-3
17070,-7,-1,17,4,7,10,2,-9
17075,-7,6,-6,1,-11,-11,-2,10
17080,-22,-19,0,-4,5,1,-1,-1
17085,47,-59,-11,-3,-27,-4,-6,-6
17090,2,12,-1,5,38,-9,-5,-11
17095,17,-11,-23,-1,3,16,9,14
17100,1,0,13,0,-9,2,-3,-9
17105,-12,23,1,0,-1,-5,2,19
17110,-30,-9,-5,-4,-39,-9,-6,-10
17115,18,-2,9,-3,20,-9,-2,0
17120,7,42,2,0,2,10,4,14
17125,9,-1,-4,1,16,4,-2,-8
17130,7,13,1,-4,-13,-2,0,3
17135,-33,-1,-4,-1,11,-5,-3,-6
17140,1,-13,4,-2,-13,-5,-2,-17
17145,-2,61,17,5,3,-3,4,3
17150,-18,-83,-47,-7,-7,0,-6,-22
17155,1,12,6,-8,4,3,0,1
17160,14,-8,-1,4,-2,-3,-2,-3
17165,-3,33,19,3,-17,-3,0,5
17170,-22,10,-9,1,-9,-2,4,20
17175,-6,-29,-19,-7,12,3,-5,-12
17180,23,3,9,3,15,-1,-1,-16
17185,27,2,-6,-3,-4,-6,-2,-1
17190,-2,22,19,-1,-12,2,0,6
17195,-16,-4,-2,5,10,-7,-5,4
17200,-28,12,-10,-6,2,3,1,-6
17205,-3,-42,-4,-4,-9,-5,4,12
17210,25,54,32,8,5,-6,-10,-23
17215,-8,-48,-24,-4,-16,-1,1,5
17220,2,-23,-7,-1,-3,-1,-1,1
17225,-8,20,-12,-4,8,4,1,7
17230,7,-41,-6,0,16,-1,2,11
17235,-72,31,16,7,-16,-14,-7,-10
17240,57,12,-35,-8,5,10,5,4
17245,16,22,20,1,-4,3,-4,-11
17250,-2,9,6,-3,-2,2,3,8
17255,17,26,11,3,-4,-4,-4,8
17260,-28,-17,-11,1,9,-7,-1,-2
17265,-34,-4,-7,-7,-24,-5,0,12
17270,24,8,1,-8,15,3,-6,-26
17275,1,22,15,3,-3,2,2,2
17280,-15,-29,-23,0,3,-6,-5,-1
17285,6,-48,-9,1,1,5,2,0
17290,-13,11,-14,0,9,-4,0,8
17295,13,-7,-8,-8,-13,-2,-2,-11
17300,5,13,25,-1,-30,-5,-1,-3
17305,-12,-1,8,2,46,5,-2,-7
17310,-24,12,-29,2,-27,-3,2,21
17315,73,-22,3,-2,21,2,-4,-16
17320,-5,15,23,4,-13,2,0,1
17325,3,-5,-9,1,10,5,-1,-3
17330,-10,5,32,0,-10,3,1,0
17335,-17,-6,-6,7,10,-6,0,12
17340,10,9,-1,-6,-10,1,-3,-11
17345,-9,14,-1,0,-15,-2,-4,-21
17350,5,-13,13,4,13,0,1,3
17355,-11,6,-8,-3,-9,-2,-2,-1
17360,-1,-10,16,-2,4,-2,1,9
17365,-28,41,-6,-6,-1,4,2,-2
17370,47,-26,-11,-3,1,-3,-3,1
17375,-6,5,4,3,-29,-2,-3,-7
17380,1,0,7,2,31,-5,-5,-3
17385,-17,-3,6,0,-8,0,3,14
17390,0,1,9,-1,-5,3,0,-16
17395,-3,1,-9,-2,6,-5,5,16
17400,8,13,-5,5,6,5,-1,-10
17405,-19,-17,-18,8,5,-9,-6,-6
17410,8,-9,8,-15,-17,6,3,15
17415,-7,2,2,-2,-6,-1,0,-9
17420,-6,7,-4,-3,-5,-5,-3,0
17425,19,14,5,1,-5,-5,-1,11
17430,-12,-1,6,4,-5,4,0,-3
17435,-8,-11,-30,-5,5,0,-1,-16
17440,1,9,5,0,15,-2,-2,3
17445,2,4,2,-4,-19,-4,0,5
17450,21,-5,0,0,6,2,-3,-7
17455,18,1,11,9,11,3,-2,5
17460,8,-9,-8,-11,-6,1,0,2
17465,4,-14,23,0,-29,-8,-6,-9
17470,-10,20,-8,-7,44,0,-2,-1
17475,-5,-10,6,-1,-6,-2,0,1
17480,-16,-59,-16,-1,2,-1,0,7
17485,11,-9,6,0,-5,3,0,0
17490,-18,9,0,-3,-4,-9,-2,-1
17495,5,3,3,-1,-3,3,-2,-1
17500,-11,19,10,5,-9,-5,-1,5
17505,-14,-14,-9,-10,-4,-2,-3,-17
17510,39,-12,-1,6,-5,2,1,9
17515,18,35,-10,2,10,-1,-3,6
17520,-6,3,14,6,-33,-6,2,-5
17525,12,0,-11,-7,36,2,-5,3
17530,-35,15,13,4,1,16,7,16
17535,9,-26,-9,-6,-7,-8,-6,-26
17540,-2,20,6,-3,-6,5,-1,-13
17545,3,21,-9,5,-5,-2,2,2
17550,-7,-76,-1,-7,-6,-2,0,8
17555,-17,-13,25,9,36,-1,2,7
17560,-4,2,-24,-6,-9,-1,-4,-4
17565,-48,11,13,2,-5,1,2,-2
17570,32,17,-4,-4,-10,-4,0,-6
17575,-1,-2,-15,0,-4,3,-3,-11
17580,6,-15,6,-1,8,-2,3,13
17585,-1,13,-11,-2,6,1,-2,-9
17590,-18,-8,8,6,8,-4,-4,-6
17595,-12,15,17,0,-12,4,6,20
17600,1,26,-14,-3,1,-2,-3,-10
17605,30,-65,11,-5,-2,4,1,9
17610,-23,-3,-29,-2,5,-4,-1,-7
17615,5,18,12,-1,-24,0,0,-7
17620,-8,-1,11,4,17,-1,-1,3
17625,8,-4,-3,4,34,-2,1,4
17630,4,25,-2,-8,-30,-3,-5,-7
17635,-21,-1,-5,-3,9,3,2,16
17640,15,-4,-5,-2,-8,-13,-2,-10
17645,19,1,-21,-5,-17,7,9,25
17650,28,7,0,2,2,-9,-8,-15
17655,-24,22,-5,-2,-5,-1,-3,-5
17660,-29,-34,-1,5,10,2,3,16
17665,12,30,12,-2,-6,-4,-5,-23
17670,-12,-19,3,6,5,1,1,0
17675,-14,-13,-35,-12,-8,-2,0,6
17680,-1,4,2,-3,4,-5,-5,9
17685,29,-23,-9,0,-34,3,1,-8
17690,4,41,18,2,42,3,-1,1
17695,17,-5,27,-1,-8,-8,-5,-7
17700,-31,-12,-21,-2,-9,-3,2,-2
17705,18,22,-12,-4,-17,-1,-8,10
17710,-15,17,4,0,-1,-10,-2,-18
17715,-9,-39,-25,5,21,13,4,-2
17720,10,30,12,-8,-44,0,-1,6
17725,2,26,29,-1,12,8,8,2
17730,-8,-68,-55,-5,26,-7,-6,6
17735,17,7,-5,-3,14,-2,-5,-4
17740,-9,-5,18,1,-18,-3,-2,-11
17745,-20,6,11,3,10,-6,-4,-4
17750,22,1,5,2,-4,2,8,42
17755,37,27,4,-10,-5,7,3,-27
17760,8,-8,-11,-3,-5,-4,-8,-18
17765,-18,-22,-4,3,16,6,-1,-8
17770,-26,39,16,5,-13,-6,-1,0
17775,3,-35,-20,3,-6,-8,-2,12
17780,28,20,19,-5,-4,0,3,7
17785,-3,4,-17,5,-1,-2,-1,9
17790,-19,-23,-19,-11,3,8,-1,-19
17795,-10,20,25,8,13,-1,-1,7
17800,16,-6,-28,-9,-3,4,1,8
17805,35,10,0,3,-4,-7,-5,-15
17810,2,25,-2,-4,-15,-2,-3,-22
17815,-7,-24,15,3,11,-1,-5,-12
17820,-21,2,8,1,15,6,5,28
17825,-6,-18,-42,-7,-15,-10,-1,-4
17830,6,18,4,1,-14,-11,-6,-3
17835,-7,1,2,1,6,17,8,16
17840,6,-4,9,3,-33,-3,-3,-6
17845,-20,-22,-11,-3,34,3,1,-4
17850,6,16,15,17,-18,-3,-1,0
17855,-12,-23,-32,-17,4,6,2,5
17860,-14,-6,5,3,12,-1,2,-4
17865,19,5,13,-6,-12,-4,-2,21
17870,14,-22,-32,-5,-7,1,2,-1
17875,7,37,17,7,-11,-4,-8,-23
17880,-10,-23,-11,1,15,-2,-5,-15
17885,-13,4,5,4,12,-1,3,15
17890,5,15,36,-7,-11,2,1,24
17895,15,-31,-25,-3,-12,-8,-1,1
17900,-35,-6,5,-3,21,-5,-1,-10
17905,0,5,-12,2,3,3,2,24
17910,4,-23,2,-4,-16,-7,-3,-15
17915,8,33,42,7,-3,2,-6,-29
17920,5,-8,-39,1,-5,-3,-1,15
17925,-10,6,14,5,23,6,-2,-13
17930,-10,3,-6,-11,-2,7,1,21
17935,2,-15,-4,-1,19,-3,4,7
17940,17,33,12,2,10,3,0,-3
17945,-47,-26,-3,-8,-29,-12,-8,-13
17950,15,5,-1,-1,-4,2,-2,-27
17955,-5,7,2,0,10,-7,0,11
17960,-8,1,14,13,36,4,-2,1
17965,17,-2,-9,-17,-59,2,0,-2
17970,-30,12,-1,2,12,-7,-2,-12
17975,0,-10,7,-5,-23,3,3,0
17980,38,16,-46,2,44,5,-8,-10
17985,-10,-27,3,1,1,-6,0,1
17990,2,-22,23,3,-12,1,-2,11
17995,-39,-4,-9,-6,-20,-9,-5,-7
18000,28,-8,3,0,11,4,4,4
18005,3,16,1,5,7,0,-4,-13
18010,-21,-5,-22,-4,14,3,1,2
18015,36,0,3,-2,-14,-7,3,48
18020,-28,4,16,0,-12,1,-5,-42
18025,3,1,1,-2,11,-1,-2,0
18030,-17,1,-3,0,-7,-2,3,-14
18035,11,21,7,5,-6,-1,-7,0
18040,17,9,37,1,-6,-1,1,15
18045,-6,3,-30,-10,-9,6,-1,-7
18050,-5,-7,-1,1,20,4,-5,-4
18055,-20,1,-16,-4,-17,-6,0,2
18060,10,-2,11,-1,8,2,4,7
18065,19,1,8,4,-29,-10,1,3
18070,-8,23,18,-4,23,6,-1,4
18075,-7,-18,-9,0,9,4,1,13
18080,-27,-10,-3,-8,-19,-8,-1,-29
18085,8,15,17,8,7,0,-8,-25
18090,-4,-10,-16,2,-24,-9,-1,4
18095,26,20,14,-1,25,9,2,2
18100,-26,-29,-31,-5,-9,4,0,10
18105,-3,-6,5,-1,12,-6,-1,6
18110,8,5,1,-1,2,3,0,10
18115,-1,5,-6,2,-4,-3,2,-13
18120,27,12,3,0,-11,-3,-1,-17
18125,-6,-21,6,2,10,-3,-2,2
18130,-2,9,2,1,1,8,4,19
18135,-29,23,-9,-5,-17,-7,-2,4
18140,29,-27,-18,-5,-20,-5,-2,2
18145,9,4,-1,7,30,1,-1,4
18150,16,3,12,12,26,-3,-1,1
18155,-15,12,-35,-14,-6,10,6,17
18160,-24,-21,11,0,-26,-7,-3,-30
18165,-13,-1,10,5,12,-10,-4,-9
18170,30,-2,-7,-1,13,24,6,-11
18175,10,10,10,6,10,-5,1,8
18180,-31,19,11,-2,-16,-3,-4,-5
18185,-9,-59,-24,-6,-1,20,4,3
18190,0,27,14,2,5,-9,-3,-18
18195,-20,-11,-47,-6,-50,-2,1,10
18200,25,12,20,5,40,-8,0,26
18205,4,32,5,-4,7,12,-2,-27
18210,-17,-12,13,8,10,-3,2,0
18215,-50,-19,21,-12,-14,-2,-3,-10
18220,16,-38,-34,2,-20,-10,2,27
18225,33,50,-3,-4,38,3,5,10
18230,-49,-37,-9,-7,-18,0,-5,-18
18235,26,-29,11,7,-9,-14,-1,4
18240,-14,21,4,-9,25,2,-7,-14
18245,24,7,14,-3,-26,-7,-1,-4
18250,33,3,-10,-3,-23,-8,2,22
18255,-32,-2,20,1,23,6,0,-3
18260,-29,13,-3,2,-13,-3,-5,-27
18265,16,-12,7,-2,0,10,1,-5
18270,-17,-1,-3,1,13,-3,1,13
18275,53,24,2,13,19,-12,-10,-30
18280,-27,-4,1,-20,-15,10,-1,8
18285,11,27,7,1,-12,-6,3,-2
18290,7,-27,-21,2,-2,-7,-6,1
18295,5,-16,14,2,4,10,-3,-19
18300,-5,20,14,7,-14,-9,-2,34
18305,-36,-85,-22,-7,10,6,-3,-43
18310,31,29,3,-7,-3,3,3,28
18315,1,-8,-2,0,4,-2,-1,-28
18320,-4,-3,0,-3,-13,1,3,12
18325,-33,16,7,0,-9,-11,-7,17
18330,8,9,-4,1,11,-7,3,5
18335,35,-14,5,-5,-5,0,-1,4
18340,-1,16,-25,-1,28,11,1,-13
18345,-3,3,-7,0,-26,-7,2,16
18350,-8,-6,2,-3,13,-2,-5,-11
18355,-12,10,-19,3,-21,-9,-6,-8
18360,16,3,-24,-5,25,0,3,14
18365,-22,-16,-5,-12,-1,2,2,6
18370,-5,0,-1,-8,-27,-7,2,13
18375,-24,7,-4,3,11,2,0,9
18380,6,-18,8,6,8,-7,-12,-60
18385,-9,10,11,5,7,14,0,-18
18390,-11,11,-3,-4,-25,-5,-1,7
18395,0,9,-2,-5,-8,-5,-1,-2
18400,-45,-43,5,9,23,7,1,18
18405,65,-10,-11,0,-32,-9,2,-2
18410,-15,12,15,-1,36,10,-8,-28
18415,-7,-11,-5,-3,-2,-3,1,14
18420,-26,5,2,1,-38,-1,0,-9
18425,26,-8,-7,-7,17,-4,2,49
18430,3,-2,-5,3,-30,-4,-5,-31
18435,-19,10,-2,-9,16,-3,-7,-9
18440,7,-39,-2,2,2,0,5,1
18445,19,35,10,8,-8,-4,2,4
18450,33,26,-31,-9,-4,4,-5,-9
18455,-6,-31,-3,-4,10,0,-1,14
18460,10,23,9,-3,-19,-3,7,54
18465,1,-51,-16,2,11,-9,-8,-32
18470,-1,20,26,4,1,-3,-6,-26
18475,-11,-14,5,4,-11,-2,0,-8
18480,4,4,-3,-6,35,20,4,8
18485,8,-2,-1,0,-24,-11,0,23
18490,-10,-12,5,-4,-3,-1,9,19
18495,17,3,-10,8,-2,-4,-9,-9
18500,24,39,23,-1,19,27,9,1
18505,-15,-9,-5,-1,-5,-5,-5,-11
18510,-29,-31,-49,1,-13,-4,-2,11
18515,17,-14,-3,-6,-2,-1,7,16
18520,4,40,-13,2,-2,-11,-13,-58
18525,-38,32,28,-12,-9,-2,-6,-12
18530,20,-12,8,-2,1,7,5,4
18535,-24,-3,-17,-2,-4,5,-1,27
18540,8,-23,-11,-1,16,-11,-3,-21
18545,19,13,-9,0,-2,13,3,4
18550,-17,-15,2,5,-3,-15,-5,-3
18555,4,19,0,-16,-23,-2,5,16
18560,-5,-42,15,3,5,-4,-2,-4
18565,-47,6,-22,-3,-26,-5,-5,-35
18570,-1,-8,4,2,23,6,0,1
18575,-2,26,37,5,8,1,2,3
18580,40,-10,-12,1,-25,-8,-5,-1
18585,-25,-22,-12,-2,22,4,5,14
18590,23,26,12,4,1,-4,1,6
18595,-7,-33,-3,-3,-3,9,-1,-24
18600,-16,18,11,-2,3,-9,1,13
18605,-10,9,-2,8,16,8,-1,14
18610,-21,-21,5,-16,-18,-9,-3,-9
18615,67,12,3,6,1,-1,-3,-9
18620,21,2,-7,1,-23,1,-1,14
18625,-22,8,0,-6,17,-4,-1,-8
18630,-19,6,-2,7,14,8,5,4
18635,-18,-23,-9,-5,-11,-2,-4,-13
18640,-13,-21,-22,-11,-24,-5,1,4
18645,37,26,30,9,8,-2,-5,-6
18650,7,-11,6,3,-10,-2,-1,4
18655,0,15,-3,1,23,-1,-2,-12
18660,-4,5,3,2,-3,0,1,29
18665,-52,-3,6,2,5,1,7,6
18670,60,0,-24,-5,-11,-1,-2,-3
18675,26,11,7,9,9,1,2,0
18680,-19,1,-1,-8,4,2,-5,-9
18685,4,-35,-6,6,-4,-1,1,17
18690,-44,-7,3,-8,1,5,-1,0
18695,9,9,-2,-8,23,7,-1,-20
18700,-1,12,9,4,-6,-5,-6,-22
18705,11,20,-5,2,-11,-10,-6,-9
18710,-26,-20,2,-8,1,-3,3,16
18715,8,2,-21,1,2,1,-2,4
18720,-1,0,15,-2,-2,-4,3,-2
18725,11,9,-3,-4,-8,0,-4,-11
18730,-37,-7,3,5,-5,-11,-2,6
18735,1,11,3,-2,-9,-4,-3,-3
18740,51,-3,3,-7,0,7,3,3
18745,-16,-4,-26,1,24,-11,-5,-9
18750,15,6,11,3,-2,6,-1,-4
18755,-43,-23,3,-7,-2,2,5,1
18760,0,26,3,5,2,-3,-5,3
18765,34,-14,2,-4,6,0,-2,6
18770,36,22,10,-3,-12,-2,9,55
18775,-57,-60,-20,2,-15,-9,-10,-80
18780,4,2,22,2,13,1,-7,-2
18785,-19,-8,-18,-4,-13,-6,1,-4
18790,65,32,8,-4,11,5,-4,-12
18795,7,-4,3,3,3,2,8,28
18800,-13,-13,-1,-4,23,7,3,-5
18805,-13,13,-2,-1,0,5,3,10
18810,-23,-12,0,10,-13,-10,-6,-11
18815,-1,7,18,-8,6,7,5,13
18820,11,-1,-29,-2,-13,-8,-1,-1
18825,-1,18,26,-6,-4,7,-2,9
18830,-9,-19,-24,-4,-12,-4,-1,-20
18835,8,14,4,9,28,-7,-2,6
18840,-6,27,2,-3,-23,-3,4,21
18845,-35,-80,-21,-10,4,8,4,23
18850,34,36,5,4,7,4,-3,-59
18855,8,28,11,6,9,0,-9,-5
18860,-3,-5,-2,6,-3,-2,3,25
18865,1,-2,2,-2,-34,-5,1,-17
18870,-43,-18,6,-9,13,7,-3,-3
18875,15,-5,-18,-2,-7,-6,-1,13
18880,-4,1,-21,-2,-7,-4,-1,-16
18885,16,-20,4,2,-11,0,0,3
18890,2,9,5,5,-9,-2,0,8
18895,-3,36,3,-4,12,2,-1,5
18900,-23,-54,13,-5,-12,-5,-7,-23
18905,6,11,-4,2,15,-7,-2,4
18910,10,-1,-6,-7,-18,8,4,-1
18915,25,-55,3,8,11,-5,-1,12
18920,-23,10,-23,-10,-5,-6,5,32
18925,21,60,20,2,5,13,-2,-55
18930,-1,-12,-3,10,29,-12,-11,-4
18935,-14,22,4,-6,-47,-8,2,17
18940,1,-20,-3,6,25,3,-2,-5
18945,-5,-8,-9,-4,9,13,7,17
18950,-16,-3,-11,-4,-7,-3,0,-3
18955,2,0,8,2,-23,-3,-4,-4
18960,-26,4,-6,-3,14,-2,0,4
18965,61,28,14,8,-15,-15,-10,1
18970,13,-34,-4,1,45,22,7,5
18975,-34,-11,-14,-5,-2,1,-3,-12
18980,2,7,-4,2,-13,-6,-1,10
18985,-78,-34,-6,-14,-13,-7,-3,-21
18990,61,18,12,7,20,-5,-3,6
18995,21,17,9,5,-6,0,-3,-17
19000,-11,3,5,-7,-7,11,4,1
19005,-18,-12,4,3,8,-9,-4,12
19010,-4,-2,-11,-9,-24,-4,1,15
19015,-11,12,3,-4,8,3,3,3
19020,21,-58,-1,3,0,-8,-7,-21
19025,9,3,-4,3,-12,-1,2,13
19030,-27,-9,-9,-6,23,2,-1,-2
19035,29,-6,-10,-9,-32,-11,-2,6
19040,0,16,14,12,34,8,-6,-7
19045,0,9,-7,-16,0,7,0,-23
19050,-23,5,9,0,-21,-12,1,9
19055,-9,-4,-4,5,-14,-2,-1,7
19060,-8,32,23,-6,8,-1,-6,-26
19065,45,-25,-30,-2,7,5,1,25
19070,0,16,0,0,-15,-3,3,-22
19075,-18,-13,2,1,7,0,-1,4
19080,-26,5,-10,-8,-15,-12,3,8
19085,51,47,22,13,24,-4,-2,7
19090,-7,-15,0,-2,-14,2,-1,8
19095,-4,-47,-13,-6,26,0,1,11
19100,-31,-7,1,-5,-13,1,-9,-40
19105,-18,-27,-17,4,0,-1,-1,-7
19110,-5,33,25,0,-22,-6,0,29
19115,-3,9,-15,-1,-7,1,-7,-43
19120,29,23,-27,-1,15,0,-4,-10
19125,-7,20,12,3,-24,0,3,5
19130,-65,-68,3,9,-1,6,1,-8
19135,58,48,22,-11,35,5,1,18
19140,21,5,-1,0,-13,4,11,31
19145,-13,-28,-36,4,-17,-25,-12,-24
19150,-6,11,-6,-7,-36,5,1,1
19155,-40,-6,2,4,30,-5,-3,-12
19160,17,4,3,5,-17,8,11,5
19165,-14,12,28,0,34,1,-6,-1
19170,-15,2,-35,-7,-29,-15,-9,-20
19175,16,0,5,14,-16,1,-4,-3
19180,23,-48,-11,-17,26,5,1,6
19185,-12,11,-11,-3,-3,6,6,14
19190,-7,-17,-10,-1,11,-14,-3,0
19195,0,38,14,-17,-44,2,6,25
19200,-16,-22,-8,7,7,-10,-8,11
19205,-1,34,19,3,-17,7,-5,-36
19210,24,-7,3,0,45,3,-2,-11
19215,11,-2,1,1,15,15,6,7
19220,-9,12,-15,7,-14,-3,3,25
19225,-11,-20,0,-11,-17,-9,1,3
19230,-14,18,-3,-1,-25,-13,-6,-14
19235,-10,-6,-4,9,55,17,1,-7
19240,26,-17,17,-1,26,4,2,-4
19245,-25,-21,-14,-2,-11,-1,-3,1
19250,12,20,-18,-5,-29,-6,-1,-9
19255,-19,-19,4,3,-8,-8,-2,-4
19260,-19,16,1,-3,-19,4,-3,0
19265,28,-2,7,-6,11,-4,4,7
19270,-21,25,16,6,34,11,4,8
19275,11,-25,-21,-6,-32,-18,-7,-31
19280,-7,14,16,11,28,5,-10,-14
19285,-28,18,5,-9,-11,-4,-1,3
19290,52,-18,-6,-5,2,0,0,-9
19295,-50,-11,-18,-1,-24,-4,4,23
19300,22,14,-8,-7,-5,-2,0,-10
19305,6,0,1,16,21,-3,-2,3
19310,-31,-8,19,-12,24,24,12,17
19315,1,10,-14,-1,10,-5,-5,23
19320,-49,-35,-2,0,-23,-7,2,-45
19325,16,46,23,4,15,3,-14,-27
19330,51,-23,-6,8,1,1,0,16
19335,-7,3,-12,-5,19,13,7,1
19340,-15,-4,-5,1,-13,-4,-3,13
19345,14,-23,-6,-5,-7,-7,6,13
19350,-22,20,5,-4,13,-8,-6,3
19355,43,37,20,15,37,18,1,-3
19360,-16,0,-17,-10,-23,-5,-2,0
19365,-37,-35,-26,-11,-3,-3,0,1
19370,101,47,41,5,-11,5,-6,-19
19375,-17,-17,4,-2,-7,-3,4,18
19380,14,12,25,-5,-21,-6,-3,-29
19385,-27,-7,3,2,0,-3,-2,23
19390,-27,-22,-16,-4,-24,-8,7,33
19395,3,-5,6,-4,30,0,-3,-37
19400,13,24,-4,3,-11,-4,-7,8
19405,10,-26,-20,4,-4,-5,7,32
19410,-9,11,-3,2,31,24,0,-41
19415,-10,10,28,3,-14,-1,-2,9
19420,34,-23,-8,7,-3,-11,-6,-8
19425,-40,-26,0,-16,-15,12,8,34
19430,33,-15,-27,1,40,-7,-3,-29
19435,-27,-6,-2,10,-24,-11,-6,-5
19440,-14,0,7,-10,-18,10,6,31
19445,-13,17,11,15,28,0,2,19
19450,-13,-10,6,-16,-10,2,-4,-9
19455,59,0,-1,-2,2,7,-1,-32
19460,26,6,-11,6,-6,-12,-7,-6
19465,8,15,-1,4,4,-8,-5,-6
19470,-50,-11,3,-1,-15,3,3,20
19475,-17,-7,-37,-7,-5,-2,-1,6
19480,8,25,10,-1,14,7,1,-11
19485,9,-18,2,0,-8,2,1,-6
19490,-18,12,-10,-3,-60,-18,-1,18
19495,-21,22,15,-2,32,-10,-1,41
19500,85,8,3,0,34,10,5,-42
19505,16,12,-3,-1,0,22,-3,-25
19510,8,-15,-8,4,-2,-15,-6,8
19515,-34,2,14,-5,-36,-11,2,3
19520,-42,-1,-4,4,-12,-8,2,31
19525,20,35,4,3,1,-4,-3,-5
19530,29,7,8,-3,6,7,4,-3
19535,5,-9,-13,7,-15,-1,1,15
19540,-1,7,-4,-4,77,17,2,-6
19545,5,0,12,-1,-22,-2,-5,-27
19550,-32,-25,-10,0,-9,-7,-4,12
19555,36,43,7,-2,-35,-7,-2,-7
19560,-3,-46,-3,-7,-6,-6,-4,-3
19565,30,8,-6,-7,-10,9,5,5
19570,-26,-15,1,7,36,-6,-4,9
19575,-5,-22,-14,-11,14,6,1,-9
19580,-10,13,2,1,-28,-7,-1,6
19585,-26,-15,2,1,-4,-12,-4,2
19590,4,10,0,0,-4,3,3,-9
19595,2,-9,0,-2,3,5,-4,-18
19600,-20,0,1,-1,-8,-3,-2,11
19605,1,-8,0,-2,1,-3,-1,-7
19610,7,9,-1,-5,6,5,-1,-11
19615,2,-7,-6,3,9,0,0,-3
19620,-25,1,4,2,-19,-5,1,8
19625,12,1,-1,1,15,2,1,-6
19630,1,-37,-6,-3,-11,-2,-1,-5
19635,-15,-16,2,-2,-30,-10,-3,0
19640,2,16,7,5,45,12,4,4
19645,3,4,-1,1,23,-4,0,-6
19650,-5,7,-7,-3,10,19,3,-1
19655,-19,-6,2,0,-22,-10,-4,-5
19660,0,-19,2,-2,13,-4,0,21
19665,58,13,-5,1,-11,5,8,0
19670,-9,9,9,-8,-67,-11,-14,-23
19675,-26,1,-5,-1,67,10,-1,4
19680,-31,36,5,-4,-14,-16,-6,-9
19685,29,-74,0,1,16,15,1,-13
19690,7,4,-4,5,1,2,3,9
19695,-2,1,8,-5,-19,-8,-5,-8
19700,-21,-22,2,1,-26,-10,-6,7
19705,-36,17,-15,-9,-4,-3,2,10
19710,5,2,0,8,-1,-15,-2,2
19715,38,-2,7,-4,-8,20,3,0
19720,-10,8,-4,-3,33,13,3,-16
19725,-1,-6,-1,1,-19,-12,-6,1
19730,-13,-16,10,6,-33,-21,-5,-4
19735,4,11,-35,4,81,33,10,3
19740,22,-17,-6,0,-34,-1,-3,-2
19745,-14,4,8,-4,0,1,-2,-3
19750,-13,20,2,-3,-7,-7,-1,11
19755,-6,-14,3,-3,-36,-20,-4,-2
19760,5,-7,-6,-3,18,2,0,-11
19765,-9,25,-2,-5,-11,1,-1,5
19770,0,1,0,0,23,7,4,2
19775,6,-12,1,-2,-2,-1,-2,-9
19780,2,-1,-8,1,-7,1,0,4
19785,-14,6,5,0,-7,-9,-2,5
19790,7,-4,-8,-1,11,1,-3,-7
19795,1,-4,4,0,-3,3,2,-2
19800,-4,8,4,1,-17,-3,-1,4
19805,-4,9,3,6,-17,-8,-2,2
19810,3,-33,-8,-7,65,17,3,-4
19815,12,9,-2,-4,8,17,2,-8
19820,-3,7,4,2,-22,-8,-3,1
19825,1,-10,-11,2,-3,-3,-4,-7
19830,-7,10,5,8,-21,-9,-2,8
19835,-10,-4,1,-5,-8,-4,1,7
19840,-18,-17,-2,-4,3,4,1,1
19845,28,27,-5,4,-17,-13,0,8
19850,-11,20,6,-7,19,20,2,-10
19855,7,-12,7,1,-6,-12,-8,-18
19860,-11,-5,9,-1,6,4,3,1
19865,5,9,1,-1,-13,-10,0,13
19870,-48,-43,-9,17,-51,-13,1,21
19875,62,9,-14,-32,89,18,-1,-51
19880,16,22,14,7,-20,-9,-13,-26
19885,-10,-7,-10,-13,-6,2,-5,-4
19890,1,13,-5,-5,-6,1,1,17
19895,-40,-23,1,4,-40,-22,-4,18
19900,17,20,-5,-1,-18,-10,6,29
19905,-53,8,-14,-10,35,12,4,8
19910,-10,-70,-15,0,1,-13,-6,-16
19915,21,32,6,0,16,15,12,-16
19920,5,-49,-7,10,-11,-11,-15,-26
19925,-12,-25,-18,-10,36,14,2,1
19930,-44,31,-2,1,-60,-5,6,18
19935,15,-14,23,-2,28,4,6,23
19940,-1,48,1,0,-46,-10,-2,15
19945,17,-31,13,6,39,11,6,-22
19950,32,10,-10,-4,14,-2,3,19
19955,23,25,31,5,-82,-12,-16,-32
19960,-21,-25,-9,-3,57,4,-1,-8
19965,11,21,15,1,-1,-16,-11,-3
19970,7,20,3,-10,-4,16,6,-1
19975,-25,2,-18,4,-5,-18,-6,29
19980,4,-8,-2,-3,-1,4,-3,-12
19985,-97,-21,-8,3,-13,-5,10,56
19990,69,-7,24,-4,-6,-9,-4,-46
19995,55,55,-12,2,12,9,-6,-40
20000,-4,-37,-12,-1,47,17,6,24
20005,-33,-19,-27,3,-29,-8,-1,-1
20010,-38,15,-9,7,-35,-25,-15,-11
20015,31,-29,-15,-13,15,30,-6,-17
20020,24,44,-19,-2,10,13,9,7
20025,-72,25,23,9,-20,-14,-2,4
20030,89,39,2,13,-101,-9,6,39
20035,-110,-80,2,-6,77,-18,6,52
20040,65,-5,46,0,2,62,0,-86
20045,-12,0,12,7,99,-26,-13,-45
20050,-52,22,-19,-1,-3,-11,-14,-91
20055,44,43,19,-16,-113,-29,-6,31
20060,-93,-15,-43,-10,24,26,27,65
20065,94,-11,47,2,-44,-30,-6,8
20070,101,34,-28,35,71,0,-17,-16
20075,-80,33,30,8,43,9,13,83
20080,-51,-46,24,-1,-62,21,0,-98
20085,127,40,-11,2,-71,24,-15,-51
20090,14,-78,-13,-9,79,31,3,-22
20095,9,85,1,16,-46,-4,-2,-37
20100,13,-36,-15,-2,-12,-21,-10,10
20105,-39,7,43,-18,-30,-10,7,70
20110,64,-13,-25,-2,16,4,-19,-87
20115,24,20,-17,11,39,12,3,-9
20120,28,-8,64,-4,-1,2,-1,-9
20125,-27,-8,-30,18,-58,-10,-2,6
20130,-121,9,27,1,-23,-17,2,58
20135,86,-64,12,-4,-84,-7,1,-44
20140,-11,68,-52,-4,111,35,3,1
20145,-1,12,35,17,-70,-14,3,-4
20150,-20,-57,5,-14,-40,-2,3,28
20155,54,26,-12,-9,27,0,-13,7
20160,-77,14,-10,-8,77,16,16,56
20165,-20,-39,-18,-4,-39,-26,-9,-78
20170,87,91,5,10,28,4,-13,-8
20175,-58,-61,-23,-7,-91,-28,0,11
20180,-6,-46,-11,-13,86,-1,-1,2
20185,-17,-55,-31,-2,8,9,-4,-5
20190,-37,-71,8,1,-99,-37,3,65
20195,35,-12,14,-18,117,30,12,-33
20200,-7,4,-27,0,-46,-4,-6,-16
20205,79,30,36,17,-107,-7,-2,24
20210,-2,6,-17,-9,70,17,10,-5
20215,-61,-34,-40,10,-19,-28,-13,30
20220,-4,10,56,-6,-25,7,-1,-31
20225,-13,6,-32,-3,-24,-3,0,4
20230,45,54,0,8,81,17,2,-10
20235,-35,-31,2,-7,10,4,5,43
20240,-85,-70,7,-1,-58,-48,-11,-42
20245,102,51,34,11,47,76,10,-41
20250,12,58,18,3,-10,-7,-4,-26
20255,-19,-1,-26,10,19,4,12,2
20260,60,-12,9,-7,-28,10,-4,26
20265,-48,-60,-27,-3,-31,-47,-15,21
20270,-20,1,25,-22,38,19,8,18
20275,10,76,48,31,-6,9,-5,-69
20280,-12,-17,39,-7,-73,9,17,52
20285,57,76,-11,3,112,15,-3,-34
20290,-74,-53,-82,-2,38,-6,-2,4
20295,25,20,41,-2,-69,-31,-7,53
20300,-33,10,-5,-3,42,15,12,-53
20305,16,6,-23,0,54,1,-7,-5
20310,-25,2,33,-2,-93,-25,-2,9
20315,0,-16,-10,-5,42,14,-1,-5
20320,39,-19,-1,-1,-3,8,1,2
20325,-10,19,27,-2,-20,-4,2,-2
20330,-50,-21,14,0,8,-24,-11,-29
20335,39,5,-45,7,-45,-11,-5,-10
20340,13,17,-1,8,34,32,14,57
20345,-37,-7,-2,-13,-22,-5,5,31
20350,49,-15,5,3,-5,0,1,-23
20355,-40,40,22,2,-17,16,3,7
20360,1,21,-36,-8,-48,-43,-20,-52
20365,30,13,-4,7,48,22,8,12
20370,-33,8,37,0,-12,12,3,11
20375,59,6,-19,-11,-38,-26,-17,1
20380,21,25,-4,16,-96,-17,-5,-1
20385,-72,-28,13,-1,53,29,8,-9
20390,33,44,8,-3,-60,-1,0,-7
20395,-36,0,-21,-2,-38,-13,-2,14
20400,-2,28,30,-4,109,17,3,31
20405,-14,-93,-63,-7,-86,-32,-9,-29
20410,82,29,21,12,-9,14,-2,-16
20415,-42,-48,-1,12,38,5,7,-3
20420,20,23,9,-20,-8,22,4,-9
20425,-58,-67,-6,-5,-28,-12,2,26
20430,56,-4,-42,-3,26,-1,7,19
20435,-5,-4,14,-3,-7,-20,-11,-36
20440,-9,25,-9,8,43,9,-8,2
20445,19,-4,11,5,-54,-6,6,21
20450,-43,-29,-14,0,-7,-6,0,11
20455,0,61,27,-7,56,28,8,8
20460,25,-30,-31,-1,-22,-8,-6,-24
20465,18,12,22,10,-24,1,-8,-4
20470,-6,14,-2,-1,-15,-3,-1,-23
20475,-28,25,-5,-11,-53,4,5,13
20480,-1,-26,2,-3,-16,-11,-8,2
20485,8,24,-15,-11,62,-2,-5,-17
20490,0,-17,-7,5,21,5,6,5
20495,-38,-83,-28,-4,19,7,3,12
20500,21,12,14,-3,0,-13,2,12
20505,9,37,20,-4,-53,-6,-7,-10
20510,34,-11,-12,-5,-9,0,2,7
20515,-18,35,4,4,-5,1,-4,-15
20520,-20,-50,10,4,59,1,-1,33
20525,4,-6,-29,-4,32,6,10,-18
20530,-48,25,-12,-10,-14,2,6,12
20535,59,6,0,10,15,-2,-9,-19
20540,15,15,-3,-3,-53,-9,-6,-3
20545,-3,23,-8,1,67,11,2,26
20550,-40,-19,2,-7,6,-2,-3,-23
20555,-26,-16,-13,-4,3,-9,-3,-7
20560,10,-10,-36,-4,-40,-4,7,-3
20565,-7,7,25,0,-59,-13,-6,2
20570,3,-3,5,8,-1,-5,-2,23
20575,-14,31,8,-13,44,15,7,18
20580,21,2,7,2,-18,-17,-8,-36
20585,-16,3,-4,3,-8,2,1,-5
20590,33,-35,1,5,14,-6,-6,-7
20595,-28,32,-12,-9,-10,-2,-1,14
20600,4,9,19,10,-19,0,12,29
20605,11,-12,9,-18,48,-24,-16,-32
20610,10,-53,-8,-12,11,1,-12,-15
20615,11,3,37,4,-46,11,7,2
20620,-22,-26,-17,-8,-4,-3,-1,4
20625,-3,40,35,10,-53,-29,-3,12
20630,2,-32,-24,10,59,28,5,-4
20635,-14,-9,-4,1,13,3,-3,-3
20640,24,12,25,3,-10,-5,0,17
20645,-43,8,-12,-6,-91,-14,-7,-31
20650,43,3,0,-1,70,13,1,-11
20655,8,0,15,7,0,-5,-1,11
20660,-28,-19,-14,2,19,6,-6,-28
20665,3,-1,3,8,-43,-22,-7,16
20670,-22,13,7,-25,28,13,4,14
20675,7,-41,6,4,-1,-12,5,-7
20680,4,17,24,-6,15,15,-1,-11
20685,28,-16,3,-5,-16,-2,-5,0
20690,-13,4,5,8,-15,-24,-7,-2
20695,-25,15,8,-1,-85,5,8,39
