time,emg1,emg2,emg3,emg4,emg5,emg6,emg7,emg8,hand,pose,orientation,testPerson
0,-1,1,1,-2,-9,2,0,5,1,0,100,BueBaby!
5,-8,2,7,28,8,1,1,-2
10,21,-1,0,6,7,1,-1,-8
15,-13,-2,-4,-63,-17,-1,-2,2
20,-40,-2,-5,3,6,-5,-2,-23
25,27,-2,5,-2,-24,-1,0,30
30,7,-8,-13,27,22,2,-3,-7
35,26,7,12,1,-8,-2,0,12
40,-28,-5,-3,34,14,2,-2,-30
45,-13,-5,-10,-69,-13,-2,2,-4
50,-20,7,6,3,-8,-1,1,28
55,7,-3,-3,4,-2,-1,-3,4
60,20,-2,-6,-21,1,-3,3,7
65,-15,3,6,48,9,3,-1,-16
70,-4,0,1,46,3,-2,1,-3
75,-8,-1,-6,0,3,-1,-3,-39
80,22,20,12,-16,-12,2,0,58
85,14,-1,-5,-10,-4,1,1,-4
90,7,-2,5,15,2,-5,-1,-2
95,-22,-6,-7,6,1,-3,-1,-8
100,22,-6,-5,30,11,-3,-4,-8
105,-14,2,-1,-75,-9,-1,0,28
110,-13,-2,0,21,-9,0,7,4
115,36,-1,1,26,16,0,-2,-6
120,-4,-4,2,-19,9,5,0,8
125,-2,-4,-12,-60,-41,-10,-1,-16
130,26,2,5,-7,-14,-1,-4,8
135,-18,0,0,-37,12,0,0,-15
140,2,-7,2,24,4,-1,-7,-1
145,-38,8,7,15,16,6,10,4
150,17,3,-8,-27,4,1,0,9
155,0,-5,-6,-7,-22,-6,-1,-2
160,-10,-2,2,-20,11,0,-2,-8
165,4,-3,6,8,1,1,-1,-1
170,-13,-4,3,13,6,1,-1,-8
175,24,2,-6,8,-1,0,1,-5
180,-59,6,10,83,11,-3,-5,24
185,38,-20,-10,-42,-17,-4,-3,-15
190,3,13,-5,-5,-6,-2,-1,5
195,5,-6,1,-10,-11,2,-1,40
200,10,3,-16,-47,-29,-4,1,-10
205,-2,-4,4,29,17,1,-2,-7
210,-13,0,9,6,11,4,0,-5
215,-30,-7,-4,58,-4,-8,-4,-30
220,40,0,-2,2,4,1,3,7
225,5,11,4,-11,-10,2,-1,10
230,-3,-9,0,-32,-5,-2,0,-10
235,-14,4,4,-17,-1,1,0,10
240,1,-4,-2,-16,-3,-3,-1,-13
245,14,-4,-3,52,21,0,-4,1
250,-2,4,-1,-31,-13,-1,2,-1
255,-19,-2,-11,-46,-21,-1,2,11
260,44,2,-1,8,7,0,-1,2
265,-5,-10,0,-9,-7,-2,0,-23
270,-8,6,8,47,18,0,2,52
275,6,-2,3,-3,0,-4,-7,-13
280,-17,-4,-8,-21,-13,-3,-3,-13
285,0,-1,-1,-1,9,3,0,-8
290,30,-7,1,50,11,-1,1,3
295,2,1,-15,-40,-10,1,1,11
300,-50,-17,-3,21,-23,-4,-2,2
305,-16,-5,3,30,38,-2,-5,-33
310,-7,-3,-7,-39,-33,-9,-4,-2
315,-1,1,10,20,11,7,4,9
320,17,2,0,42,17,-2,0,-19
325,-22,11,6,11,-3,2,1,14
330,19,-9,-9,15,-5,-2,-3,-9
335,3,12,0,-76,-12,-2,1,3
340,4,-3,-1,26,-3,-1,-1,-11
345,3,3,-3,-16,-7,-2,-1,13
350,-10,-2,-4,32,2,-2,-6,-19
355,-5,-3,1,26,-4,1,5,-20
360,5,6,9,-6,17,5,3,46
365,5,-5,-10,-55,-22,-8,-7,-12
370,-4,-5,-4,-5,-7,2,1,-14
375,14,0,2,12,7,0,-3,33
380,1,2,5,2,-7,2,5,4
385,12,-5,-2,16,9,2,0,10
390,-57,9,1,-28,1,-7,-6,-17
395,1,2,5,19,14,1,-1,-24
400,4,0,-3,-19,-16,-2,1,13
405,6,0,-1,17,11,1,-3,9
410,-2,-3,1,26,-4,0,2,-9
415,-13,-1,-4,-75,-4,2,0,-5
420,2,0,-4,-8,23,-6,-6,-2
425,-20,-6,7,48,-10,1,4,-4
430,8,-2,-2,-2,5,1,0,-32
435,-4,-9,-4,81,-7,-3,-4,19
440,7,9,2,-21,-9,1,3,-22
445,-3,6,0,20,2,0,2,19
450,-1,-4,6,2,16,5,2,6
455,7,1,20,60,27,4,0,-12
460,-11,-8,-24,-78,-37,-7,-4,-59
465,-3,6,-7,85,15,-7,-8,42
470,-8,-3,4,-48,-11,2,2,-2
475,-29,4,-4,-7,-4,1,4,4
480,1,-2,7,-12,8,0,-1,7
485,-3,4,-4,-45,-11,3,1,-10
490,8,-8,-13,-9,5,-3,-6,3
495,3,4,13,30,3,3,2,-7
500,-16,-10,-13,7,14,-2,1,0
505,-9,0,-7,-45,-21,-3,3,4
510,22,5,-5,12,3,-3,0,10
515,-5,3,2,-43,-2,1,-1,1
520,-22,7,10,30,0,1,-3,-21
525,7,-2,2,7,5,3,0,2
530,4,-4,1,0,-6,-3,-2,6
535,9,1,-8,-3,-4,2,2,-12
540,-47,-13,-1,94,32,-1,-5,-1
545,55,17,-8,-79,-36,-14,-8,-19
550,-15,2,13,41,12,6,6,44
555,4,-8,-16,-22,-23,-6,-5,-17
560,14,4,-1,-7,-8,2,0,37
565,4,-4,4,19,11,4,3,-7
570,-10,6,-6,-15,4,-1,-4,-26
575,1,-4,-2,-13,1,-2,-2,4
580,8,-1,0,19,12,1,-2,7
585,-17,-4,-4,8,-18,-5,1,-10
590,34,-9,4,-5,18,5,0,8
595,-19,1,-1,4,-5,-10,-6,-6
600,7,3,1,-44,-7,2,0,-2
605,-18,-6,3,-7,2,2,-1,3
610,-4,2,2,-8,-7,2,0,-3
615,4,-1,-8,9,14,2,2,5
620,-11,-4,3,25,-14,-5,-5,-38
625,52,-8,-4,-42,-14,3,4,38
630,-44,19,2,13,14,-8,-5,-12
635,-3,-4,7,63,8,-2,-5,-13
640,17,6,-4,-86,-20,1,5,10
645,-49,-7,0,21,9,8,0,-36
650,20,-16,-3,16,13,0,-2,-17
655,16,-1,-4,-9,-29,-6,0,40
660,-15,-9,6,24,0,-1,-5,-10
665,-4,0,-3,30,12,-2,9,14
670,0,-2,-6,-48,-27,-2,-2,-2
675,-1,-2,-6,10,10,-4,-6,-17
680,6,0,3,8,11,4,1,4
685,-5,1,-4,-34,-2,0,-5,5
690,-6,-3,2,34,-10,-3,-4,-7
695,-7,-6,-20,-34,-12,1,0,-8
700,15,4,-1,48,23,-2,0,-6
705,14,-3,0,-40,-5,-4,-3,8
710,-30,18,-2,23,4,1,1,-8
715,5,-2,3,-33,-2,1,0,-5
720,4,2,-2,-53,-22,1,0,11
725,16,-11,3,61,21,-2,-4,-17
730,-13,-3,-9,-56,-9,-2,-2,7
735,-23,-6,2,22,5,-2,-2,-1
740,11,0,2,4,-10,1,6,8
745,-23,0,7,-26,25,1,-1,-23
750,42,-4,3,9,-27,1,1,29
755,-47,7,4,2,34,-2,-2,-26
760,3,-8,-11,-26,-35,-5,0,9
765,-15,8,8,56,15,-3,-3,3
770,52,-8,-7,-38,-23,-5,-4,-5
775,16,2,5,-7,3,5,9,0
780,-4,-3,-5,-25,-21,-2,-1,-9
785,-7,0,-4,11,-6,0,-2,5
790,-14,-5,2,22,11,0,-5,-34
795,15,29,6,8,6,0,1,44
800,6,-15,-5,11,-2,-5,5,26
805,-4,2,1,-11,-7,0,-3,1
810,-11,1,1,22,13,1,3,1
815,4,-13,-3,-29,-5,-6,-7,-34
820,-1,13,14,36,21,3,1,30
825,29,0,-19,-21,-15,-6,-6,10
830,15,-8,-6,-11,0,3,4,-27
835,-13,-5,0,19,-27,-2,-3,-18
840,10,8,1,-39,16,1,2,45
845,-7,-5,-1,8,-22,-1,1,-13
850,-8,3,7,47,13,-3,-3,-1
855,18,-8,5,36,24,3,0,-2
860,-4,8,5,-36,0,1,-1,-27
865,22,-8,-16,-47,0,2,0,21
870,-75,-6,-5,-35,-14,-7,-1,-3
875,42,2,0,9,-4,-3,-3,14
880,-6,0,14,31,23,4,-2,-22
885,-19,1,8,0,-13,2,2,-21
890,-7,-4,-7,6,12,3,3,53
895,18,-3,-10,-54,-24,-6,1,22
900,-2,3,0,13,4,-3,-6,-23
905,-18,-5,-10,-19,-11,-3,-3,7
910,12,2,8,36,12,2,3,-5
915,-23,3,1,-5,4,2,0,-5
920,1,-7,-9,-41,-20,-2,-1,-21
925,5,9,19,62,-19,-7,2,16
930,11,9,-19,-53,11,-4,-6,-8
935,-7,-12,3,62,22,5,0,-18
940,2,-2,-9,-48,-16,-2,-1,42
945,-38,2,10,84,11,2,-2,-43
950,27,1,5,-67,-13,4,2,35
955,3,1,-11,-55,-26,-5,2,-8
960,-7,-9,5,75,27,-3,-4,13
965,0,-2,1,14,15,-1,-1,-11
970,9,0,-4,57,-14,-3,5,7
975,-16,-8,-13,-70,-10,-4,-6,-22
980,4,-3,1,-4,-11,0,0,7
985,-9,-3,0,3,4,1,3,27
990,6,-2,-5,-30,-4,0,-6,-25
995,13,-2,-4,-29,-6,2,6,16
1000,-7,-5,-4,40,7,-3,-4,-32
1005,-30,4,5,-4,11,2,2,-1
1010,-9,-3,0,5,-5,-4,-4,-28
1015,3,2,10,34,3,2,3,48
1020,25,-8,-8,-30,8,-7,-4,-20
1025,17,5,-10,-39,0,1,0,8
1030,-21,8,7,-15,2,1,-1,13
1035,0,-19,-5,6,-26,-1,-3,-21
1040,-2,7,-4,-4,14,0,3,31
1045,-3,-2,-1,40,13,2,-4,-15
1050,-2,-4,-2,-23,14,-1,0,2
1055,13,-8,11,41,7,-5,-3,-11
1060,-33,-1,-8,-9,-16,0,-2,-7
1065,-1,-7,6,16,-3,-2,3,32
1070,13,-1,-8,31,9,-1,-5,3
1075,-31,-5,-10,-12,10,3,-3,-8
1080,-5,1,9,24,-17,-1,-2,-53
1085,39,6,-8,-102,-8,-2,2,29
1090,-39,-11,6,45,-11,1,-1,-7
1095,6,4,4,28,25,-3,-8,2
1100,5,5,-4,-34,-23,-1,2,-4
1105,10,5,-2,-6,1,2,-1,-5
1110,-4,-1,0,-26,-19,-2,2,-21
1115,-29,-3,1,19,9,0,-3,-24
1120,42,-6,-6,72,23,5,6,48
1125,3,-1,-4,-66,-30,-7,-3,5
1130,-12,5,11,42,9,0,1,0
1135,0,2,-7,-23,-18,-2,-1,-15
1140,-4,6,9,-20,5,2,-1,-19
1145,-1,-9,4,17,10,-2,-7,-17
1150,44,13,-5,-16,2,6,14,36
1155,-36,-1,7,-1,-4,-6,-5,-2
1160,-7,-1,-2,4,5,-1,-2,-24
1165,-8,2,1,12,5,4,1,17
1170,-8,-3,-7,0,-5,-1,-5,-5
1175,7,5,10,58,25,8,4,2
1180,-13,0,0,-90,-23,-2,-2,-2
1185,30,-3,-9,37,-20,-5,-2,-24
1190,-53,-9,-7,-16,-9,-4,-3,-6
1195,15,4,-2,55,14,-3,-1,6
1200,-4,-1,-4,2,6,-2,-3,5
1205,-2,11,12,36,15,5,1,-5
1210,11,-8,-3,-52,-33,-10,-8,-8
1215,7,-6,-2,-30,-14,1,4,-33
1220,15,20,-4,-2,19,0,6,67
1225,-6,-7,-3,-14,-16,1,5,-18
1230,5,2,2,-3,4,1,0,9
1235,4,1,-3,-23,-9,-3,-4,-13
1240,4,-2,-2,24,-3,-1,-5,-15
1245,-10,-3,0,-36,4,3,2,-7
1250,21,4,16,13,13,2,-3,17
1255,6,-3,-7,-27,-3,-5,3,34
1260,-23,-5,-5,-29,-13,0,-2,-35
1265,3,-4,-12,2,20,-2,-3,47
1270,0,-4,-6,-16,-16,0,-2,-33
1275,-3,5,7,13,0,5,4,32
1280,21,-3,8,75,20,1,1,0
1285,-57,1,4,-92,-14,-2,-3,-30
1290,18,7,-9,59,5,-1,-1,-1
1295,-8,-2,-1,-7,-16,-2,-4,9
1300,-7,-5,-7,9,5,-2,-3,-11
1305,7,-1,3,59,21,0,-1,-7
1310,23,-2,-6,-30,3,2,4,12
1315,-28,0,-13,-64,-13,-5,-7,-32
1320,-7,-12,-3,17,-16,-5,-7,16
1325,6,2,2,4,7,4,5,3
1330,-3,-4,-2,12,22,5,6,36
1335,16,7,2,13,-13,-6,-3,-2
1340,4,-1,-3,-54,-11,0,-1,-16
1345,-17,-1,1,-7,-9,-3,-5,3
1350,17,-8,3,22,10,-2,-5,-49
1355,15,-7,7,98,19,-1,-1,24
1360,-23,2,-9,-28,-9,-1,-1,9
1365,-54,-10,1,35,-11,-5,-8,-47
1370,0,7,-2,-54,-2,-3,1,13
1375,9,-2,-6,-21,10,0,-1,3
1380,-2,2,8,20,9,0,2,-13
1385,41,-1,-7,-31,-9,1,2,-10
1390,-44,-2,2,31,5,1,-2,-1
1395,0,1,5,15,-22,-1,0,0
1400,6,0,-4,20,4,-2,-1,1
1405,14,1,-1,-10,-1,-4,-2,2
1410,7,1,-2,8,12,3,2,16
1415,-3,5,8,-9,22,9,1,1
1420,-5,-3,-3,44,7,0,0,-19
1425,6,-7,-14,-67,-44,-8,-3,15
1430,-6,8,4,-2,25,-2,2,18
1435,11,3,-3,-19,-12,2,1,-8
1440,-24,-4,6,18,2,1,-3,-52
1445,9,7,14,87,43,4,3,58
1450,16,-11,-12,-93,-64,-8,-7,-11
1455,-26,2,10,7,13,2,3,-8
1460,27,-5,8,27,-3,1,1,19
1465,-15,-7,-35,-88,-13,-7,-4,-8
1470,15,-1,7,41,-3,2,0,-14
1475,-40,-5,-4,23,11,-3,-2,1
1480,0,3,10,-14,-3,2,1,-2
1485,-10,1,8,23,-11,2,0,-64
1490,20,-10,-10,22,13,-4,-1,79
1495,6,0,-2,-17,-14,-2,-3,-12
1500,-6,2,-4,-12,-2,-1,-3,-11
1505,32,11,-3,-8,10,2,3,-37
1510,-17,-2,5,7,-5,-2,-1,4
1515,13,-1,-6,-50,-12,1,0,2
1520,-2,2,6,-4,19,4,2,27
1525,5,-8,-16,-10,-14,-6,-4,3
1530,-9,-3,6,14,2,-3,-3,-40
1535,5,-2,-6,59,20,1,2,26
1540,9,-2,-3,-59,-21,-3,-3,-13
1545,-5,-3,5,-2,9,5,-1,-16
1550,-5,5,2,4,-5,1,3,22
1555,15,-12,4,1,3,-1,-4,3
1560,0,3,-3,11,-6,2,3,30
1565,10,0,0,-4,1,-1,1,24
1570,-27,-6,1,9,2,-2,-6,-31
1575,17,8,7,32,-4,-3,-1,-24
1580,18,-1,-13,-53,0,2,0,2
1585,-8,-2,6,31,4,-4,1,21
1590,32,-4,-1,56,22,3,-3,-31
1595,2,-3,-3,-13,3,2,0,11
1600,0,2,-4,-32,-9,-5,-3,-3
1605,1,2,4,-6,2,2,2,-6
1610,-7,-2,1,-1,4,6,5,44
1615,-3,8,-2,-8,-9,-9,-2,0
1620,7,4,-2,-25,-1,-1,2,7
1625,-2,-4,-2,-6,-4,1,-1,10
1630,-14,-3,-3,-25,-7,-2,0,20
1635,14,5,-4,20,-1,-1,1,4
1640,-15,-19,-9,6,4,-3,-4,-8
1645,-8,6,4,11,-3,-2,-4,-20
1650,13,1,0,-5,-7,-3,-2,7
1655,-20,-4,-1,-18,-8,3,0,4
1660,-38,0,7,14,1,-1,-2,-25
1665,19,-2,-3,-26,1,1,3,42
1670,41,6,0,19,-4,-3,-2,-26
1675,-64,0,2,8,23,2,2,-3
1680,2,-2,-4,46,-2,-3,-1,5
1685,-11,-4,-6,-28,0,1,-3,-14
1690,-7,0,-3,-59,-17,1,0,-5
1695,8,0,-4,40,-6,-12,-10,-49
1700,17,2,6,30,-4,3,2,29
1705,-8,2,10,38,13,-1,1,21
1710,-7,-2,-2,-9,3,3,0,-18
1715,8,-8,-11,-57,-12,1,0,-3
1720,-9,-4,-8,12,-12,-4,-6,-40
1725,-11,-5,2,1,-5,-2,0,12
1730,17,9,-5,-31,5,0,1,24
1735,20,6,8,17,6,4,3,8
1740,-2,6,-3,-29,-5,-1,-3,-5
1745,-25,-3,7,8,12,3,-4,-28
1750,-38,-6,1,23,22,-2,-3,-19
1755,56,6,8,12,-34,-5,-1,53
1760,-5,-6,-17,-59,-8,-2,1,22
1765,5,2,-3,10,-2,0,0,-17
1770,-3,-5,-7,-8,-5,-2,-3,-13
1775,-5,-5,0,-12,6,3,-2,-21
1780,13,4,14,17,6,1,5,23
1785,7,4,4,0,14,-1,-1,5
1790,-19,-2,-7,23,-3,-1,-3,-30
1795,4,-10,-16,-37,-23,-5,1,18
1800,1,8,7,20,12,-2,-3,-25
1805,15,-10,-8,11,12,3,0,27
1810,-24,6,20,25,-16,-6,2,-1
1815,-13,-8,-10,-15,0,-3,-2,-2
1820,-6,-10,-4,-36,-6,-2,-1,-14
1825,31,16,-3,7,-2,-1,-1,4
1830,-18,-4,0,-22,9,1,-1,-13
1835,30,2,4,4,-1,4,7,29
1840,-34,-5,2,35,-4,-2,-2,-11
1845,-4,-6,-7,-4,1,-3,-4,-4
1850,-1,-3,-6,9,-10,-3,-3,-33
1855,6,7,4,-29,12,3,-1,9
1860,-4,-1,1,20,4,2,2,11
1865,-1,-4,-5,21,3,-4,-2,-6
1870,2,-5,-10,-42,-42,-5,-4,0
1875,-2,-6,4,18,8,1,-2,-19
1880,11,0,-3,53,17,-4,-4,3
1885,-17,-2,3,8,0,-2,-1,-2
1890,1,-4,-8,-49,-9,-1,1,-24
1895,2,-2,3,20,2,0,1,11
1900,-6,4,-1,-4,-5,-1,0,16
1905,18,-7,5,10,10,-2,-3,-31
1910,-23,9,9,58,25,5,2,16
1915,-2,-5,-10,-66,-30,-3,-3,-28
1920,-5,-1,2,22,25,0,-1,4
1925,-11,-5,0,38,-14,-7,-4,-7
1930,13,-2,3,-20,14,1,1,9
1935,-19,1,-4,0,-3,-2,-3,-10
1940,5,-4,-14,-74,-35,-6,-2,11
1945,5,1,-3,-16,-4,1,2,24
1950,13,-1,5,35,6,-1,1,6
1955,-12,1,10,-4,7,1,0,3
1960,33,2,-6,-22,-5,2,3,-12
1965,-14,-7,-7,17,-22,-6,-7,-26
1970,4,1,-8,-5,-13,-1,0,26
1975,-8,-2,3,19,17,1,-2,-28
1980,0,-2,3,-24,-2,0,-1,4
1985,-1,2,2,-20,5,0,-3,-22
1990,17,-1,0,11,5,2,2,23
1995,-20,2,-3,-26,-10,1,-1,-26
2000,15,2,4,4,16,0,1,8
2005,16,-2,-11,-46,-53,-6,2,22
2010,-8,2,8,17,13,-4,0,-5
2015,-6,-1,-8,-23,10,3,0,14
2020,-16,-2,10,75,10,3,-3,-23
2025,5,5,4,-3,10,6,5,6
2030,7,-5,-9,-88,-22,-5,-4,6
2035,14,5,-4,50,7,-3,0,9
2040,-13,1,-5,8,1,0,1,-1
2045,2,-1,8,14,8,2,-3,3
2050,-15,-1,-10,4,3,5,0,-21
2055,13,-8,-10,-23,-35,-11,-7,-9
2060,0,-8,-4,2,-7,-4,-4,10
2065,-1,2,5,-10,2,0,-1,20
2070,-2,1,7,62,29,3,-3,-18
2075,-2,-5,-6,-87,-10,-1,-3,-16
2080,1,2,3,32,6,3,0,6
2085,-18,1,-3,-29,-7,3,9,3
2090,31,-1,-6,56,4,-1,-3,7
2095,-28,-2,9,23,19,1,1,2
2100,11,10,4,-5,-15,-3,-1,-8
2105,-30,-2,-6,-18,7,-5,-4,10
2110,2,-1,-9,-57,-11,2,1,-4
2115,2,-2,3,41,8,1,1,1
2120,0,7,2,8,-1,3,1,34
2125,-5,0,1,36,8,-3,-1,1
2130,-3,-13,-24,-42,-15,-11,-6,-16
2135,6,6,2,10,6,1,2,12
2140,-10,-4,4,30,8,-1,-3,-29
2145,7,0,-5,11,0,3,1,19
2150,-12,0,5,17,8,0,-2,-22
2155,16,-1,-5,-79,-26,-1,7,32
2160,3,-4,-3,4,-12,-5,0,22
2165,-2,0,5,21,5,0,-2,-14
2170,-6,-5,6,20,12,0,-4,-15
2175,-19,4,-5,9,-3,-2,-3,3
2180,2,-4,-4,3,-1,2,1,-41
2185,-15,-2,2,-3,6,2,2,20
2190,12,-3,4,-9,-7,-3,-4,-6
2195,-6,10,-1,33,-6,-4,-2,16
2200,15,0,1,-36,11,1,0,2
2205,-28,-1,0,10,-3,-3,-4,-26
2210,-5,0,9,34,10,6,2,1
2215,-4,-6,-6,-90,-14,-4,-5,-6
2220,22,-4,-5,15,9,-2,-2,13
2225,11,0,-1,8,-10,-6,-2,2
2230,-2,7,11,23,6,3,1,12
2235,0,3,1,53,8,-1,1,-6
2240,-11,-9,-21,-31,-16,-4,-4,3
2245,4,-2,7,-14,5,3,-4,-32
2250,-17,0,-3,-20,-15,-1,-2,-16
2255,2,2,0,14,5,-1,0,42
2260,1,3,10,-8,21,6,3,-10
2265,3,-5,-13,-20,-32,-7,-3,-6
2270,4,-2,-2,23,4,-2,-1,10
2275,-6,-1,9,23,4,5,0,-17
2280,-1,-5,-4,-32,-2,-4,-1,-5
2285,-17,3,1,-5,21,3,1,-15
2290,-3,1,2,1,-11,-1,4,26
2295,4,-4,-2,28,7,0,-1,-8
2300,-2,2,0,21,-7,1,-4,-19
2305,10,-11,-7,-60,-11,-2,-4,-44
2310,13,15,-1,-19,-3,-4,1,56
2315,7,-7,9,22,6,-1,-2,1
2320,-52,-3,-3,4,-18,-3,-7,-21
2325,8,3,6,17,18,6,5,13
2330,-8,-7,-13,-3,7,1,-4,-14
2335,11,0,-1,-28,-38,-2,1,-9
2340,-1,1,3,-7,-8,0,-1,18
2345,-7,5,-1,11,13,-4,0,3
2350,-4,-4,4,19,-8,-3,0,-2
2355,0,-1,2,-13,29,-1,-4,-5
2360,3,-7,-2,8,12,-2,1,-6
2365,-2,1,-3,-34,-22,-1,2,21
2370,19,-2,-7,-3,-12,-4,-3,-23
2375,-31,0,1,-3,-3,3,3,2
2380,-5,-5,2,-5,-1,-5,-3,15
2385,27,7,5,26,7,2,2,-2
2390,-52,-8,-6,-16,-9,-5,-6,-48
2395,36,0,-8,3,4,0,2,51
2400,2,2,3,-27,-5,1,2,-2
2405,18,1,0,21,1,0,2,16
2410,-4,-4,2,4,0,-2,-2,-18
2415,-9,-3,0,-10,0,-4,-7,-25
2420,-2,1,-2,-24,-13,-2,7,-2
2425,-1,-15,-12,32,16,-4,-7,9
2430,9,1,4,20,18,6,2,13
2435,-14,2,3,-9,-1,2,1,-16
2440,18,3,-5,25,-14,-1,-4,14
2445,-14,-1,7,-6,0,2,-1,-27
2450,7,1,-8,-79,-27,0,4,27
2455,5,-10,-8,42,29,-4,-1,-6
2460,-5,1,0,20,2,0,0,-20
2465,12,6,-5,-61,-25,-4,1,20
2470,-1,0,11,63,36,5,0,-3
2475,36,1,2,12,-9,3,2,-8
2480,-28,-8,-7,-41,6,-2,-4,-11
2485,6,0,-1,60,1,-4,-4,22
2490,-4,-6,-2,-31,-21,-1,4,7
2495,18,2,2,-16,4,-2,-4,-8
2500,-5,0,-4,-29,-12,-2,-1,-23
2505,-10,1,-4,-23,-6,2,-2,3
2510,5,-3,3,-6,10,-4,-4,-31
2515,-28,1,3,31,14,2,2,-9
2520,39,0,-2,15,2,3,4,10
2525,-18,4,-6,-46,-28,-1,0,30
2530,-8,-3,4,51,26,-3,-6,-9
2535,9,-2,2,-4,-3,3,3,-1
2540,-34,4,-4,-19,-14,-3,-2,3
2545,17,-5,1,31,23,-2,-2,-23
2550,-1,-2,-3,-4,3,-1,0,6
2555,-8,7,0,-50,-2,5,0,1
2560,7,-4,2,64,-10,-7,-4,15
2565,-11,-2,-4,-86,-29,0,-2,-40
2570,-4,-1,3,79,52,-2,-4,14
2575,2,-1,1,4,-6,-1,2,29
2580,3,-1,-1,0,18,4,-2,-13
2585,-11,-8,3,-3,-7,-1,2,40
2590,16,5,-9,-20,-26,3,3,-22
2595,5,-6,-5,27,-6,-14,-9,-7
2600,-4,1,5,3,16,1,-3,-5
2605,-1,-3,2,34,21,-2,-4,-2
2610,-2,1,-9,-31,-16,2,2,3
2615,-12,-4,-7,10,-4,-3,-3,-21
2620,15,-1,1,-9,-16,-2,0,25
2625,-29,0,0,29,11,-2,-2,-12
2630,5,0,3,-34,-18,1,3,33
2635,-1,5,-8,-1,0,-3,-5,-75
2640,-29,-4,4,11,-6,-2,-3,43
2645,16,-3,-6,-16,7,1,1,-10
2650,10,11,1,-27,-11,3,1,-11
2655,-22,-5,14,87,20,-2,-2,12
2660,11,-10,-20,-109,-15,-4,-4,-33
2665,7,-2,-1,34,-4,0,1,31
2670,5,1,4,-13,-1,-4,-4,-14
2675,-18,-2,-3,-7,4,5,2,10
2680,1,3,3,20,-8,0,2,7
2685,8,-5,-3,-4,-1,-3,-1,1
2690,-5,-3,-5,-9,9,1,1,1
2695,8,4,-1,-6,-13,0,3,15
2700,-2,4,7,-4,-12,1,1,-2
2705,-11,-2,0,23,14,-6,-6,-29
2710,8,0,-1,-42,-8,1,-1,-11
2715,15,0,1,-13,1,2,5,3
2720,9,-2,-11,-22,-3,0,-4,11
2725,19,5,3,-1,8,3,1,-21
2730,-21,-6,6,9,4,-2,-3,36
2735,-1,5,-1,13,-12,-2,-3,-9
2740,-8,-1,-2,-44,-5,1,3,-8
2745,15,11,2,35,1,-2,-1,-12
2750,-2,-6,-1,34,9,-5,-3,-3
2755,0,-2,-6,-62,-11,-2,-4,2
2760,6,0,1,54,5,-1,2,54
2765,-19,-1,3,-2,1,2,-1,-20
2770,12,1,5,3,-10,-3,-2,1
2775,1,-3,-3,24,-3,-1,-4,-14
2780,3,-1,-4,-59,21,-5,-3,-16
2785,3,-2,-2,7,-2,4,-1,8
2790,-1,0,-4,-23,-16,-1,0,-4
2795,-3,-4,7,7,-4,2,-2,-11
2800,-2,-1,3,10,28,-2,0,34
2805,-9,-2,1,7,-19,-1,0,-4
2810,-1,1,-6,-43,-9,1,-1,-21
2815,-17,-1,-5,5,17,-5,1,43
2820,10,-6,1,35,-15,0,-1,-32
2825,10,4,-1,-24,-12,-2,1,40
2830,-10,5,-2,53,1,-1,-4,-14
2835,19,-2,-9,-33,8,1,2,-3
2840,-1,2,10,8,0,0,-1,-4
2845,14,15,-2,5,10,1,1,-1
2850,-32,-14,-2,43,-19,-6,-4,-15
2855,1,2,-5,-34,3,0,1,33
2860,-9,0,2,46,11,3,-1,-53
2865,3,-4,-3,-36,7,-1,1,47
2870,13,2,1,-15,-1,2,3,11
2875,-4,-1,6,12,-3,2,-2,-35
2880,5,-2,-10,19,-13,-7,-4,33
2885,2,-5,2,9,7,-4,-2,-9
2890,3,1,-6,-13,3,0,-3,-2
2895,-6,-2,7,38,0,3,-2,-4
2900,2,3,0,-37,-12,1,6,2
2905,9,-5,7,54,15,-3,-7,-31
2910,-4,-1,1,15,12,0,2,3
2915,9,-3,-2,-24,-6,-2,-4,-14
2920,3,3,-2,7,-7,7,2,12
2925,-15,-9,-6,0,-1,-6,-6,-7
2930,17,3,-8,-74,-19,-4,-3,-6
2935,-1,7,-5,31,-5,-1,-1,3
2940,-9,-2,4,39,4,6,0,-49
2945,-2,-3,2,-22,3,-3,-1,8
2950,-8,-2,-5,-6,2,4,-1,16
2955,15,-2,-10,-23,-6,-2,5,32
2960,-2,-3,4,9,11,-4,-4,-25
2965,-16,12,-1,-19,-21,4,1,-11
2970,-2,-1,4,9,10,-2,-2,-2
2975,-2,-6,-6,-1,-6,0,0,-22
2980,5,1,4,-14,-3,0,0,45
2985,-5,-12,0,-22,3,1,-1,-12
2990,11,6,-1,-23,-12,-1,3,17
2995,-25,-6,6,56,12,-2,-5,-4
3000,26,2,-6,9,6,-4,-1,-5
3005,-8,-4,-7,-11,-16,-2,-2,-6
3010,-6,-1,-3,-6,5,0,-2,-16
3015,-8,-5,-4,-28,-10,-1,-2,-11
3020,8,4,1,-6,-5,-5,-1,37
3025,6,-2,-12,-62,-2,1,1,15
3030,-1,-4,6,36,8,-3,-4,-21
3035,15,3,8,54,18,-5,-1,15
3040,-39,-10,7,-12,3,5,-1,-30
3045,10,-4,-11,10,-19,-1,-1,-1
3050,-26,3,-5,16,14,-1,0,11
3055,-2,0,3,-35,-3,3,-2,-2
3060,12,2,-3,0,-23,-6,-2,-11
3065,0,1,11,31,3,2,4,-3
3070,5,0,-4,-37,-4,-5,-1,38
3075,6,-4,-6,-28,-3,-1,0,-4
3080,-11,-3,-5,13,8,0,-3,-18
3085,-16,-3,-5,2,-11,-4,-2,8
3090,20,-1,-1,-2,-14,-2,-1,-25
3095,-15,4,3,-10,6,1,0,40
3100,13,2,7,36,9,1,0,4
3105,1,-8,-10,0,-11,-1,-3,-34
3110,2,-2,-1,52,23,1,1,5
3115,8,-5,-7,-40,1,-3,-3,18
3120,-17,2,9,42,6,5,2,-9
3125,13,-10,-1,-3,-28,-6,-6,1
3130,1,0,4,46,-19,1,2,-35
3135,-1,-4,-2,-38,2,-1,-3,12
3140,-4,-1,4,15,4,3,1,-14
3145,7,5,-4,-21,9,0,0,31
3150,-3,2,-8,-5,-6,0,4,4
3155,-4,3,12,18,2,1,-3,-60
3160,-1,-7,-18,-34,-2,-3,0,43
3165,12,7,10,22,9,3,-2,-16
3170,-8,-3,-8,-14,3,-5,-4,5
3175,7,-1,-8,-55,-11,1,3,13
3180,-7,0,-3,12,-6,-2,-4,-21
3185,-6,-1,3,12,12,2,2,5
3190,8,0,8,-31,1,1,2,-4
3195,-10,-2,-10,-37,-7,-5,0,15
3200,-3,-3,-6,5,4,-4,-5,-9
3205,15,0,4,16,3,-1,-1,5
3210,-19,-9,-4,1,-9,1,0,-5
3215,-3,4,3,-3,-24,2,2,-12
3220,4,1,-5,-17,26,-3,-1,8
3225,-2,-1,7,104,33,3,0,12
3230,1,-6,-11,-95,-35,-10,-7,5
3235,-4,1,3,33,-10,0,1,-10
3240,7,-3,-6,10,6,-2,-3,-5
3245,-18,5,0,-21,0,3,-2,-61
3250,9,-3,2,31,5,3,6,59
3255,-2,-4,0,12,1,-2,0,27
3260,16,2,-2,-20,-16,-1,-1,-12
3265,-18,5,6,-40,7,1,-1,-22
3270,-1,-4,-9,65,5,-4,-1,16
3275,-10,-7,-2,20,4,-2,-6,-22
3280,16,-3,3,-40,-13,1,1,6
3285,18,1,-1,1,14,2,4,22
3290,-40,-1,13,23,17,2,-5,-14
3295,1,-9,-11,-4,-5,-8,-4,-9
3300,-12,6,4,-8,4,3,4,6
3305,1,-7,-16,-52,-23,-6,-4,2
3310,15,5,4,16,-3,2,-1,-4
3315,-9,6,5,37,12,2,1,-6
3320,-10,-3,-7,36,-2,-3,-2,-9
3325,-28,-9,5,-56,-6,-4,-2,-43
3330,27,-1,-6,1,-5,-4,-4,21
3335,-1,2,-1,-7,-5,1,1,23
3340,6,-3,1,7,0,3,3,17
3345,-4,7,-2,-4,-4,3,4,-8
3350,5,-13,-8,-13,-8,-5,-8,-31
3355,-17,-2,7,42,24,2,-3,-17
3360,-7,-1,-4,-11,-24,-3,3,0
3365,-11,0,-3,9,-3,-1,0,12
3370,1,0,5,-28,3,4,0,-9
3375,6,3,-3,-8,3,5,-4,-30
3380,14,-4,-9,-28,-7,-1,-1,61
3385,-41,-6,4,29,-10,-3,1,16
3390,15,4,-2,3,3,-3,-6,-5
3395,19,8,7,15,21,3,5,-4
3400,-19,0,-8,-55,-22,-5,-6,-36
3405,28,-1,-3,55,21,-2,0,8
3410,1,3,5,-9,4,5,4,43
3415,-6,0,-1,9,-15,-4,-2,-17
3420,-10,0,-1,-68,-9,-1,-1,-21
3425,11,-2,-6,16,-8,-1,-2,12
3430,-16,-4,3,-37,-7,-2,0,-23
3435,-7,6,10,48,34,1,0,8
3440,26,-4,1,74,-15,-6,-7,-7
3445,-2,2,2,-36,1,2,0,2
3450,1,3,-2,-19,3,1,0,-25
3455,0,-7,-13,-21,-21,-4,3,47
3460,-7,14,9,8,25,4,2,-17
3465,-6,-6,-2,3,-10,-2,-2,-32
3470,8,2,2,35,2,-1,0,0
3475,18,-10,-11,-58,-4,-7,-4,24
3480,1,1,-2,19,2,0,-1,10
3485,-1,-1,5,7,5,-5,-5,-3
3490,-3,4,9,11,17,9,2,-23
3495,9,2,1,15,-25,-4,-3,4
3500,-2,0,-2,-4,24,3,3,7
3505,-21,-3,-9,-10,-19,-6,-4,1
3510,18,0,7,51,7,0,-2,-18
3515,-4,-2,-3,-80,-12,0,-1,1
3520,-2,0,2,2,-13,-1,-1,-1
3525,1,3,-2,-9,15,-1,0,4
3530,-21,-3,-6,11,6,-2,0,10
3535,-13,-1,2,37,-4,0,-6,-47
3540,0,3,8,-38,-16,3,4,8
3545,25,-1,-2,24,32,3,0,3
3550,-28,-7,3,7,-10,-4,-3,-35
3555,20,22,2,5,-1,2,5,8
3560,2,-5,-13,7,-4,-7,-6,21
3565,5,-1,-12,19,-6,-1,0,18
3570,-13,-1,6,-48,-10,-2,-2,-5
3575,-6,-3,6,34,10,3,1,-31
3580,14,-1,-2,-2,-28,-6,-1,6
3585,-24,6,2,16,14,2,-2,-1
3590,16,2,-3,17,-1,-5,-3,25
3595,-12,-5,-2,-6,7,2,6,-18
3600,-8,0,3,35,20,2,0,0
3605,6,-10,-9,-96,-30,3,2,10
3610,0,1,-2,-40,3,-7,-3,1
3615,-5,4,4,24,5,0,-3,1
3620,16,-14,-7,-31,19,-1,-4,6
3625,0,-1,-3,8,-21,-1,2,-1
3630,1,1,5,48,34,7,6,9
3635,-4,-13,-5,-35,-8,-2,-5,-38
3640,-1,11,0,-33,-25,-6,-2,18
3645,12,-6,6,3,7,0,-1,11
3650,14,1,-9,-1,-1,0,0,3
3655,-10,-6,-1,-8,-10,-3,-3,-10
3660,-18,5,3,20,13,5,2,-10
3665,14,0,-2,-34,-10,-7,-5,-4
3670,-37,5,-6,-12,-14,1,-1,10
3675,8,1,-8,1,-4,-1,-2,24
3680,-26,-5,7,12,21,-1,-4,-39
3685,-8,5,7,26,4,2,0,0
3690,50,-4,-7,-33,-9,-1,1,3
3695,-40,-1,-2,-2,4,-1,-7,3
3700,-24,1,7,41,19,3,2,0
3705,-2,-1,2,-7,-10,0,0,-11
3710,24,-2,-5,-12,-6,-5,-1,-1
3715,-3,-5,-3,77,25,0,-3,-4
3720,-10,-12,-4,-17,-31,-3,-2,-9
3725,0,48,6,1,12,5,5,18
3730,-11,-12,-1,48,1,-2,-3,-7
3735,-3,-14,5,-67,-21,-5,-4,19
3740,-4,-7,-10,-10,15,2,-1,-24
3745,-8,-10,-2,-11,-8,-4,-5,-1
3750,-12,20,11,26,4,5,5,15
3755,47,-1,-4,-26,-1,1,3,0
3760,-13,-18,-6,22,0,-3,-4,-12
3765,10,15,3,-11,-1,1,1,-11
3770,-21,-8,-2,-2,9,-3,-6,-14
3775,20,7,11,27,15,1,-2,5
3780,3,9,6,-12,-1,3,1,-2
3785,12,-11,-5,52,10,-2,-1,-1
3790,-9,-6,-5,-22,4,1,1,12
3795,-20,2,1,7,-4,1,2,0
3800,9,2,-14,-57,-32,-14,-7,-3
3805,-8,-5,5,63,15,-2,-3,0
3810,6,-4,0,-69,-24,0,2,0
3815,-10,0,-12,-40,-14,-3,1,0
3820,14,-1,-1,6,-8,1,-4,-18
3825,-31,-12,4,17,27,4,-3,28
3830,44,0,-9,-9,-42,-8,4,-21
3835,10,-7,-5,-4,6,0,0,47
3840,-21,14,20,76,31,5,0,-35
3845,0,-5,-6,-47,-23,0,4,41
3850,-40,-2,-11,8,3,-2,1,15
3855,25,2,1,-8,-11,3,-1,4
3860,8,-5,-7,7,5,-6,-6,-35
3865,15,18,0,-28,-18,-2,0,9
3870,-25,-3,15,61,34,5,-1,2
3875,-9,-11,-8,-16,-6,-2,-1,3
3880,3,13,7,10,9,6,4,24
3885,32,0,1,36,-11,-7,-5,-26
3890,7,0,-4,2,-3,-1,0,2
3895,-16,3,-2,13,-5,-2,-1,-13
3900,13,-3,-8,-38,-5,-1,-1,12
3905,10,-12,2,39,20,-1,-2,-8
3910,-35,0,7,29,16,4,-2,-2
3915,-4,13,-6,-21,-21,-5,-4,-16
3920,-18,-3,-5,-29,-10,-3,0,8
3925,8,-8,0,0,12,1,1,-5
3930,-2,10,2,21,-16,-3,-3,9
3935,29,-16,-6,27,12,2,3,-7
3940,-20,-6,-11,-10,-21,-7,-5,3
3945,-5,-9,10,-29,5,4,-1,-27
3950,-29,5,6,-12,-2,-4,-4,2
3955,1,-3,-2,8,-18,-6,-2,14
3960,12,1,3,-9,0,2,4,-8
3965,-26,-12,-6,-4,0,-4,-3,-12
3970,34,20,-8,-1,-6,0,-5,2
3975,-20,-38,-5,36,9,-7,-6,-15
3980,-6,-15,3,-2,-12,3,3,4
3985,-18,-1,-13,-2,-18,-5,-4,-4
3990,-1,16,1,32,18,-2,1,-4
3995,-6,-7,2,-34,-3,-3,-2,-8
4000,20,3,-10,-4,15,1,1,15
4005,-14,-7,-2,-60,-17,1,1,-11
4010,29,-8,-2,-14,-10,-2,-2,-2
4015,12,11,0,61,17,0,-3,-1
4020,-37,16,12,26,8,-5,-2,10
4025,32,-7,-10,-38,-21,-2,2,0
4030,-8,-1,-6,-77,10,2,-1,-5
4035,7,9,-1,2,-35,-3,5,10
4040,8,3,9,26,17,1,2,4
4045,7,10,2,22,20,4,0,-1
4050,6,-18,-6,-32,-12,-2,-3,-10
4055,-6,-5,-7,-21,10,3,1,-19
4060,15,0,-5,-37,-22,-3,-1,23
4065,-3,7,9,27,12,0,-4,-9
4070,7,-6,12,75,12,3,3,15
4075,-27,4,-1,-68,-14,0,-1,-7
4080,56,22,1,12,18,1,-2,5
4085,-30,-39,-11,-98,-4,3,3,-10
4090,-12,-12,0,29,-24,-11,-7,-32
4095,-12,5,1,40,16,0,2,34
4100,-4,1,4,-8,2,2,0,-31
4105,12,7,8,18,-3,3,4,43
4110,-55,-8,-12,-32,-9,-4,1,-4
4115,36,33,16,13,14,1,0,-4
4120,-21,-34,-7,-3,-8,-4,-2,-1
4125,-5,2,-1,23,-4,-1,-5,-9
4130,8,-5,2,-11,16,0,3,9
4135,16,5,3,35,13,1,-1,-11
4140,-4,-1,1,-27,6,0,-2,8
4145,-15,6,0,19,-17,-3,1,-16
4150,16,-5,-4,-12,0,-2,0,10
4155,-19,1,-5,-56,-3,-2,0,0
4160,5,-3,-6,17,1,-1,-1,-11
4165,-6,-4,-6,-38,3,-2,-4,5
4170,15,9,-7,-9,-6,2,0,-7
4175,-12,-3,2,31,-5,-1,-2,0
4180,11,-1,6,53,33,4,4,7
4185,6,3,-13,19,-14,-4,0,3
4190,-20,-2,2,-68,-25,-4,-4,1
4195,-11,5,0,32,17,-1,-1,-2
4200,-17,-6,4,-18,-28,0,0,-17
4205,20,4,4,54,12,1,1,29
4210,1,4,0,-38,1,0,-2,-6
4215,-9,-7,-2,-29,-2,0,1,7
4220,4,0,-4,25,-2,-4,-7,-7
4225,-5,5,2,-4,7,-1,-1,-5
4230,6,-5,0,20,-3,2,3,-2
4235,13,-8,-14,-8,-3,-8,-9,-5
4240,-25,9,5,-8,-5,4,4,17
4245,-9,-6,4,19,-3,-9,-7,-17
4250,8,11,-3,29,14,1,-1,-16
4255,7,-18,2,-7,-26,0,1,18
4260,10,-1,2,34,35,1,-1,-18
4265,-3,0,-3,-69,-12,0,1,16
4270,6,-5,-1,-5,-15,-1,0,3
4275,-10,7,3,17,6,0,2,-7
4280,21,3,-14,-70,-28,-8,-4,0
4285,-48,3,-5,1,5,-1,-2,-28
4290,8,-2,4,41,27,6,1,19
4295,20,0,-3,-34,-30,-1,-2,-16
4300,12,-8,3,49,26,-4,-3,24
4305,10,10,12,26,11,3,1,-13
4310,-5,-3,-15,-79,-41,-8,-9,-63
4315,3,-8,-5,-27,10,-2,2,79
4320,-2,-2,-5,-13,-10,1,0,-32
4325,24,0,-3,7,10,1,0,16
4330,-12,-7,10,25,-16,1,-3,-5
4335,1,8,3,-57,-18,-2,-1,-22
4340,-19,-1,-2,50,-6,-4,-4,-11
4345,0,-6,-10,16,13,-1,0,-9
4350,14,2,6,-17,1,1,1,10
4355,-2,3,9,39,7,0,-4,-19
4360,-35,4,-9,-25,-9,1,0,-3
4365,32,-4,-5,2,-15,-1,0,13
4370,1,-3,-2,31,12,-1,0,22
4375,-8,3,4,-12,-18,-1,-2,-9
4380,4,-5,9,40,20,3,-1,-5
4385,6,-1,-1,-17,-18,-3,-1,12
4390,-34,-4,-2,50,9,-6,-4,-5
4395,-1,3,-7,54,21,1,-1,-8
4400,-6,-5,-7,-103,-20,-4,-1,19
4405,-7,3,-3,6,1,0,-1,-14
4410,23,-2,2,-7,0,1,5,29
4415,-9,7,8,45,-7,3,0,-33
4420,-3,-1,2,24,14,-2,-3,16
4425,4,0,1,-35,-6,-3,-1,37
4430,27,-3,-13,-8,-5,-6,-7,-13
4435,-1,-22,0,28,7,3,3,-18
4440,-2,8,2,-2,2,2,-1,-2
4445,-19,-5,-7,-61,-19,-5,-2,-36
4450,30,-3,1,74,15,1,-2,22
4455,5,-2,-3,-87,0,0,0,-1
4460,-22,20,0,28,-3,-7,-3,-66
4465,21,-5,-4,35,15,1,2,75
4470,18,6,-2,-19,0,2,3,-10
4475,-39,-2,-4,13,-4,-5,-3,-11
4480,12,-2,8,-22,-10,2,1,2
4485,-16,0,-1,39,6,-1,-4,-17
4490,-6,3,-1,-41,-1,0,2,-4
4495,12,-4,-8,10,-6,-4,-2,18
4500,-1,-12,-8,-17,1,-1,-6,-6
4505,-9,6,5,-13,18,1,2,-25
4510,-1,-3,2,15,-1,-1,-2,12
4515,-6,0,4,-1,-39,-7,-1,-6
4520,3,2,5,3,18,2,-3,-3
4525,0,-1,-1,-9,-16,3,1,-7
4530,-31,4,10,21,20,5,3,-2
4535,54,-8,-14,-65,-15,-8,-7,-24
4540,7,-4,-13,18,0,-7,0,64
4545,12,2,7,13,0,4,6,1
4550,-23,-7,-9,-62,-6,-2,-3,-5
4555,1,9,5,30,11,5,3,-2
4560,4,-4,8,46,-2,0,-2,10
4565,-13,-6,3,-8,23,-2,-9,-57
4570,32,7,4,33,-17,-2,5,69
4575,-47,-2,0,-37,7,1,-3,20
4580,-37,-7,-14,-30,-36,-4,-1,-16
4585,-14,3,0,27,8,-1,-3,-16
4590,-13,1,5,39,18,3,-4,-39
4595,10,4,2,18,9,1,-3,-1
4600,13,-4,-2,-50,-11,-2,5,19
4605,-2,-2,-1,44,11,1,-2,-6
4610,-23,-1,-1,-28,-31,-6,-5,-14
4615,23,5,3,26,25,1,-2,0
4620,37,-9,-5,6,-11,4,7,4
4625,-7,10,-6,-14,-11,-5,-5,8
4630,3,-5,-8,-3,14,1,-1,-48
4635,-10,3,2,-35,3,2,2,66
4640,11,2,1,-31,-3,2,2,4
4645,7,-3,7,66,-7,-4,-4,-6
4650,-15,-2,10,-5,1,2,-1,12
4655,20,-9,-9,-13,16,-4,-4,-49
4660,-29,15,-7,23,12,-1,2,8
4665,-9,-5,2,-35,-2,3,0,10
4670,4,0,-6,-20,-18,-6,-3,-5
4675,-15,2,8,1,6,4,3,-15
4680,15,-6,-1,-1,-14,-2,-3,4
4685,-2,1,8,28,29,4,0,-8
4690,-10,2,-2,-38,-32,-4,-1,25
4695,25,-5,-1,95,25,-6,-3,-18
4700,-43,-7,-12,-49,-36,-6,-2,25
4705,-5,-6,-8,-10,-4,-3,-2,-9
4710,7,-1,-3,-7,16,2,-1,-2
4715,-13,2,4,0,0,4,2,12
4720,0,-1,7,17,1,1,-4,-28
4725,-7,-4,-3,-54,-6,3,-1,-30
4730,6,-3,-2,-3,-6,-3,0,52
4735,15,-6,-14,-35,3,-10,-6,-2
4740,20,4,11,58,9,0,1,-16
4745,12,2,4,-4,-4,-2,1,-2
4750,-7,-3,-2,40,19,2,0,1
4755,-7,1,-1,-34,-16,3,2,-1
4760,4,-5,-2,6,12,3,-3,1
4765,-3,-1,4,18,-7,-3,-2,-7
4770,7,1,-8,11,1,5,3,6
4775,9,-14,-19,-56,-23,-13,-8,-8
4780,4,1,6,38,19,-2,-5,-9
4785,-14,-3,-13,-3,-7,-1,-3,-1
4790,-9,4,8,17,20,4,0,-14
4795,7,7,3,11,-3,7,1,12
4800,-12,-1,1,-27,-5,1,-1,-35
4805,1,0,11,-43,-4,3,1,63
4810,42,-13,0,99,1,-5,3,-14
4815,-51,4,-28,-63,-53,-10,-7,0
4820,6,-6,3,30,9,-3,0,6
4825,-3,4,-1,25,7,-5,-4,-18
4830,-5,2,5,-9,5,3,0,-7
4835,-5,-1,10,10,1,3,4,3
4840,-2,-1,-5,-21,-5,1,0,-7
4845,7,-1,-4,-10,-7,-1,0,2
4850,-10,0,-5,-44,-1,-2,-4,-11
4855,-2,5,18,31,7,3,2,3
4860,3,3,-10,-18,-7,-1,-3,-10
4865,-11,-10,-9,30,4,-3,0,-32
4870,9,-10,-18,-80,-48,-15,-7,7
4875,-35,1,15,86,53,2,-3,-11
4880,-8,3,22,4,20,5,2,-2
4885,7,0,-1,-6,-41,0,1,-11
4890,17,-3,-3,-29,-10,0,-3,15
4895,-24,-21,-7,7,-1,2,4,-16
4900,-17,29,3,-12,7,-4,-3,-3
4905,-8,-7,-6,36,5,-1,0,12
4910,-19,5,0,-18,1,-2,-4,-15
4915,6,-1,-2,11,0,0,-1,-16
4920,15,-10,-2,-14,-2,-2,2,44
4925,0,1,-6,-7,-10,0,-1,-1
4930,-3,3,7,10,17,2,0,-8
4935,6,4,7,-13,7,5,4,12
4940,18,-14,-15,13,-13,-4,-2,9
4945,18,4,-3,1,4,-4,2,10
4950,-33,-2,1,42,0,0,1,3
4955,13,-3,-12,-57,-12,-11,-8,-14
4960,-8,-2,2,-25,-13,2,-2,9
4965,11,-1,5,-12,6,3,4,9
4970,-20,-2,13,111,41,3,-2,-37
4975,8,7,-14,-27,-2,1,3,50
4980,21,-3,-3,-14,-5,-2,-2,-8
4985,-38,-4,-4,-62,-21,-8,-3,-2
4990,-7,-1,3,51,26,-1,-2,-18
4995,3,2,1,44,0,4,-1,-10
5000,5,-7,-1,-36,2,3,0,-2
5005,13,-1,1,15,6,-3,0,5
5010,9,11,-5,-63,-10,0,-1,-24
5015,-3,2,6,14,12,0,4,61
5020,-4,-4,-10,-21,-24,-3,0,-18
5025,-19,-4,-1,27,-3,-2,-1,-13
5030,20,-1,0,-35,-11,-3,-3,26
5035,28,-17,-2,12,10,1,-2,-67
5040,-7,16,7,-11,0,3,6,61
5045,3,0,-4,49,9,-2,-1,6
5050,11,-5,-10,-68,-24,-3,-1,-3
5055,-17,4,8,11,-25,2,-2,-15
5060,-6,-9,0,15,28,-6,-7,-24
5065,3,-4,-5,6,-2,-1,-1,-3
5070,-2,3,-3,-38,-15,4,2,-5
5075,-2,-3,-1,42,19,-3,-1,7
5080,14,1,8,6,-7,0,1,-11
5085,12,-3,-2,-55,-11,-1,0,19
5090,-12,-2,-9,22,14,0,-2,-34
5095,-6,5,0,-14,-18,-1,1,20
5100,7,-7,-1,73,22,-2,-2,-11
5105,16,-4,-1,-82,-24,0,2,9
5110,1,14,6,6,-6,1,2,7
5115,-14,-2,2,86,27,3,-3,-23
5120,-9,-4,-5,1,-3,-2,0,19
5125,-2,3,2,-9,-14,-4,-5,-23
5130,4,-7,-8,28,9,-1,-1,35
5135,2,6,-2,-87,-24,-2,-1,38
5140,3,-2,-4,30,4,-3,-4,-15
5145,-24,0,1,6,-7,0,0,-6
5150,-2,-6,-2,-29,-2,0,0,-1
5155,-1,5,10,39,13,-1,-7,-5
5160,-14,-11,-12,-48,-24,-1,2,-45
5165,15,4,-1,37,13,0,-1,50
5170,6,-5,-7,-3,1,-2,1,7
5175,9,-4,3,25,-11,-3,1,-18
5180,-19,-2,-1,-27,16,-2,-5,-13
5185,1,6,5,37,3,3,-1,0
5190,8,-6,4,13,2,-4,-3,-18
5195,-26,-2,-1,-54,-9,2,-1,9
5200,5,-4,-3,14,-8,-2,2,18
5205,4,8,2,-15,14,3,2,-13
5210,-1,0,-1,7,-4,-1,2,34
5215,11,3,-1,-18,-8,-2,0,-14
5220,-1,-8,-9,-15,21,-1,-4,-14
5225,-5,-7,3,-21,-12,-5,-2,-7
5230,-3,-2,-5,-15,-12,0,0,-14
5235,3,2,4,49,3,-4,-2,5
5240,-5,4,-3,-35,-7,5,4,0
5245,6,-2,11,79,37,2,-2,0
5250,1,2,6,21,4,-1,-1,-1
5255,-6,-6,-15,-48,-19,-5,-8,-18
5260,16,3,3,5,-13,0,1,57
5265,-5,-5,-3,7,4,-3,-2,-3
5270,-6,-1,3,20,7,0,-1,3
5275,6,3,4,-32,0,5,2,-23
5280,-34,-4,5,-56,-41,-2,-2,-25
5285,0,-6,-21,69,45,-9,-8,18
5290,9,2,8,-17,1,2,-2,1
5295,-12,3,4,28,1,0,7,21
5300,1,1,-8,-78,-26,-3,-3,-7
5305,1,5,11,-18,3,6,1,-7
5310,16,-4,-3,-4,2,-3,-2,-21
5315,-36,-7,-8,7,0,-5,-2,-6
5320,45,5,12,57,8,-2,0,65
5325,-12,-13,-14,-26,-2,0,-3,-8
5330,9,3,6,-27,-8,-3,-2,-12
5335,9,5,-8,-66,-30,3,3,2
5340,-18,-2,7,114,60,-4,-7,-38
5345,12,2,8,20,6,0,0,7
5350,-24,-3,0,14,-22,-2,0,10
5355,-13,-1,-3,-35,0,1,-2,-18
5360,10,4,-10,-44,-7,0,1,-3
5365,5,1,3,-13,-22,-4,-7,-30
5370,-1,-10,3,-9,14,7,5,25
5375,-11,10,-3,48,19,-4,0,27
5380,-6,-3,-2,-17,-8,-1,-2,-24
5385,-2,1,-1,-14,3,3,2,-22
5390,2,1,-13,-96,-25,-1,0,21
5395,-6,-9,2,1,-11,-6,-6,-23
5400,26,3,14,120,43,5,-2,11
5405,-16,0,-11,-95,-35,-2,6,-12
5410,-13,-1,-4,-22,-4,-4,-5,-14
5415,19,2,8,32,25,5,3,6
5420,-19,-5,-6,-17,-30,-1,-3,-16
5425,18,4,5,-3,-16,-6,-4,-10
5430,-4,6,1,86,12,4,3,30
5435,6,-6,-4,-52,-9,-4,-4,-6
5440,0,2,14,54,30,3,6,14
5445,-8,-4,-7,21,7,5,-1,11
5450,3,1,2,56,-3,-3,1,-4
5455,9,0,1,-53,-1,0,-3,3
5460,-11,2,3,-4,7,1,-3,-14
5465,10,-1,-5,-32,-27,-3,0,30
5470,-21,-6,-7,8,3,-4,-4,-11
5475,-13,4,-2,16,5,1,-2,-13
5480,8,6,-2,-38,-20,0,2,-7
5485,-3,-7,-7,1,16,-3,-2,5
5490,-6,-5,-6,-15,-12,-5,-5,-25
5495,3,-10,-1,15,17,1,-2,-6
5500,-2,4,-4,-6,-15,-1,0,10
5505,8,0,3,7,22,2,-1,-6
5510,12,-1,0,-22,7,0,1,7
5515,-29,2,5,15,-27,-7,-2,-4
5520,-2,-2,-4,1,9,0,0,-1
5525,-8,3,8,37,0,6,4,-26
5530,2,0,1,-43,-2,-6,-1,40
5535,22,1,-6,-34,-5,-1,0,2
5540,0,-4,-7,-76,-25,-1,0,34
5545,-12,1,3,11,22,2,-1,0
5550,-7,3,1,16,12,2,-5,-23
5555,10,-7,-3,43,15,1,-1,-17
5560,-7,-1,-7,-19,-18,-5,-1,13
5565,10,-9,-3,-20,-11,-4,-3,-20
5570,6,4,-2,38,12,1,1,26
5575,3,0,-1,-12,12,-3,-2,-28
5580,4,-8,-11,-8,-7,0,2,8
5585,1,4,3,7,-28,-5,-3,17
5590,-25,16,1,3,0,1,0,16
5595,2,-6,0,28,13,0,-3,-44
5600,15,4,2,-33,4,0,1,72
5605,-6,-6,-13,-39,-17,-4,-4,-10
5610,18,-1,7,56,20,1,1,-17
5615,-1,2,-5,-32,-22,1,2,8
5620,-8,-3,6,85,28,-5,-4,-28
5625,-6,-3,-1,-30,-7,-3,-1,-2
5630,34,5,4,-13,-18,-1,0,2
5635,-22,-2,-2,4,10,0,-1,19
5640,-14,-8,-3,10,-20,-4,-2,-29
5645,34,-4,-6,-2,5,-1,0,21
5650,-17,-1,1,25,6,2,-3,-37
5655,13,2,6,8,23,4,0,18
5660,-19,-4,-15,18,-17,-7,-6,-32
5665,1,4,0,-11,-10,1,1,55
5670,-20,-13,-10,13,-8,-8,-5,-11
5675,15,10,10,8,1,4,1,13
5680,-2,1,-7,-17,10,-2,-2,-20
5685,-23,1,5,-19,-2,4,-1,-31
5690,4,-7,-2,-32,-6,-1,-2,-7
5695,19,0,1,82,20,-2,0,28
5700,-13,-10,-1,-59,-21,-1,-5,-43
5705,-3,18,1,36,-2,-3,-3,-4
5710,-7,-8,-4,-55,-17,-1,1,-19
5715,0,3,-3,44,22,-2,-1,-15
5720,10,2,0,-2,-14,-2,-1,-6
5725,1,-1,7,9,8,0,1,-18
5730,5,-1,-4,-46,-18,-2,-2,9
5735,-6,0,2,20,-1,-1,1,20
5740,9,1,8,-6,24,2,-2,-6
5745,1,-2,-4,5,-2,1,1,1
5750,-4,0,-6,35,-6,-3,-4,-11
5755,-6,-10,-3,-13,-17,-8,-5,3
5760,2,6,6,28,13,2,1,4
5765,-10,-3,2,22,5,0,-1,-1
5770,1,0,4,25,8,6,1,4
5775,2,-7,-18,-67,-12,-6,-5,-49
5780,-9,4,11,24,8,2,1,46
5785,9,-4,-9,-9,12,-1,1,51
5790,-1,-4,-2,34,1,-3,-1,0
5795,9,0,-4,-87,-45,-9,-3,-6
5800,0,-11,-3,-32,2,3,-3,-9
5805,-1,6,0,39,-2,-7,-1,-16
5810,2,7,2,-42,-1,3,3,25
5815,-4,-7,-2,-6,1,0,-1,1
5820,7,-5,-3,-18,-7,0,2,0
5825,-21,-4,0,9,2,-2,-3,-14
5830,3,-5,-10,-28,-6,-2,-3,-32
5835,8,2,8,62,24,-3,-1,8
5840,-12,6,-3,-47,-8,-2,-3,-6
5845,2,-1,2,-9,-4,3,2,16
5850,-12,-4,-8,56,2,-6,-7,-31
5855,27,3,4,10,5,6,3,46
5860,-59,-7,-8,-18,-9,-3,-2,-43
5865,15,2,4,9,-5,-2,-1,21
5870,1,-9,2,-4,11,2,3,8
5875,0,2,-5,-49,-18,3,4,3
5880,10,0,-1,45,16,1,-2,-26
5885,9,-7,1,3,-14,-6,-3,-11
5890,-12,9,7,-44,9,0,-2,-7
5895,2,-5,-8,35,2,-3,-2,-2
5900,5,3,-2,-17,-18,2,2,-11
5905,1,-6,-5,-1,-10,-1,-2,2
5910,-5,-1,3,-25,12,-1,-1,5
5915,11,-2,2,-24,-29,-1,-4,4
5920,31,-3,-2,16,2,0,-4,-2
5925,-12,6,7,-11,9,1,5,-30
5930,-2,-1,2,25,9,-3,-1,27
5935,-23,2,1,-19,-12,2,-1,-16
5940,13,0,6,63,4,-4,3,22
5945,1,-1,-5,16,22,0,-3,-15
5950,2,6,4,-13,9,1,0,2
5955,-10,-5,-3,-7,-8,1,2,-13
5960,10,-2,-14,-35,-21,-2,-1,9
5965,17,3,5,26,19,1,-2,-8
5970,-38,-3,-5,-34,-7,-3,1,-1
5975,5,3,1,40,8,-1,1,5
5980,-1,-5,0,-49,-45,-3,1,20
5985,-3,-7,-6,-26,9,0,-3,-2
5990,15,-2,-1,52,31,2,0,-40
5995,-28,0,-6,-33,-31,-2,3,-2
6000,-3,3,10,44,36,3,4,24
6005,-2,0,-2,-39,-12,-1,-1,-1
6010,1,0,2,-12,-20,-2,-2,-16
6015,-10,-7,-11,-37,12,-1,-3,-11
6020,5,0,2,42,5,-2,-1,-8
6025,-23,-2,1,-10,-10,0,-2,-10
6030,13,-5,-2,16,6,1,0,30
6035,5,3,0,-18,-21,0,2,-6
6040,11,5,-7,-22,-9,-6,0,45
6045,-3,-1,-1,-4,10,1,2,-3
6050,0,-2,6,22,3,-2,-3,-9
6055,3,0,1,-9,19,1,-2,12
6060,-14,-1,-12,2,5,1,0,-19
6065,0,-4,-5,-15,-21,-5,-2,-5
6070,6,-1,1,16,1,-2,-1,-8
6075,6,2,10,24,9,2,1,8
6080,-7,-3,-6,22,3,2,-1,-16
6085,-2,0,-2,-37,-10,-3,0,3
6090,1,1,1,11,5,-1,-1,7
6095,1,1,-1,-5,3,-2,-1,5
6100,-3,-1,4,-2,17,5,0,-6
6105,2,0,3,28,-1,2,0,-2
6110,-1,-3,1,16,-3,-1,-3,-1
6115,-17,-4,-8,-45,-22,-4,-3,-7
6120,-7,3,-1,14,7,-3,-4,-30
6125,27,1,0,23,7,2,1,53
6130,-12,-3,-5,-36,-7,-4,0,-26
6135,9,1,-4,20,-5,-1,-4,-6
6140,0,-4,5,21,3,1,1,-8
6145,-6,5,1,-46,-20,-7,-2,-15
6150,17,0,-10,-9,-13,0,-3,-38
6155,4,0,-3,-10,-5,-1,1,81
6160,3,-2,3,20,-7,0,-3,-20
6165,-16,-2,15,52,40,3,1,3
6170,7,3,3,-9,-22,-4,3,15
6175,1,-10,-7,-10,3,2,0,-20
6180,-13,-1,-5,-5,18,-2,-1,11
6185,16,0,-3,-25,-24,1,0,-10
6190,-7,-3,-4,-24,-17,1,4,18
6195,13,-3,3,8,11,0,-4,-29
6200,-10,-4,2,13,-19,-7,-1,22
6205,-9,-4,-13,18,19,-5,-6,-13
6210,-1,5,-5,-44,-22,-1,3,22
6215,-16,3,9,37,15,4,-2,-73
6220,33,3,-1,24,17,0,1,63
6225,-20,-7,-5,-67,-40,-3,-3,-14
6230,-16,-6,-7,-8,2,-6,-6,3
6235,-5,9,4,33,13,1,1,13
6240,3,-4,0,-22,-4,1,-4,-36
6245,-5,-2,-1,24,7,3,1,-11
6250,19,-2,5,-8,5,-1,2,39
6255,-1,-6,1,-2,-6,-2,-3,-3
6260,10,6,-6,-11,5,0,-3,-9
6265,-24,-8,-5,10,0,-4,-6,-28
6270,15,2,9,-1,-13,-2,-3,39
6275,-12,-9,-3,52,4,-7,-2,-19
6280,2,4,-1,-16,-1,0,-4,12
6285,9,0,-3,9,10,1,4,-15
6290,-9,1,-2,-10,0,3,1,34
6295,8,6,8,25,0,4,2,5
6300,13,-2,-3,-87,-10,-1,-1,-4
6305,-37,-6,-11,21,10,-4,-6,-4
6310,2,1,3,30,20,1,1,-5
6315,2,-1,-5,-19,1,1,2,14
6320,-10,0,2,23,4,-2,-2,-32
6325,10,2,9,36,10,4,2,20
6330,1,-3,-9,-2,-2,1,1,-25
6335,-5,-13,-7,-68,-8,0,0,6
6340,-4,3,-1,-20,-20,-4,-2,-4
6345,16,7,8,8,4,3,9,32
6350,-1,-7,-22,-35,-2,-5,-6,-10
6355,-3,7,6,18,-4,-1,-3,-2
6360,-27,-3,-8,-13,-4,-3,-2,-3
6365,18,-6,3,-2,-18,2,0,13
6370,-9,3,-1,45,23,-1,-5,-49
6375,7,0,-8,17,25,-1,-1,21
6380,-10,4,12,-17,-4,3,2,-12
6385,18,-4,-8,-24,-3,-1,-1,11
6390,-60,0,-6,-35,-60,-8,-6,-37
6395,29,-3,-3,17,8,0,-2,10
6400,-48,-3,3,32,14,2,2,6
6405,12,-6,-6,-40,-9,0,1,23
6410,18,0,4,44,-23,-5,0,9
6415,-15,-1,2,-6,22,1,-3,-12
6420,19,1,8,12,0,2,3,16
6425,-15,2,-9,-5,13,-1,-3,-33
6430,19,-2,4,9,3,1,0,34
6435,-22,3,-2,-5,-28,-5,1,7
6440,26,-5,-3,-4,17,2,2,-7
6445,-16,1,-3,-17,-8,-1,0,-14
6450,-3,2,7,11,7,0,1,-3
6455,-7,-3,-9,-27,0,-5,-7,-36
6460,10,-3,3,-1,-9,-2,2,67
6465,-1,5,-3,18,7,-1,-5,-46
6470,-1,0,9,22,16,3,2,21
6475,19,1,-3,-2,-1,2,3,26
6480,-7,-7,2,5,0,1,0,-25
6485,1,22,-5,-5,-21,-4,-1,0
6490,7,-6,-1,-44,-2,0,-3,-5
6495,2,-2,-6,-38,9,-1,-2,-7
6500,21,0,1,23,3,2,1,-10
6505,-49,-13,-8,21,0,-8,-6,12
6510,2,2,5,28,-1,0,-2,-38
6515,11,0,-7,-21,-10,0,0,40
6520,-9,-2,-3,6,-15,-8,-5,-18
6525,10,-1,0,-4,12,3,3,7
6530,-7,2,-4,14,17,3,-1,-35
6535,13,-3,7,17,-10,-1,1,48
6540,-34,3,-7,-51,-12,2,-1,-13
6545,47,-4,4,24,-22,-8,-4,-4
6550,-11,-2,3,11,18,0,-3,-43
6555,11,2,12,26,-2,-1,1,65
6560,9,-2,-11,-1,-4,-1,-1,-16
6565,11,5,8,-18,-4,2,-3,10
6570,-29,-6,-12,-18,6,-1,1,12
6575,-6,2,3,13,3,-4,-7,-76
6580,-2,-3,4,28,3,-2,0,16
6585,1,-3,4,-4,6,2,2,6
6590,15,1,-2,-42,-8,2,4,18
6595,-17,-3,-11,-54,-21,1,-2,-30
6600,-2,2,10,77,41,-1,-3,-10
6605,-3,-1,2,35,5,0,0,-16
6610,20,1,1,-27,1,1,3,55
6615,-8,-3,-6,-11,-13,-3,0,-6
6620,2,-2,-10,38,10,1,-2,-8
6625,-12,-3,7,-10,12,3,1,-22
6630,-15,1,-7,35,-7,-1,-3,31
6635,23,4,5,-42,-3,3,0,-22
6640,19,3,9,22,-6,-2,-1,7
6645,-28,-4,-10,-36,6,-2,-1,-15
6650,-8,-3,5,19,-5,-2,-5,-35
6655,-4,-6,-4,25,5,-1,2,57
6660,27,2,-9,-55,-14,0,3,-29
6665,-46,-14,-8,-9,-15,-3,-4,1
6670,11,4,3,-41,10,0,2,15
6675,-3,-2,0,30,-1,-1,-2,-26
6680,7,3,4,11,11,1,0,0
6685,-20,1,2,-4,-1,2,2,8
6690,13,-6,-14,-31,-9,-3,-2,-4
6695,-15,4,-1,17,-1,-1,-2,-24
6700,-7,-1,-1,-46,-12,-1,0,20
6705,13,3,1,-24,-9,1,-1,-5
6710,1,-1,12,54,12,3,-3,-5
6715,6,1,-1,-14,6,-2,-2,4
6720,-20,1,-6,-74,-26,-3,-2,-1
6725,43,-3,4,64,28,-6,-4,10
6730,0,-2,-2,-14,-9,2,2,-5
6735,10,7,4,10,9,3,4,-5
6740,6,3,-4,-40,-28,-1,1,21
6745,-12,-2,0,35,17,1,0,12
6750,-3,1,2,-16,-13,-4,-2,0
6755,-8,-3,-1,2,-12,-2,-4,-31
6760,-15,4,-5,24,18,4,2,-23
6765,20,-7,-13,-50,-23,-12,-4,19
6770,9,-2,4,47,16,1,4,-2
6775,-11,-1,6,16,9,2,-1,-23
6780,10,8,3,22,-14,-2,-1,-6
6785,-1,2,1,-2,-8,1,-1,-4
6790,-13,-5,-2,-12,18,-4,-3,-13
6795,12,2,-2,-6,-12,-4,-3,6
6800,-17,-11,-3,37,24,-2,-7,-47
6805,11,4,-3,-11,-5,0,1,17
6810,11,2,-2,-7,-15,-3,-2,-3
6815,-23,-6,5,29,6,2,4,40
6820,-6,-14,-9,-15,-10,-7,-4,-15
6825,8,3,4,-5,4,3,4,7
6830,-11,8,-1,10,13,0,0,-2
6835,-2,-10,-10,-20,-22,-5,0,1
6840,-3,-1,4,37,18,-5,-3,-3
6845,3,8,8,-45,-12,4,3,18
6850,0,-5,-14,-32,2,-1,-2,-3
6855,-4,2,1,37,14,-3,-1,-10
6860,-4,2,12,-25,11,6,1,19
6865,-3,-1,-8,6,-36,-5,-2,-20
6870,3,-8,-4,-1,3,0,0,7
6875,-9,5,-6,-31,-16,-3,-5,-19
6880,5,-7,0,3,20,1,0,10
6885,4,1,6,23,0,1,3,-9
6890,-6,-2,-4,-3,-12,-1,-4,-19
6895,-7,-3,4,-29,-15,-2,-1,12
6900,21,1,-2,64,11,-1,-1,-10
6905,-44,-7,1,15,13,-2,-5,-52
6910,60,6,-11,-30,-6,-1,2,63
6915,-45,-2,9,41,12,-2,-4,-34
6920,15,6,-9,-80,-32,0,2,21
6925,-9,-7,3,92,35,-3,-4,-3
6930,-3,5,5,-21,-10,-1,-1,-29
6935,14,-6,-5,13,7,1,-2,21
6940,-6,0,4,-12,-7,0,-1,9
6945,-1,-2,-19,-93,-21,-3,-2,13
6950,-26,-4,10,51,7,0,-1,-42
6955,20,-6,-1,-32,8,2,0,26
6960,-11,-7,-2,26,-12,-4,-3,-14
6965,20,9,-2,-12,15,3,2,19
6970,6,-6,-4,-6,-12,-4,0,0
6975,-1,9,4,-13,-1,0,1,-12
6980,-11,-3,5,6,-8,0,-2,-9
6985,-2,-3,1,-24,3,1,-5,-19
6990,-2,-6,-5,12,0,-7,-7,17
6995,6,1,5,48,10,1,1,-13
7000,-11,1,-3,-9,4,0,-1,5
7005,10,1,-1,-20,-12,1,1,-21
7010,-8,2,3,-16,-1,2,3,16
7015,3,0,-13,-67,-7,-2,-3,-7
7020,1,-2,-1,-1,-31,-7,-1,15
7025,-25,-3,-8,65,9,-6,-7,-37
7030,-8,-13,3,22,5,1,1,1
7035,14,23,0,13,4,-4,-2,18
7040,4,2,0,-18,0,4,2,-4
7045,-7,2,5,-15,-12,1,1,20
7050,0,4,1,-1,-2,0,2,3
7055,31,-3,3,6,0,7,4,-15
7060,-78,-5,-14,30,0,-10,-7,20
7065,11,-1,3,-22,-13,-1,1,19
7070,-4,-1,7,34,32,1,-3,5
7075,-3,-5,-6,-13,-5,0,0,-7
7080,27,0,-1,1,9,5,4,-8
7085,8,0,8,14,6,2,3,11
7090,-15,3,-3,-19,-11,2,-1,-35
7095,-4,-4,0,-15,-1,-1,2,21
7100,-3,-10,-3,-30,-22,-3,-4,-8
7105,-3,-3,2,8,-1,0,0,6
7110,16,7,5,-1,5,-1,0,5
7115,-6,-4,0,34,7,-1,-1,-3
7120,3,3,0,-29,-4,-1,-1,-1
7125,-4,1,6,-19,14,5,2,-18
7130,4,-10,-13,16,-6,-2,1,10
7135,3,7,2,-6,-13,-6,-3,13
7140,-21,0,-5,3,18,0,0,3
7145,7,1,2,21,-3,-3,-5,-4
7150,-4,2,7,25,-2,1,0,-10
7155,1,-6,-4,-12,-5,1,-1,32
7160,11,1,-1,-16,-2,2,1,-35
7165,18,4,2,30,9,3,5,36
7170,-18,-17,-10,15,-26,-7,-5,-10
7175,20,2,14,75,22,2,1,-9
7180,-17,-2,-10,5,12,-1,-2,-5
7185,-13,-3,5,46,12,-1,-4,-5
7190,3,3,-5,-53,14,3,4,4
7195,-12,-8,-11,-24,-32,-3,-3,-15
7200,39,-4,-3,-31,3,0,-2,-13
7205,-15,1,-9,47,-1,-6,2,26
7210,14,2,0,-45,-20,-4,-3,-15
7215,-47,-4,-1,36,16,-6,-3,-10
7220,9,0,9,27,8,1,-1,-9
7225,1,-2,-8,-31,-14,1,0,-18
7230,10,4,8,4,2,1,1,26
7235,4,0,-1,-9,-2,2,2,7
7240,-2,0,1,39,-8,-5,0,17
7245,9,-5,-2,-7,-1,-2,-5,-23
7250,-1,2,0,20,11,-3,0,35
7255,-1,-2,-5,-18,-6,-3,-1,-12
7260,6,2,6,-4,-4,-2,1,0
7265,-3,0,1,15,13,5,1,7
7270,-23,-11,-14,-43,3,-5,-7,-26
7275,31,-1,-2,-16,-10,-6,-2,1
7280,18,-6,-8,19,-15,-4,-3,8
7285,4,10,4,-2,14,-3,4,8
7290,12,2,4,0,1,4,3,5
7295,-20,1,5,16,16,2,-1,-6
7300,-48,-3,1,-1,4,2,-2,-23
7305,19,-8,-9,-32,-10,-3,-2,15
7310,-13,7,0,-8,-24,-2,-2,5
7315,-1,-19,0,48,21,-2,0,-46
7320,18,17,-4,-64,-11,-2,-1,49
7325,-10,-3,-5,-2,-4,2,3,1
7330,-22,1,3,39,9,-1,-4,-49
7335,23,-2,4,-1,0,2,3,51
7340,-7,12,-8,-14,-12,1,-1,7
7345,13,-5,-4,8,10,-6,-5,-20
7350,15,3,4,3,3,2,1,30
7355,-10,5,-6,-46,-14,5,1,-15
7360,-11,-2,13,71,20,-3,-3,-9
7365,0,2,-8,-56,-17,1,0,19
7370,-12,-4,-3,-14,-4,0,1,-15
7375,-1,6,2,46,6,5,1,3
7380,10,-14,-7,-68,-20,-9,-3,9
7385,11,13,12,11,20,1,-3,-20
7390,-5,-16,-2,-38,-3,-1,-2,-7
7395,1,3,-4,3,7,-2,0,10
7400,23,7,10,10,-1,4,1,-2
7405,3,-6,-8,-2,-6,-2,-1,-18
7410,0,6,-3,8,-1,-4,-3,12
7415,2,0,-5,-46,-9,-3,-2,13
7420,3,-10,0,-4,-4,-1,0,-20
7425,-3,5,4,-14,-6,0,0,77
7430,7,5,4,34,4,2,0,-15
7435,-22,-10,-5,-21,-7,-8,-6,-32
7440,3,3,5,69,20,2,-2,-7
7445,-14,-7,-2,-54,-17,-2,-1,-12
7450,3,11,5,17,6,1,3,10
7455,35,-6,3,-6,-11,0,-2,9
7460,-58,-5,-16,-39,-10,-2,-1,-9
7465,8,0,5,41,8,-3,-2,-5
7470,-15,-8,6,31,13,-4,-6,-3
7475,-6,1,-3,8,1,-1,1,-11
7480,12,-2,-9,-32,0,3,1,-3
7485,-2,-3,-1,-20,-21,-1,3,3
7490,19,-8,-20,-52,-17,-4,-2,-1
7495,-28,3,-3,35,1,-1,-3,-17
7500,8,-1,10,13,17,3,1,-28
7505,-26,0,-7,-23,-35,-7,-5,-10
7510,22,-2,7,64,15,1,0,19
7515,-13,-5,4,-15,9,1,-2,-8
7520,17,4,1,-4,-6,1,0,1
7525,-12,-9,4,33,17,0,-2,-30
7530,-34,12,-3,-24,-21,-1,-2,-19
7535,14,2,-14,0,0,-1,0,22
7540,-2,-3,9,-10,6,-3,0,8
7545,-5,0,0,22,1,2,2,10
7550,6,0,-1,-49,-17,0,-1,3
7555,-3,3,5,55,22,0,1,2
7560,8,-7,-6,-72,-11,-4,-3,-2
7565,8,-4,-5,-26,1,0,1,13
7570,10,5,2,-27,-13,3,4,3
7575,-6,-7,-2,45,10,0,-2,-11
7580,-7,6,4,35,19,-1,-1,13
7585,21,2,0,-3,3,2,0,-13
7590,-11,-2,-3,-10,-3,-1,0,-6
7595,-23,-6,4,39,0,1,-1,20
7600,5,-6,-1,-26,-2,0,0,1
7605,-13,11,-5,16,-3,-6,-5,11
7610,34,-2,-5,5,8,0,1,18
7615,9,5,-1,-69,-33,-5,-2,-15
7620,9,0,6,67,23,1,1,41
7625,-8,-6,0,-26,2,2,-1,-5
7630,5,-1,-8,-8,-2,0,0,-2
7635,-2,1,-6,-9,0,-3,-2,-9
7640,-4,-1,-1,11,-11,1,-1,-4
7645,4,-8,4,37,7,-1,-2,-37
7650,4,-3,-5,-47,1,1,1,32
7655,20,2,1,-58,-12,0,4,7
7660,-25,2,-6,66,3,-3,0,5
7665,-1,2,-1,18,8,0,0,-3
7670,-14,-6,9,16,0,-1,-3,-32
7675,2,1,-4,5,14,1,0,21
7680,33,-4,-10,-60,-21,-2,-3,0
7685,-16,-8,5,66,12,0,0,8
7690,22,8,4,43,22,1,-2,-5
7695,-46,-1,4,-47,-27,-2,-5,-38
7700,19,1,-17,-27,-6,-2,4,51
7705,-4,-6,5,-38,-18,-1,-1,0
7710,1,3,5,68,4,-3,0,-9
7715,8,-4,-2,20,16,0,-3,-24
7720,-45,1,5,-15,-4,0,-1,19
7725,3,-1,-6,-51,-12,1,-1,-8
7730,-11,-2,-3,23,-5,-4,0,0
7735,30,3,1,-11,6,2,1,19
7740,-11,-3,1,16,0,-1,-1,-49
7745,25,10,3,-13,2,2,2,31
7750,-34,-6,-1,46,3,-2,-2,-15
7755,-2,1,-2,-6,-7,-2,-1,9
7760,45,-13,-5,-22,10,2,3,-15
7765,-9,-5,-10,-9,-16,-3,-2,0
7770,-2,14,8,-24,21,0,-4,-9
7775,29,4,-2,6,-9,-3,1,45
7780,-29,-1,0,-36,-20,-2,-5,-8
7785,-11,-6,-20,2,-8,-7,-7,-15
7790,3,-5,8,25,0,0,1,12
7795,-8,-10,-1,14,5,-2,-3,-20
7800,21,7,8,46,9,4,-1,-9
7805,-13,-2,-2,5,-10,-7,2,20
7810,-12,-7,-11,-71,-8,1,-3,-38
7815,-12,1,6,25,10,2,1,40
7820,41,-3,-3,19,-17,-6,-2,-14
7825,12,7,7,0,10,2,-1,-11
7830,-20,-10,-15,-24,-10,-2,0,5
7835,-8,20,3,-29,9,2,2,-25
7840,-17,-2,-2,8,7,-1,-2,-9
7845,9,2,1,23,-7,1,2,27
7850,-20,-1,5,-13,-6,-2,-5,-44
7855,28,-6,-6,-18,0,-2,-1,30
7860,-3,5,1,37,14,0,2,13
7865,-49,-6,3,2,10,-2,-4,-22
7870,30,0,-5,-13,-17,2,2,14
7875,-23,-8,-4,-13,-20,-6,-4,-40
7880,-7,5,4,1,0,-2,-1,4
7885,-3,-12,0,6,20,3,2,-2
7890,30,-4,-13,-80,-31,-4,-4,16
7895,-6,-6,8,36,27,2,0,-1
7900,2,0,-6,-17,-33,-4,-4,-28
7905,20,6,-2,-13,-1,0,1,47
7910,-24,2,14,65,26,2,0,-5
7915,26,2,-15,-7,-16,-3,-1,-7
7920,-33,0,-3,-53,0,-1,0,-5
7925,-7,2,1,-44,-20,0,-1,-8
7930,28,-5,3,70,22,-2,0,-12
7935,-4,-9,-9,-82,-18,-1,4,38
7940,18,8,4,43,11,4,0,29
7945,-2,7,3,-5,-3,-1,-3,-22
7950,-2,-2,0,-13,-2,3,3,4
7955,-4,3,3,5,9,2,-1,-4
7960,-20,-8,0,13,7,-1,2,-5
7965,25,-24,-5,-19,-13,-4,-4,-9
7970,17,18,2,8,16,0,-1,3
7975,-40,-6,-10,-6,-27,-6,-4,-19
7980,-5,-3,8,35,16,0,-1,-5
7985,15,10,-5,-7,19,5,3,3
7990,-12,-3,1,-28,-18,2,3,12
7995,30,-6,5,1,-13,-3,-5,18
8000,0,-8,-10,30,25,1,2,-9
8005,-9,5,-2,-20,-43,-6,-3,-20
8010,0,-17,3,43,8,-1,-2,-2
8015,11,-13,2,-12,9,4,-1,-16
8020,-24,15,0,-41,-28,-3,0,2
8025,0,1,3,18,35,0,1,-11
8030,-7,-11,-21,-30,-30,-3,-2,1
8035,-17,16,10,12,21,3,3,44
8040,21,20,-1,-20,7,-1,-2,-8
8045,-21,-40,0,74,-6,-2,-3,-13
8050,12,27,-3,-70,-14,-4,-1,12
8055,-35,-34,-1,44,14,-5,-3,-41
8060,10,-7,7,14,9,2,-1,41
8065,10,34,-4,24,14,4,2,-4
8070,-31,-17,3,-4,11,-2,-2,35
8075,-13,-1,0,3,-7,1,2,-31
8080,7,1,-10,25,3,0,-2,7
8085,9,1,1,4,-12,-3,-4,-7
8090,8,-3,3,44,14,-2,-2,10
8095,-7,9,1,-1,6,0,-1,-19
8100,5,-4,8,-10,6,4,0,-33
8105,61,4,-3,-33,0,1,3,24
8110,-7,2,-6,-5,-19,-1,1,-6
8115,-43,1,4,33,-3,1,-1,1
8120,6,-4,2,-45,-1,1,2,18
8125,-22,-1,6,2,11,1,-3,-16
8130,-8,13,-5,6,-42,-6,-2,-7
8135,12,-23,3,13,21,2,3,5
8140,16,17,0,22,8,1,-1,-3
8145,-3,-6,1,-15,4,-1,-3,-46
8150,12,11,3,-3,17,3,2,42
8155,26,30,6,35,-12,-4,-4,18
8160,-22,-22,-5,-22,-15,-3,1,2
8165,35,-8,4,36,11,-3,0,3
8170,-17,-15,-1,44,20,2,-2,-27
8175,13,11,-5,-52,5,3,-1,-36
8180,-9,-9,2,19,-38,-4,-1,40
8185,-38,15,0,12,3,-3,-4,3
8190,4,8,0,18,23,3,0,-14
8195,0,-4,-7,-3,-20,-4,-5,2
8200,0,4,-2,-27,11,0,5,-7
8205,-23,-8,9,42,7,3,3,-7
8210,8,34,-1,-77,-27,-5,-1,7
8215,24,-30,-6,-34,6,0,2,-2
8220,-6,-13,-10,42,15,2,-2,12
8225,12,-1,-10,-87,-36,-9,-4,19
8230,-10,-5,-3,-43,9,4,-2,-27
8235,16,20,14,82,17,-2,-3,-3
8240,-50,-12,-7,-15,2,-7,-6,-7
8245,1,1,-2,-7,8,6,1,-21
8250,1,15,-3,17,-4,1,2,4
8255,7,-27,-8,-50,-22,-2,3,16
8260,40,-2,1,49,6,-1,-3,-31
8265,-17,9,4,-13,1,-4,-2,44
8270,2,-9,1,-11,-3,3,6,-5
8275,-7,11,6,-27,-26,-6,-4,-1
8280,0,6,-7,-56,16,-1,-7,-30
8285,7,-7,3,31,-7,5,9,14
8290,12,1,-8,-7,0,-5,-6,2
8295,-9,-17,-7,8,2,-5,-5,-16
8300,0,-3,8,53,2,3,1,-1
8305,-45,1,-7,-97,-4,0,-3,-17
8310,26,-8,-12,15,6,-2,3,-3
8315,5,17,0,10,-38,-2,1,28
8320,3,5,12,-9,23,-3,-4,6
8325,-13,-11,-6,41,13,1,-1,-25
8330,-28,-10,3,-11,-11,-1,0,-18
8335,-19,11,-13,10,19,3,-1,11
8340,6,-6,2,-24,-17,1,2,-19
8345,45,7,-6,-11,-10,-1,0,17
8350,-22,-20,14,9,27,-3,-5,-3
8355,3,-17,-7,-6,-4,-4,-3,-10
8360,-13,-8,-7,13,-22,-3,0,10
8365,16,14,-2,27,3,1,0,-13
8370,-50,-10,-9,-28,-6,-2,0,43
8375,11,7,18,102,24,-1,-4,-21
8380,-7,3,0,-15,1,0,-3,-5
8385,2,-21,-9,0,-16,-5,-3,-17
8390,8,7,11,54,16,7,4,18
8395,-4,8,-7,-23,-25,-4,1,13
8400,2,-7,-29,-64,-12,-2,-2,-10
8405,-33,5,9,30,19,1,2,13
8410,9,-9,9,27,0,3,0,3
8415,-2,-2,-8,-8,4,1,-1,-10
8420,-23,-9,3,2,10,-1,-3,-38
8425,28,21,2,-10,-2,2,1,31
8430,0,-37,-41,-26,-6,-1,2,-35
8435,4,4,10,-5,5,-3,-1,35
8440,-17,-10,-5,-18,-6,-4,-4,-20
8445,-9,5,4,40,16,3,0,-7
8450,25,13,11,6,-3,-4,-1,27
8455,-20,0,-6,-31,-5,5,0,-21
8460,9,8,-7,0,-24,-5,-2,16
8465,-7,-13,4,-3,23,-1,-3,8
8470,-1,5,15,25,-3,-2,-1,-12
8475,3,0,-6,-16,1,2,1,-10
8480,23,7,9,-20,-17,-1,-2,19
8485,24,-5,-13,0,6,5,3,-4
8490,-27,-13,1,44,3,-3,-4,-19
8495,-2,5,-7,-30,-18,-9,-6,-28
8500,-1,5,2,-26,6,5,5,32
8505,8,-7,-6,-5,-17,-6,-2,-2
8510,-15,-6,-3,20,1,-1,-3,-1
8515,21,7,1,11,21,9,3,-17
8520,-5,3,11,46,16,-3,-2,-1
8525,-13,-19,-3,-25,-19,-3,-1,8
8530,-11,-3,1,-7,-9,-3,-4,-32
8535,4,11,-2,-67,1,1,-2,28
8540,1,-2,3,57,4,-4,2,-22
8545,-3,0,-9,-22,-6,-4,-5,16
8550,8,6,0,11,8,-2,0,-33
8555,-5,18,6,37,8,5,7,26
8560,28,-11,-2,25,-4,2,-1,-4
8565,-33,8,4,-13,-4,-4,0,18
8570,12,-8,-3,-2,-8,1,-1,0
8575,18,7,-4,16,2,-8,-5,1
8580,-11,23,4,-22,-23,2,-1,-16
8585,-64,-20,-4,62,6,-1,-1,4
8590,33,11,0,-119,-11,-2,-1,9
8595,-25,-17,-2,47,16,0,0,-5
8600,17,2,-2,-40,-6,0,0,8
8605,-7,-18,-2,44,-1,2,-3,-34
8610,-2,1,-1,-11,-14,-6,-2,27
8615,-5,-4,-3,-25,5,4,1,-22
8620,3,-3,-4,-6,10,4,3,12
8625,9,11,2,9,-9,-9,-6,-19
8630,4,-4,1,-12,-4,-1,1,-4
8635,1,-18,-3,77,0,-1,0,-3
8640,-32,0,4,-51,9,2,-1,-11
8645,45,4,-1,20,31,-1,-3,-23
8650,-8,-1,-1,-34,-33,-5,-4,52
8655,3,-3,-1,-19,-16,-1,-1,16
8660,-11,-3,3,3,8,3,4,-29
8665,8,-3,-9,-20,-13,1,0,39
8670,28,4,-7,30,10,0,-1,-14
8675,5,4,2,-6,6,1,-2,-6
8680,-20,-2,8,79,25,1,-3,10
8685,14,13,4,-84,-23,0,2,-29
8690,6,-5,-3,67,4,3,4,13
8695,6,0,-3,-82,-1,-6,-5,5
8700,-17,2,-6,6,-8,-8,-5,-6
8705,22,-9,7,-19,16,1,0,3
8710,-14,19,-2,8,-22,-3,2,2
8715,-13,0,7,33,21,6,0,-15
8720,-12,0,-2,-5,-7,-4,-3,-16
8725,21,-19,2,-31,-10,3,13,56
8730,-33,2,0,8,20,-2,-3,-39
8735,15,-5,-12,-107,-47,-5,2,31
8740,13,-4,-2,31,-4,-4,-4,-12
8745,-24,9,8,57,26,-2,-5,-11
8750,0,-1,-1,-21,11,2,0,-10
8755,2,-1,2,21,-1,-1,-1,-9
8760,21,-2,4,-4,-2,2,1,10
8765,7,11,-1,-41,-41,-2,7,20
8770,25,-26,-25,-47,-22,-14,-12,-9
8775,-14,12,6,30,23,4,1,-13
8780,-5,-6,-8,-4,-23,-7,-3,10
8785,4,1,1,17,24,1,-5,-7
8790,6,-1,13,21,19,3,2,-4
8795,-12,-3,0,16,3,4,0,-3
8800,5,-2,-1,3,-10,0,5,40
8805,10,11,4,13,5,3,0,-7
8810,-5,4,-8,-22,-8,-1,0,10
8815,-1,-7,-6,22,-18,-7,-4,-4
8820,-22,-7,-17,-60,12,-1,-2,-9
8825,-16,1,-2,18,-11,-2,-2,-15
8830,2,3,11,12,28,8,2,13
8835,0,3,9,2,8,3,-2,-23
8840,45,-4,-11,-3,-43,-4,4,26
8845,-77,-9,-2,1,6,-6,-6,-11
8850,-6,10,4,34,35,2,0,-11
8855,-9,-11,-9,-74,-28,-9,-3,0
8860,3,-2,2,-8,8,-1,-2,-1
8865,10,9,-2,16,-1,1,-1,-6
8870,-18,2,8,23,1,3,-3,-9
8875,-5,-4,-3,12,2,0,3,-37
8880,39,5,11,0,7,3,4,47
8885,-4,2,-18,-47,-17,-7,-6,-30
8890,-2,-3,-3,-18,-35,-6,-3,0
8895,-12,-2,5,72,29,-2,-7,-13
8900,-11,-1,7,32,19,0,-5,-20
8905,4,-3,7,24,14,3,1,6
8910,10,-7,-9,-28,-8,-1,-3,-7
8915,-4,-1,-5,6,-6,2,5,-11
8920,5,21,-9,-51,-26,1,5,38
8925,-7,-14,-7,76,10,-9,-7,-2
8930,-13,2,2,-14,-2,2,0,2
8935,9,-3,7,35,13,-3,-3,6
8940,-3,-3,9,47,8,1,-2,-21
8945,0,6,-4,-59,-13,3,0,-6
8950,8,-4,-10,-13,0,6,5,8
8955,-5,-2,6,21,-25,-9,-5,15
8960,-22,-9,-16,-59,0,-8,-9,-23
8965,13,4,-2,3,1,-1,0,16
8970,1,-4,5,34,15,-5,-1,-9
8975,6,4,5,-6,5,7,4,16
8980,-10,-2,-1,12,4,1,-1,-33
8985,11,-3,0,-16,-7,-1,-1,30
8990,3,1,13,16,23,3,2,0
8995,-2,-3,-9,-71,-68,-8,-5,-31
9000,19,-4,-19,77,-10,-7,-5,27
9005,-23,8,4,16,12,3,2,-15
9010,14,-1,14,30,26,-3,-1,12
9015,1,4,-5,-27,6,4,2,30
9020,-10,-1,2,-26,5,5,0,-38
9025,-10,-5,-3,17,-13,1,2,23
9030,-29,-5,-4,-10,-12,0,-1,-3
9035,11,3,-5,-26,3,0,1,-7
9040,7,1,3,49,18,-4,-2,-3
9045,-10,-2,-1,24,-38,-3,-3,-19
9050,-6,-3,-1,-6,-1,-2,0,-6
9055,-3,-8,-2,6,21,2,-1,-15
9060,4,7,0,6,4,2,3,22
9065,8,-4,4,-54,-7,-3,-1,-15
9070,14,0,-5,12,-12,-1,-1,10
9075,2,1,-5,14,7,1,-2,-14
9080,-25,0,5,-56,-10,-1,-2,-23
9085,18,-6,0,14,0,2,0,50
9090,13,8,-14,-34,-18,-10,-1,-14
9095,17,5,5,59,27,-5,-3,36
9100,-48,8,2,8,-16,2,2,-2
9105,9,2,1,-54,-3,2,1,-20
9110,-14,-5,-5,51,16,5,-4,-9
9115,17,-3,-5,-20,-7,-3,-2,-44
9120,32,-8,-9,-35,-33,-1,2,90
9125,-18,8,3,0,17,-2,-5,-13
9130,-7,0,6,3,1,1,0,2
9135,2,-2,0,35,9,-1,-2,-3
9140,-12,-7,-2,-13,10,1,-3,-25
9145,-5,2,4,-15,4,0,1,-6
9150,19,-1,5,-27,-4,-1,-1,12
9155,-16,7,0,-7,0,1,-1,13
9160,-27,11,5,44,-4,-1,-5,-47
9165,47,-4,-8,-25,-27,-6,-2,56
9170,-14,4,1,18,1,0,1,-15
9175,4,-2,2,-36,-7,0,3,6
9180,0,0,6,8,28,3,0,7
9185,-7,-3,7,50,-1,-2,-6,-55
9190,4,-11,-18,-85,-13,-4,-3,29
9195,-16,2,-7,55,-3,-3,-4,20
9200,20,-2,4,11,50,4,-1,-14
9205,-2,-1,3,10,-17,1,4,-14
9210,3,7,2,-10,-15,0,0,3
9215,9,-5,8,-39,-8,-1,2,6
9220,-10,-9,-4,-23,-2,-2,-3,-3
9225,1,1,-1,-16,16,3,-1,-3
9230,-17,0,-7,39,-11,0,-3,-14
9235,25,-17,5,33,10,-4,-3,9
9240,-29,6,10,17,-16,-1,1,11
9245,21,-11,-11,-19,18,0,-2,-5
9250,-15,13,2,-23,-18,-3,-2,-21
9255,12,-3,0,-3,9,3,3,12
9260,13,-3,9,26,-6,1,2,-22
9265,-28,1,-11,3,4,-4,-4,11
9270,16,-19,-6,-65,5,-3,1,-15
9275,-11,5,0,16,-8,3,2,18
9280,-3,0,-5,16,-6,-5,-3,-6
9285,41,6,3,24,0,-1,1,0
9290,-52,-6,-4,-1,8,3,-1,-12
9295,-5,9,-1,-26,1,3,1,0
9300,7,-4,7,42,9,-4,-4,-6
9305,0,-8,-20,-55,-7,-4,2,-8
9310,40,-3,8,46,11,0,2,51
9315,-25,-1,-3,-71,-20,-1,-3,2
9320,2,-3,-7,-40,-21,-3,-2,-6
9325,-10,4,7,26,28,3,-1,-13
9330,8,-4,-1,24,-20,1,-2,2
9335,-21,3,3,21,13,-2,-4,-42
9340,28,-3,-8,-13,-1,-3,-1,15
9345,-17,-14,-14,-26,0,-2,-1,-37
9350,16,2,2,-8,4,1,6,70
9355,0,0,0,10,-6,2,-1,-9
9360,-1,5,2,14,2,-3,-5,-33
9365,1,2,3,29,-2,0,-3,5
9370,-54,-9,-5,10,2,0,2,-18
9375,27,6,-2,12,9,0,1,23
9380,-3,-9,-8,-4,-3,-3,-2,0
9385,-3,19,-1,-96,-6,3,0,6
9390,5,4,8,93,25,-5,-6,-27
9395,-12,4,6,35,6,2,4,26
9400,2,-11,-4,-1,3,4,3,6
9405,-21,5,8,-2,-3,-3,2,0
9410,14,-1,-2,-30,-19,-3,-3,-12
9415,-27,-3,-20,-37,-11,-1,-1,-8
9420,8,1,10,39,13,-2,2,11
9425,15,-17,2,15,10,-2,-5,6
9430,-54,-5,-2,-49,-6,-2,-5,-31
9435,39,3,4,32,9,-3,-1,29
9440,-24,-6,-5,-34,-24,-3,-2,-3
9445,4,1,-3,36,6,-1,-5,-3
9450,22,3,-2,-20,15,1,0,-2
9455,-5,-8,6,-24,-31,-3,-2,-23
9460,-13,1,-13,-53,-10,-5,0,10
9465,5,-7,5,22,7,-3,-1,4
9470,0,17,2,3,1,0,-2,5
9475,30,-5,-4,23,9,-1,-5,-29
9480,-47,1,-14,-56,-8,4,2,32
9485,44,35,21,47,-1,-2,-2,-11
9490,-45,-4,-40,8,15,0,-4,-22
9495,6,-21,-1,64,24,2,4,6
9500,8,9,-7,-59,-39,-3,-2,4
9505,-34,-21,0,41,17,5,4,19
9510,62,14,8,3,-16,-6,-3,7
9515,-22,-1,-4,16,3,-1,-4,-26
9520,9,9,6,44,19,-1,0,16
9525,-6,-6,-3,-48,-16,0,2,17
9530,15,6,18,31,-3,-1,1,9
9535,-21,-3,-6,-47,-16,1,1,3
9540,26,-12,2,-3,17,-1,-6,-30
9545,-33,11,9,28,-4,-1,-1,-10
9550,8,-12,-4,18,-3,-3,1,12
9555,-37,6,7,4,2,2,0,-6
9560,10,3,4,-66,-8,-1,3,-3
9565,11,-20,-19,12,3,0,0,3
9570,-36,-23,4,-15,-20,-3,-2,-4
9575,-4,15,-2,-30,13,-3,-1,7
9580,14,-8,4,60,13,3,1,-7
9585,-1,3,-1,-10,-10,0,0,2
9590,-2,-4,-4,-67,-4,-3,-4,-12
9595,-15,-6,-7,19,4,1,0,0
9600,19,2,-5,-37,2,1,-3,0
9605,-1,-3,-4,4,18,0,-3,-28
9610,2,6,5,5,-14,2,4,29
9615,6,4,-2,-8,-12,-2,0,3
9620,-2,-2,2,33,11,1,0,3
9625,-10,1,-2,-40,-18,-2,2,9
9630,6,-6,-2,-7,-3,1,-1,-29
9635,-12,-10,-5,23,26,-5,-7,12
9640,71,24,6,36,-1,1,2,6
9645,-39,5,4,24,-15,1,-3,-28
9650,10,-31,11,-9,10,0,-2,23
9655,3,-1,-14,-38,-15,-1,2,-19
9660,-10,-12,-3,19,13,0,-2,-11
9665,8,9,2,24,22,-2,-3,12
9670,7,21,7,31,7,5,1,-11
9675,-8,-7,0,-30,-20,-3,-1,-4
9680,-16,-10,5,60,13,-2,-1,1
9685,5,0,-22,-66,-27,-1,1,10
9690,-5,2,8,5,9,0,0,-8
9695,30,5,10,-4,-12,-4,0,-7
9700,-17,8,-5,8,5,0,-2,17
9705,7,-4,-15,-30,-18,-6,-3,-17
9710,12,-6,-2,-25,-4,-1,-1,6
9715,-4,6,3,-3,15,4,-2,-10
9720,-8,-7,8,52,-13,-5,3,-4
9725,15,-9,-3,-77,-16,-4,-3,-21
9730,-22,12,-15,46,15,-3,-6,39
9735,4,-7,7,-24,-17,-1,4,-2
9740,0,-1,3,-6,6,4,0,-9
9745,21,-4,4,27,4,1,2,7
9750,-17,51,2,-9,-4,-2,-3,-28
9755,-28,-32,-2,-22,-8,-5,-5,0
9760,-13,5,-6,-9,-11,2,-2,-17
9765,8,-9,19,27,11,-3,-3,14
9770,-14,-14,-10,20,17,0,0,-32
9775,40,25,10,71,10,2,3,35
9780,-51,-6,-15,-111,-56,-10,-5,-15
9785,-11,-8,-2,26,24,5,2,8
9790,28,-4,1,3,8,-1,3,4
9795,0,1,-4,-17,-13,-7,-5,9
9800,11,-23,1,24,14,4,-2,-49
9805,-18,13,3,2,-13,-1,3,65
9810,29,-20,-6,-15,-6,1,8,22
9815,-16,7,-4,-10,9,3,-1,-11
9820,12,13,8,-15,5,2,0,-4
9825,1,11,2,76,-1,-2,-3,-13
9830,-15,-12,-3,-28,5,-7,-7,-7
9835,-3,-2,-8,-37,-24,0,2,0
9840,44,-4,1,-8,5,-3,0,22
9845,-34,-4,-6,-33,-7,7,1,-23
9850,-3,-2,10,92,36,-1,-4,15
9855,5,6,-2,-55,-27,-11,-8,-4
9860,-40,-10,-8,15,13,-1,-2,-2
9865,28,4,11,45,15,5,0,0
9870,7,11,-1,-62,-30,2,5,-11
9875,0,0,0,17,13,5,1,-1
9880,7,0,5,13,30,0,2,9
9885,-4,-9,-22,7,-62,-10,-3,-8
9890,-4,-5,-8,-40,-27,-2,-3,7
9895,8,2,6,59,24,-1,-5,-9
9900,-8,-8,-10,15,18,-1,-2,-7
9905,4,15,15,-31,27,7,2,4
9910,12,-8,-2,-5,18,0,-1,-7
9915,-19,-8,2,2,-45,-3,0,-1
9920,-27,7,-6,1,-4,-3,-5,-1
9925,-5,-3,-1,-45,6,1,3,-6
9930,-13,-3,0,13,-11,-1,-4,-19
9935,11,-25,-6,-34,24,6,2,1
9940,4,10,4,22,0,2,-2,8
9945,4,-6,-5,-28,-10,-11,-6,6
9950,-25,-10,2,-14,-5,4,-2,-18
9955,41,6,3,31,2,-1,6,7
9960,-23,-5,-10,-17,-25,-2,-1,8
9965,28,22,2,39,21,0,-3,1
9970,-13,-26,7,0,5,2,-2,-28
9975,-10,0,-14,-34,-31,-6,-2,1
9980,10,1,-9,-51,-12,0,4,15
9985,32,1,12,8,4,-2,-1,-8
9990,-17,26,2,21,-11,-3,-1,6
9995,-70,-3,-2,72,26,-2,-6,-19
10000,34,26,7,-27,-19,3,6,22
10005,-16,-35,-4,8,5,-2,-5,-40
10010,29,-3,2,16,-9,1,3,33
10015,8,0,0,8,23,6,0,5
10020,-4,-9,-11,28,-20,-11,-9,-11
10025,-34,-3,-6,-45,9,1,-1,-10
10030,27,4,-17,6,-6,-7,-3,-1
10035,22,8,5,-49,-2,1,-4,6
10040,-21,-4,15,13,5,-1,1,-24
10045,5,4,-9,1,3,2,3,18
10050,3,1,-5,-55,-18,-5,-3,10
10055,11,3,2,31,0,-2,1,2
10060,-20,-4,11,6,19,1,-2,-1
10065,7,-11,-10,-18,3,1,0,0
10070,-30,-6,-4,12,-23,-3,-1,-10
10075,4,6,16,11,26,4,-1,-10
10080,21,24,-3,17,3,-2,0,13
10085,8,-33,-12,-2,-13,-4,-1,9
10090,-39,-15,4,25,9,2,1,0
10095,-10,-1,-9,-34,-16,-4,1,-4
10100,19,-8,-9,19,-15,-3,-3,4
10105,-2,5,2,16,45,0,-2,-5
10110,28,13,7,39,10,2,0,2
10115,-16,-12,-2,-4,9,0,-1,-4
10120,-7,1,13,-35,4,2,3,3
10125,29,5,-4,31,1,-2,-2,-14
10130,12,-8,-6,-66,-49,-7,0,-4
10135,-14,2,-7,-14,-13,-1,5,3
10140,9,-2,-8,-20,2,2,-2,-66
10145,-2,3,6,50,-1,-4,1,90
10150,-23,4,8,43,26,4,0,0
10155,13,-4,-7,-35,-17,-3,1,-16
10160,-25,-13,-8,-31,-2,0,-3,-1
10165,-5,0,7,6,-11,2,-1,-13
10170,18,19,15,34,32,7,3,1
10175,-31,-6,-27,-64,-17,-7,-8,1
10180,-3,-16,-2,24,14,-1,3,6
10185,-11,20,5,-60,-33,-2,-2,-14
10190,-6,-14,-3,51,28,-6,-5,7
10195,17,19,11,37,18,1,0,-5
10200,1,-5,-9,0,-2,1,-2,16
10205,-9,-4,-1,-42,-16,2,2,-7
10210,1,11,-11,-34,-14,-5,1,-21
10215,26,-1,8,80,-2,-2,-2,22
10220,-11,-7,-4,38,14,0,0,4
10225,0,-3,4,-11,-10,0,-1,-11
10230,-6,-12,1,-42,-10,-1,-4,-7
10235,-5,5,1,-3,23,5,2,10
10240,15,0,11,22,-37,-6,-3,2
10245,8,9,-12,25,-2,1,-4,-11
10250,14,-3,4,-2,13,-2,-3,-39
10255,11,-4,1,35,0,1,4,38
10260,-39,2,-1,-10,4,-2,-6,-13
10265,36,0,8,-29,7,0,6,-15
10270,16,-15,-7,-7,-16,-4,-5,13
10275,-9,2,-9,-37,-1,-3,-3,-12
10280,15,13,-3,6,12,2,1,1
10285,-17,-12,12,52,-4,-7,-3,2
10290,-16,-1,-2,1,-3,2,1,5
10295,1,-1,4,-27,-13,-2,-4,-11
10300,-5,-11,4,-9,5,4,2,3
10305,-13,4,-11,70,-1,-9,-6,8
10310,16,8,-3,-47,-15,1,-1,0
10315,-19,-6,-6,-25,-3,-4,-2,3
10320,15,0,10,11,9,0,-3,-54
10325,-32,-1,-3,-6,-3,1,1,68
10330,28,2,10,-3,13,6,0,3
10335,8,-6,-5,35,9,1,2,-23
10340,17,-2,-28,-75,-57,-14,-9,7
10345,-14,-31,0,-31,10,2,-2,-41
10350,-15,0,0,12,1,-3,0,8
10355,-2,1,8,15,23,5,-2,2
10360,11,0,0,1,11,2,1,-5
10365,-1,15,14,-9,-3,3,1,-9
10370,-20,-5,-25,-35,-19,3,3,26
10375,-9,-10,-3,4,3,-7,-6,-46
10380,8,7,7,-23,1,1,2,34
10385,-6,1,-18,-79,-36,-6,-3,-12
10390,1,5,13,84,46,1,-1,5
10395,-3,2,-2,16,-1,-3,-4,-16
10400,-7,-1,7,-25,4,-2,-1,34
10405,-18,0,9,75,35,10,1,-16
10410,43,4,-15,-124,-75,-8,2,7
10415,13,-13,-6,-2,6,-2,-3,8
10420,-20,11,5,51,15,1,-4,-26
10425,19,-4,-7,6,13,0,3,8
10430,-13,8,2,-12,10,2,-3,-25
10435,-4,-1,0,-35,-33,-6,-1,46
10440,30,-7,1,15,27,3,1,-18
10445,-39,-10,-13,-16,-9,-5,-7,-17
10450,1,22,6,-22,-2,1,8,22
10455,16,0,-8,17,-1,0,-2,-8
10460,-6,1,3,58,7,-2,1,-2
10465,15,-3,1,-44,-10,-7,-6,2
10470,-4,-1,10,67,20,2,-3,-1
10475,-40,-14,-18,-58,-1,3,6,-9
10480,49,-5,-16,-60,-24,1,1,41
10485,4,4,6,56,13,3,2,-17
10490,-11,-11,-10,-47,-4,1,-2,6
10495,-9,27,15,12,-12,-3,-2,-5
10500,-9,1,7,40,28,0,0,1
10505,-6,2,4,-2,-9,2,3,0
10510,3,-10,2,-31,7,-3,-4,-14
10515,15,-5,-17,19,-12,-4,-3,7
10520,-32,-5,-1,2,-9,0,-1,3
10525,-8,7,4,-32,-5,0,1,-24
10530,7,1,6,57,20,2,3,36
10535,11,-4,9,-14,-26,-2,-4,-8
10540,18,-5,-2,24,-6,-3,-4,-12
10545,-27,2,3,14,11,4,-2,-7
10550,-13,-10,-3,67,-3,-6,-7,-52
10555,-38,10,9,-35,0,3,9,23
10560,32,-4,0,-3,5,2,2,5
10565,2,3,6,13,2,-4,-2,13
10570,6,0,-11,-39,-12,-3,-3,-25
10575,-2,3,6,44,14,2,-3,-23
10580,-28,-7,1,7,8,0,2,19
10585,35,8,0,16,4,-1,-1,2
10590,-51,-14,-1,-22,-19,-6,-2,-5
10595,41,-1,-17,-17,-5,2,3,32
10600,-6,-1,3,-12,-7,-3,-2,-7
10605,-6,-2,-3,17,14,-1,-3,-8
10610,7,2,5,22,8,3,1,18
10615,-6,1,9,-3,-6,2,-3,-18
10620,-5,-6,7,84,31,-1,-3,-9
10625,1,-4,-16,-86,-38,-7,-4,16
10630,5,-4,-11,83,6,-1,-1,-19
10635,2,-7,-4,-82,-6,-3,-4,6
10640,-17,5,1,17,16,2,4,8
10645,6,-2,2,-45,-16,-4,-3,-27
10650,5,6,-6,-38,-2,0,0,40
10655,4,-2,9,58,8,0,-3,-25
10660,-21,-2,-3,-57,1,2,2,1
10665,-3,-8,-13,36,1,-2,-1,63
10670,6,6,6,52,8,-2,0,-5
10675,1,1,0,37,9,-2,-1,-5
10680,-9,7,1,-49,-18,-2,-2,-12
10685,18,-3,4,36,17,6,3,-16
10690,19,8,8,-1,5,1,0,9
10695,-46,-6,9,9,-3,2,5,12
10700,9,25,-8,-54,-24,-5,-2,1
10705,13,-12,1,15,11,0,1,10
10710,-26,-5,-1,50,20,0,-2,-15
10715,21,12,7,4,5,0,-5,-15
10720,-5,-2,2,-6,-4,3,2,-2
10725,-14,5,-1,-14,-20,-1,-1,-11
10730,10,2,4,-42,3,5,2,-16
10735,19,-7,-2,4,-10,-9,-2,25
10740,-16,-17,-20,-21,-10,-6,-6,-5
10745,1,9,5,-14,-8,0,-1,3
10750,-4,-6,2,15,9,-1,-1,-12
10755,21,-2,-4,-30,-10,1,2,1
10760,-17,15,6,48,12,1,2,-3
10765,-10,-11,1,4,22,0,-1,-15
10770,9,-3,-14,-88,-65,-7,-6,-15
10775,6,-1,-2,-3,9,0,0,21
10780,5,-5,-7,-75,-15,0,0,-21
10785,6,0,-5,-18,-1,-1,3,26
10790,-8,-1,-3,-26,-2,0,-1,3
10795,15,-3,-1,13,-12,-5,3,-5
10800,2,-5,5,61,30,4,-1,-2
10805,6,4,-1,23,-7,-4,-1,12
10810,-24,-4,-9,-43,13,4,-3,-6
10815,23,-8,-11,-3,-26,-7,-4,-10
10820,-11,-7,9,23,11,-1,-1,9
10825,-13,4,6,19,3,-2,-4,-34
10830,20,3,-1,9,-1,1,4,11
10835,-28,-7,-19,-95,-12,-5,-6,42
10840,10,2,5,-29,-10,0,0,-5
10845,-5,-3,4,52,18,3,0,-17
10850,5,-2,-2,-44,0,-5,-2,9
10855,-23,-4,5,12,15,8,2,-22
10860,26,1,-10,29,-10,0,0,-2
10865,-19,5,-8,-66,-20,-5,-4,-4
10870,-4,0,9,19,-4,-3,1,20
10875,-15,-1,-7,34,29,5,2,-30
10880,37,0,9,15,-7,-1,3,43
10885,-6,-4,1,-4,-17,0,-3,-10
10890,29,0,-10,22,0,1,0,-14
10895,-3,5,16,14,0,0,-4,-5
10900,-8,-9,-9,-23,1,-1,5,-8
10905,-1,0,-4,3,3,1,0,-1
10910,9,2,4,-1,-1,2,0,5
10915,2,-6,11,27,12,-1,-5,3
10920,-12,9,-3,45,0,-1,-5,-19
10925,10,1,-3,-49,-9,-7,-3,-6
10930,-21,-7,-6,-76,-9,0,2,10
10935,6,5,-3,80,12,1,-1,0
10940,-5,1,6,-13,8,-3,-3,-29
10945,19,-7,-3,29,-8,2,1,15
10950,-28,1,1,38,1,0,1,36
10955,3,1,-2,-12,6,-1,-2,-11
10960,-23,-6,-4,8,-11,-6,-5,-5
10965,4,9,1,-41,11,4,2,-20
10970,-6,3,-6,31,0,-2,-2,2
10975,3,-8,-1,32,9,1,1,9
10980,8,-5,-1,-86,-21,3,4,21
10985,-12,-5,-6,27,12,-4,-5,3
10990,3,4,4,-29,-22,-2,2,-8
10995,-11,3,1,37,30,0,-2,-7
11000,-7,-9,-12,-26,-22,-4,-3,-11
11005,3,3,0,9,6,1,-1,16
11010,16,-3,3,25,8,-3,-2,-9
11015,-3,9,7,-27,-20,3,5,1
11020,3,-2,10,37,22,3,0,5
11025,2,-1,-6,-2,7,1,1,2
11030,-9,-11,-12,10,-9,-4,-7,-38
11035,0,0,0,-85,-18,-4,-2,67
11040,-14,-6,-4,58,5,-1,-3,-16
11045,-7,0,14,1,-8,0,0,-11
11050,4,4,9,54,38,4,3,3
11055,-7,6,-8,-27,-22,-5,-4,-38
11060,5,-4,0,15,-4,-2,-2,-8
11065,1,-4,-4,-4,6,-2,-1,3
11070,-1,3,4,-6,-12,2,0,11
11075,0,-7,-7,-52,-1,-1,-4,-18
11080,14,12,9,-7,3,3,1,7
11085,-23,3,-5,23,-24,-5,0,-13
11090,17,-5,-3,-15,-1,-1,1,-2
11095,0,-2,-2,16,4,-2,2,-8
11100,-6,1,-2,13,4,0,-4,7
11105,2,-2,4,49,24,0,-3,3
11110,-4,0,2,5,2,2,0,1
11115,-5,2,14,15,14,3,0,4
11120,40,9,-5,1,-5,1,2,7
11125,-52,-5,-11,-60,-6,-4,-4,-2
11130,-3,-5,-1,10,5,-3,-3,1
11135,-5,-4,-10,4,-17,-6,-4,-41
11140,-3,0,5,-16,3,0,1,27
11145,21,-1,6,4,-7,5,2,13
11150,-23,4,2,-4,2,-3,-2,-8
11155,12,-2,-1,21,-7,-4,1,-3
11160,6,-2,-1,-74,-7,3,-1,-43
11165,6,-3,-4,24,7,-6,-3,0
11170,8,-2,-2,27,-5,-2,-2,37
11175,12,-9,-4,-2,3,1,1,-11
11180,-49,-6,-2,-7,-23,-7,-5,2
11185,5,-5,0,-14,-10,2,0,-15
11190,4,4,7,-13,7,0,-2,-7
11195,20,3,-3,62,7,2,-1,15
11200,-25,-8,-1,-66,-12,-5,-1,13
11205,-3,2,-5,7,-1,0,0,-3
11210,2,-5,-5,3,-2,1,2,-9
11215,0,5,0,-64,-9,6,4,25
11220,0,-1,5,44,32,0,-4,-2
11225,10,-1,6,29,11,-1,2,-2
11230,-1,-3,0,-10,1,-1,-2,-6
11235,-43,1,-10,-16,14,-8,-7,-17
11240,26,-5,-6,2,-53,-2,1,-23
11245,2,-12,-5,5,1,0,3,55
11250,16,4,0,-3,0,1,3,58
11255,-6,2,4,-3,4,6,4,-8
11260,-4,-4,-7,-33,6,-2,-5,-6
11265,-4,1,11,5,-1,-4,-2,-20
11270,18,-5,-3,37,-2,-4,-5,-14
11275,-28,1,2,58,18,0,-3,-22
11280,44,-6,-16,-29,-8,-2,7,88
11285,15,6,-3,-18,-11,2,0,-13
11290,-18,-3,-3,-11,8,1,-4,9
11295,12,-6,2,-7,-15,-4,-1,11
11300,-3,9,5,43,-8,-3,-4,-24
11305,-8,-8,-1,-6,18,1,-1,-4
11310,16,-2,0,12,16,-3,0,-12
11315,-19,-2,2,2,-30,2,0,2
11320,-15,-2,-5,-58,-21,0,-4,-16
11325,10,-5,-12,1,-14,-8,-5,-4
11330,-21,5,0,16,5,3,0,-30
11335,9,1,3,20,15,-3,-2,9
11340,-1,-4,12,65,32,2,-1,0
11345,-2,7,-9,-34,-6,3,1,-3
11350,-3,2,2,-6,-17,-1,1,-7
11355,11,-2,-9,-77,-15,-2,1,-14
11360,-2,1,2,32,3,-2,-1,21
11365,-6,0,-8,-4,13,4,2,-16
11370,-14,-9,-3,-8,-19,-4,-2,5
11375,11,-7,-3,-26,-19,0,-1,25
11380,18,10,4,80,56,-1,1,-18
11385,-5,1,6,-66,-23,0,0,5
11390,-12,-3,1,6,3,-5,-1,-1
11395,19,1,-8,18,-1,-1,-5,-13
11400,-21,2,5,-33,-9,1,3,7
11405,3,-5,-9,5,-4,-1,1,-9
11410,-9,-2,-5,-56,-21,-1,-2,-7
11415,1,-1,9,40,41,-2,-3,-8
11420,5,-4,-13,-21,-22,-2,-1,2
11425,-54,-1,3,6,4,-3,-3,-15
11430,11,-4,-8,-21,-35,-5,-5,-1
11435,-1,-1,-2,4,6,-2,1,7
11440,-10,-4,4,13,6,1,0,-12
11445,21,-1,-9,-17,-6,4,4,7
11450,5,4,2,54,18,1,-2,-9
11455,-12,-3,-2,-3,7,-4,-2,3
11460,-3,-7,-9,-85,-38,-8,-6,-36
11465,-13,-5,0,57,12,-2,-1,3
11470,20,18,5,-34,3,0,3,37
11475,0,3,3,25,0,5,1,-26
11480,3,0,2,3,5,2,2,44
11485,-4,-4,-3,14,11,-1,-3,-11
11490,-7,-6,-2,56,-3,-4,1,0
11495,31,4,-1,-10,3,-1,-1,10
11500,-44,-3,-1,-4,5,1,-5,-12
11505,18,6,14,8,8,0,-2,0
11510,-29,-3,-5,8,-3,0,-3,-58
11515,18,-1,2,-9,-10,2,5,53
11520,9,-3,-4,29,-15,-6,-3,41
11525,22,11,12,16,19,2,3,-2
11530,1,6,12,16,9,3,-1,-12
11535,-31,-9,-12,-29,-53,-10,-4,-14
11540,-13,2,-2,7,13,3,1,-29
11545,56,-8,2,24,7,0,1,45
11550,-25,5,2,-28,6,0,-2,-15
11555,-7,2,7,46,12,3,5,19
11560,-3,5,1,1,0,2,-1,-33
11565,-1,1,-8,-18,-22,-6,-3,-15
11570,19,-6,-4,-7,29,6,4,22
11575,-6,-5,-4,-7,-23,-3,-3,4
11580,-31,-1,4,-7,7,-4,-1,-13
11585,-34,-7,-3,11,-4,-1,-4,-21
11590,46,2,0,12,17,1,1,11
11595,-11,0,-8,-67,-4,-1,0,-9
11600,27,3,10,40,6,-2,0,16
11605,-10,-1,-1,-26,-11,0,1,-5
11610,-9,-2,-3,25,13,0,0,-4
11615,8,-14,-1,-29,-15,-3,-3,4
11620,-7,-1,3,20,0,-4,-2,-15
11625,39,-1,-2,20,-3,-4,-2,6
11630,-5,-2,1,-43,-27,3,0,14
11635,-4,4,-5,-18,15,1,-1,-3
11640,2,-8,-12,-59,-14,-3,-3,1
11645,-32,-2,-9,53,15,-4,-5,-47
11650,34,2,6,-22,2,3,5,52
11655,-6,-3,-5,15,-8,-2,-2,-3
11660,8,13,4,-20,1,7,3,8
11665,0,-2,-7,-22,-33,-3,-1,-7
11670,-13,4,1,34,10,-5,-7,-23
11675,7,6,2,1,19,1,3,-8
11680,9,-9,-6,21,-9,-3,-3,-4
11685,-16,-5,-5,-54,-6,-2,-4,8
11690,-4,-8,-7,-14,-17,2,2,-12
11695,-17,1,7,49,6,-4,-2,19
11700,6,2,-2,24,17,-1,-4,-20
11705,-4,-3,-3,-71,13,1,0,51
11710,-8,0,-11,-24,-40,-9,-5,-21
11715,3,9,3,-14,-1,3,0,-9
11720,-5,-10,1,42,17,-1,-4,-4
11725,1,5,9,16,-4,1,1,-10
11730,-11,-5,-6,-27,10,-2,-5,3
11735,0,-5,5,7,-1,-3,1,19
11740,-5,-2,-5,-8,-14,2,6,28
11745,16,17,4,-10,-19,2,1,9
11750,-31,-1,8,87,37,-6,-6,-21
11755,19,-3,-6,-8,-9,-3,-6,-12
11760,-2,-1,2,12,19,3,1,0
11765,4,-3,-5,-25,-11,-2,-1,-4
11770,-9,-3,-7,-16,-23,0,3,-2
11775,5,1,-4,11,23,0,-4,-16
11780,-3,-2,0,-15,5,-1,-2,-2
11785,16,0,7,3,-25,0,2,17
11790,2,-9,6,56,9,-4,-6,-18
11795,0,-2,-14,-23,18,0,2,-23
11800,1,8,2,-17,2,1,2,52
11805,-43,-12,-9,54,3,0,-2,-19
11810,24,7,-10,-52,-27,-1,0,8
11815,-27,-2,9,23,24,4,0,-3
11820,7,0,-1,12,-19,-5,-3,-26
11825,11,2,5,19,25,1,1,3
11830,-12,-3,-1,-1,8,1,4,18
11835,24,-1,-2,-25,-13,0,-2,-4
11840,7,8,5,7,-1,0,0,-5
11845,-11,-7,-9,-25,-9,-4,-6,-7
11850,-20,-5,-7,-27,6,2,0,-35
11855,1,7,9,61,2,-1,1,18
11860,-9,-4,-11,-72,-4,0,-2,-15
11865,14,3,9,43,10,0,-1,-21
11870,1,-2,-10,-29,8,0,0,18
11875,-12,2,0,-48,-29,-1,0,-7
11880,27,-15,-3,44,7,1,2,8
11885,-26,20,1,21,9,0,-2,-21
11890,10,1,5,11,16,5,3,16
11895,-7,-2,5,52,-12,-5,-5,-2
11900,11,0,-13,-67,-16,-4,-1,1
11905,7,-2,-3,-18,20,0,-2,2
11910,-33,-6,9,46,-7,-1,-1,-2
11915,-12,-1,-6,-34,-9,-3,-4,-13
11920,-1,-4,-3,-16,-6,-2,2,21
11925,11,-3,5,-2,11,1,-2,8
11930,6,3,-9,-19,-5,-3,-1,1
11935,9,-4,7,12,-2,3,3,-15
11940,-14,-2,3,10,-2,-2,2,2
11945,4,-5,-5,-17,-24,-5,-4,4
11950,4,3,8,40,28,4,0,-8
11955,-2,0,2,-4,17,0,-3,4
11960,0,-8,-9,-16,-7,1,-1,-6
11965,-12,0,1,-7,-11,-2,-1,-16
11970,-8,-2,1,-11,-1,-4,-2,24
11975,-1,1,-2,14,-15,4,2,-1
11980,-8,1,8,10,37,-1,-3,-8
11985,-4,-11,2,29,-2,5,2,0
11990,1,9,0,8,-5,-9,-5,-15
11995,9,-3,-6,-14,5,-1,-2,3
12000,-20,3,-4,-40,-16,0,-3,-14
12005,-8,-3,1,2,18,2,2,13
12010,35,-2,0,4,-48,-2,3,22
12015,-9,-3,-1,15,9,-2,-3,3
12020,14,1,3,24,-4,-1,-3,-12
12025,10,1,-2,-14,17,0,-2,0
12030,-32,-5,4,-6,-11,0,-5,-60
12035,-5,0,-13,8,12,1,2,69
12040,2,-4,-16,-49,-34,-6,-6,-11
12045,-13,-5,-7,22,9,-3,-1,-8
12050,19,2,9,60,37,1,1,8
12055,-37,-2,-2,-15,-19,-7,-3,-26
12060,29,-2,1,33,-5,2,-3,-7
12065,10,-3,-4,-36,-9,0,0,16
12070,1,-1,-2,-46,-9,2,2,-21
12075,6,2,5,9,17,1,0,8
12080,0,0,-10,-16,-23,-5,-2,3
12085,6,16,2,-40,-7,-2,2,-4
12090,-1,-7,5,60,39,-1,-3,9
12095,5,0,2,10,5,-1,-2,-10
12100,-17,-1,-2,9,2,-1,-1,-5
12105,4,-8,-5,-31,-14,-1,-3,0
12110,10,10,11,-34,2,3,4,10
12115,7,-6,-3,21,-12,-2,0,-11
12120,6,-7,-4,-8,14,-3,-4,-10
12125,-36,4,6,-14,-6,-4,-2,-29
12130,26,0,-4,35,18,5,1,76
12135,-17,-2,3,-63,-28,-9,-4,-21
12140,10,5,5,31,9,4,2,-5
12145,-4,0,-5,0,-6,-3,-1,7
12150,-4,-5,-4,-19,-10,-2,-4,-37
12155,6,0,1,8,6,3,3,9
12160,-13,0,0,29,-7,-2,-1,31
12165,16,-2,-7,-38,-11,-2,-2,2
12170,-6,1,8,40,21,5,5,-11
12175,4,-1,0,-15,-11,4,-1,-13
12180,6,-3,0,20,16,-5,-1,-9
12185,-8,-9,-2,-39,-41,-9,-6,7
12190,12,1,-9,-50,-14,-1,-3,-8
12195,-7,-5,-5,16,16,-2,-2,-6
12200,-3,9,12,63,18,4,2,-38
12205,30,-4,-1,39,8,5,4,35
12210,-12,4,-11,-65,-26,-4,0,23
12215,-16,0,2,27,4,-6,-3,-13
12220,4,-2,6,-12,1,3,1,-4
12225,-4,-3,-3,55,-4,-3,-1,-7
12230,-16,-6,-1,8,10,2,3,-17
12235,9,4,0,-12,-27,-4,0,-2
12240,9,-3,-15,-59,-11,-3,-2,5
12245,-16,6,10,38,36,2,1,14
12250,-9,-4,-5,-53,-32,-7,-5,-13
12255,19,2,-1,-3,10,0,2,-4
12260,-11,-7,2,-7,-2,3,2,2
12265,4,7,1,38,13,1,2,-35
12270,21,-27,-12,45,-10,-9,-6,54
12275,15,12,13,-39,-3,0,-3,-11
12280,-19,3,10,12,8,1,2,10
12285,-10,2,-1,-8,11,5,1,-24
12290,-6,-3,-3,9,1,-3,-2,1
12295,0,-4,-9,-30,-10,-2,0,4
12300,30,-1,-1,-7,15,-1,0,28
12305,11,-1,7,25,5,-1,0,-2
12310,-17,3,-5,-29,11,0,-3,-33
12315,-4,-3,-6,-17,-21,0,-2,20
12320,-11,3,1,15,-26,-3,1,-11
12325,3,-6,0,-22,14,-4,-2,4
12330,17,13,9,-13,7,5,0,1
12335,-22,-5,-12,-21,7,-2,0,-5
12340,-4,-2,-7,-9,7,2,0,6
12345,12,0,-2,-16,-44,-6,-2,9
12350,-30,-6,-8,-17,-12,0,-1,-41
12355,21,-1,-8,14,16,3,3,52
12360,19,2,10,69,32,-1,-4,9
12365,-12,-8,-12,-12,-7,0,-2,11
12370,-17,0,-7,14,-15,-5,-1,-26
12375,8,0,1,-50,-1,0,0,-12
12380,-20,-6,-4,38,9,-1,-4,-28
12385,14,0,2,-6,3,2,2,29
12390,3,2,8,2,-14,0,1,32
12395,11,-8,-9,-14,1,-1,-2,-6
12400,-15,7,-2,-21,-5,-2,-3,0
12405,1,-3,2,-8,-4,0,-2,-32
12410,-6,9,5,8,-2,-1,-1,33
12415,-5,-8,0,3,21,1,-1,-9
12420,17,8,7,23,21,4,3,5
12425,-8,-3,1,-5,-58,-10,-3,-1
12430,18,-6,-3,20,54,4,0,-9
12435,3,4,12,14,-16,-3,2,-4
12440,-35,-7,-15,-59,-23,-3,-1,3
12445,-3,1,-7,8,30,-1,-4,-4
12450,9,-4,-3,-36,-22,-2,0,-1
12455,-5,3,8,45,13,1,-1,-9
12460,-3,-7,-12,-2,-37,-3,-1,-11
12465,-21,4,6,1,5,4,6,31
12470,13,-4,2,8,8,-1,-3,-24
12475,7,-11,-11,8,-7,-2,-7,-36
12480,-7,8,10,-25,-9,1,10,16
12485,23,-2,-6,-4,9,-2,-2,25
12490,-33,0,-3,-4,-12,-1,0,-6
12495,-11,-6,5,39,19,-1,-3,-30
12500,7,-9,-12,-27,-5,0,-4,-3
12505,-10,5,-7,-12,-5,-3,-4,-19
12510,3,3,10,7,17,0,0,1
12515,10,-2,-1,-14,-5,2,2,13
12520,10,1,2,51,3,-2,-5,-8
12525,-23,-1,3,-34,4,-4,-1,-4
12530,13,0,-6,-66,-23,-3,-4,-8
12535,-16,6,-1,-6,-4,-2,-1,12
12540,5,-1,1,0,21,4,1,9
12545,21,-2,-2,31,-23,1,-1,-4
12550,-7,-5,-3,14,-8,-3,0,-4
12555,-19,6,2,4,5,-1,-1,6
12560,34,-7,-6,-34,-3,-6,-3,-14
12565,-20,-14,-8,-32,-19,-5,-1,6
12570,-4,0,-3,-13,-9,0,0,5
12575,6,2,-1,-2,6,-1,-1,4
12580,-17,1,8,4,1,2,-3,-37
12585,5,2,-3,10,10,1,0,35
12590,12,-6,-6,9,-11,-1,1,-10
12595,9,-2,-7,-31,-10,-1,3,36
12600,3,4,9,33,11,1,1,18
12605,2,-7,5,-5,11,1,-2,-25
12610,-6,15,-4,25,8,0,-1,1
12615,2,-6,-7,-20,-5,0,-4,-18
12620,-3,6,-6,-9,-10,-3,1,-1
12625,5,-7,-8,5,2,3,4,20
12630,5,0,5,9,4,1,1,2
12635,-18,2,4,-15,11,-1,-2,-23
12640,-4,2,5,10,-3,-2,1,20
12645,34,-2,-7,10,-4,0,-4,-22
12650,1,-5,-5,-44,-12,0,1,-4
12655,10,2,2,76,9,-2,-2,7
12660,-16,-3,13,-40,-7,-5,-4,0
12665,-11,10,14,25,9,0,0,-6
12670,5,-6,-3,-10,-12,-1,-1,-18
12675,12,1,-7,-39,-17,1,6,31
12680,-12,-6,-2,-20,-6,2,0,-1
12685,-5,4,-4,11,30,-1,-4,-7
12690,-5,-2,-4,-13,-11,0,1,2
12695,-8,-6,3,29,10,5,1,-38
12700,0,21,-2,22,2,-1,5,67
12705,-10,-11,-3,-18,-26,-6,-3,-20
12710,5,6,2,8,3,-2,-2,32
12715,0,-1,0,25,6,-1,-3,3
12720,-7,-5,-3,7,2,0,-2,-24
12725,5,3,0,-11,10,5,2,4
12730,-13,-2,-1,21,-7,-9,-6,-11
12735,30,0,2,28,2,-1,-3,-16
12740,-12,-3,-4,7,-12,-1,1,21
12745,-11,-2,-9,-60,-6,-3,-3,-12
12750,-8,-6,-4,3,-8,2,1,-4
12755,3,-3,-6,-29,-12,-2,-2,-10
12760,1,-2,6,37,-2,-2,-2,-22
12765,7,3,4,16,18,4,4,18
12770,4,0,2,19,24,5,3,-1
12775,-19,-7,-1,34,8,-10,-9,1
12780,9,-3,-5,-2,-27,-1,-1,-8
12785,-19,-4,8,-32,-2,0,2,-3
12790,2,-1,-4,-19,-7,-1,0,-2
12795,-15,0,-12,-37,-4,2,4,10
12800,6,-6,1,42,19,-3,-4,6
12805,-11,1,-1,-5,-2,2,1,-32
12810,14,4,5,11,4,-1,0,29
12815,-5,4,4,-1,-10,-3,1,11
12820,0,-5,-3,-13,10,2,-2,-42
12825,16,-7,-2,8,1,-4,-3,3
12830,-45,10,-13,8,-5,1,0,30
12835,10,2,0,-12,-10,-1,0,-5
12840,-6,-2,-9,-87,-22,-1,0,-17
12845,11,1,14,99,24,-4,-4,-1
12850,-31,-10,6,57,20,1,-2,-19
12855,3,7,0,-47,-20,0,1,-1
12860,-3,-1,-10,-23,-1,1,-1,6
12865,-5,-6,1,51,0,-3,-1,-2
12870,31,2,-2,-7,0,0,3,3
12875,-7,-1,3,21,13,1,-1,5
12880,4,-2,-1,3,-44,-6,0,-3
12885,-8,3,5,11,15,4,1,5
12890,24,4,-4,-18,-1,-7,-3,10
12895,-8,-4,4,8,1,4,0,-9
12900,10,8,-2,1,9,-3,-3,17
12905,-2,-1,-7,13,-18,-6,-3,-2
12910,-10,1,2,-13,15,2,-1,-22
12915,-13,-9,14,22,0,1,-4,-44
12920,18,3,-5,-16,0,-1,3,71
12925,2,0,-17,-69,-24,-4,1,28
12930,-9,-2,9,6,3,1,0,-20
12935,-4,-11,-10,-9,-6,-3,1,13
12940,-16,-3,8,-4,11,-1,-2,-32
12945,8,1,2,8,3,0,-3,-12
12950,-14,-8,-4,-46,-9,2,-1,6
12955,-4,1,2,92,22,-4,-2,-8
12960,7,-1,-2,-56,-8,-3,-1,-15
12965,-17,7,5,49,14,0,1,21
12970,1,-5,-1,-36,-19,-2,-3,-6
12975,13,4,-3,-10,-2,3,0,3
12980,-1,-2,4,25,12,1,1,-12
12985,-9,1,-14,-26,-29,-2,0,-5
12990,-7,-17,-11,29,8,-4,-3,2
12995,18,4,1,-23,12,1,-1,2
13000,4,-1,-6,2,-20,-7,-7,-23
13005,4,4,8,-6,11,3,1,-8
13010,7,0,-3,-37,-41,-4,-1,3
13015,-1,4,0,-4,23,2,2,4
13020,-12,-9,-7,25,2,2,-5,-22
13025,12,3,5,-8,6,4,2,30
13030,-10,-3,-7,30,7,-5,-2,-15
13035,-2,0,-7,-70,-30,-7,-1,-3
13040,13,1,8,21,20,5,5,16
13045,-33,-7,-4,-13,-9,-2,-4,-14
13050,11,3,5,0,9,0,2,11
13055,3,2,-1,26,-22,-4,-1,12
13060,-17,-3,-5,7,19,-2,-4,-40
13065,29,4,3,21,0,3,5,57
13070,9,-1,7,-14,20,2,-1,-10
13075,-9,8,0,-34,6,5,-1,22
13080,-5,-1,8,60,-10,-3,1,-9
13085,-61,-8,-10,19,-4,-4,-7,-31
13090,54,3,5,4,-9,-2,-1,-7
13095,-9,-4,-5,-23,-8,-1,-3,6
13100,1,0,-4,13,8,5,4,11
13105,4,-3,4,-18,4,1,-2,-29
13110,-8,1,-3,6,-24,-4,0,18
13115,3,-5,-7,-31,10,-2,-1,-11
13120,-1,-1,1,19,0,-3,-4,-6
13125,14,-6,0,-10,-3,-5,-3,9
13130,-3,18,-8,-33,-7,3,-1,-7
13135,-16,-4,6,34,5,-1,0,-5
13140,-9,-2,9,5,13,2,0,-2
13145,15,-1,-17,-46,-13,-5,-3,-7
13150,-2,-5,-1,9,6,-4,-4,-5
13155,0,2,-2,40,0,3,1,-8
13160,3,0,-4,-53,-7,-3,-1,33
13165,-10,-2,12,30,20,4,2,-24
13170,-5,6,3,43,-9,-3,-3,12
13175,15,-2,-4,10,8,-1,-1,-13
13180,-9,-4,-7,19,-19,-4,-2,-4
13185,13,4,-3,-62,14,0,0,3
13190,-18,-7,-3,29,-1,3,0,8
13195,-1,1,2,-12,2,3,-2,5
13200,3,3,-6,-33,-26,-6,0,20
13205,5,3,5,-2,-9,-1,2,5
13210,-6,-5,9,-6,13,-5,-3,-4
13215,29,-1,-3,39,3,-2,-1,11
13220,-34,-6,-1,-54,5,4,1,-25
13225,8,-3,0,27,11,4,2,-19
13230,-13,11,7,10,-11,1,-4,7
13235,49,0,-6,4,-16,-6,-1,5
13240,-39,-4,-3,38,27,-3,-4,3
13245,-4,-2,-6,-47,-15,-3,-2,-17
13250,2,-10,-2,-7,5,1,0,-17
13255,-27,4,-2,-16,6,5,5,16
13260,15,11,8,63,18,2,-2,-24
13265,4,-5,-11,-103,-49,1,4,-7
13270,-9,-11,0,95,56,-7,-6,13
13275,-12,-2,-7,23,-4,-1,-1,-4
13280,6,-2,-6,10,-4,-2,-2,-8
13285,-2,5,10,40,15,4,1,-4
13290,4,-1,3,-45,-20,3,3,-2
13295,-17,-3,0,-62,-5,-4,-3,-12
13300,29,0,-1,-17,2,3,0,15
13305,-21,-11,-13,28,-17,-10,-3,5
13310,9,0,2,9,1,5,5,-8
13315,-8,16,1,-36,3,-7,-3,12
13320,2,-6,-6,-21,-11,1,0,1
13325,7,4,5,29,26,-1,-1,16
13330,0,-2,-1,-14,7,2,4,-5
13335,-11,-9,-2,5,-24,0,-1,-6
13340,11,-3,-10,-39,-15,-6,-4,-5
13345,-8,2,2,54,26,0,0,6
13350,12,5,-3,-19,0,-1,-1,-13
13355,-39,-4,0,-1,-4,1,0,11
13360,22,-5,-3,-13,-2,0,0,-8
13365,3,4,13,26,7,7,3,21
13370,-6,-2,-19,-79,-24,-1,1,2
13375,10,-11,-10,-14,14,-10,-5,-7
13380,8,3,8,18,-3,-4,0,12
13385,-21,0,3,13,14,-2,-4,-16
13390,9,3,4,-21,-6,4,2,7
13395,-7,-2,6,5,4,7,-1,-57
13400,-13,-2,3,6,6,2,2,70
13405,40,2,-16,-51,-19,-2,3,34
13410,-9,4,0,-9,-18,-5,-1,-12
13415,-9,-13,-9,11,13,-9,-7,-11
13420,1,-2,6,34,13,3,1,-2
13425,-4,2,8,23,3,3,2,-13
13430,0,-3,-9,-20,2,0,1,10
13435,4,3,6,-8,-30,3,4,3
13440,-5,1,-2,-10,3,-3,-3,1
13445,0,-1,-5,-69,-27,-4,-4,-12
13450,-1,-7,-4,16,-11,-2,-4,-10
13455,-2,3,15,41,13,3,0,-13
13460,26,-7,-13,-63,-7,-6,-3,-2
13465,8,0,-7,30,-2,-3,-3,-4
13470,-5,-11,2,34,6,-1,0,-15
13475,-21,5,-1,-25,-9,5,1,19
13480,-9,0,-6,3,-11,-8,-8,-22
13485,-1,-2,0,12,19,1,0,-1
13490,-1,-2,4,-22,21,3,1,-2
13495,4,-6,-2,11,0,-5,-4,2
13500,-4,-4,-5,-20,-23,3,5,0
13505,0,0,0,15,-17,-5,-1,21
13510,9,1,3,71,9,-4,-2,-2
13515,3,-1,-14,-47,1,3,1,11
13520,-9,3,7,28,12,2,1,-5
13525,-5,-3,-2,9,0,-1,-1,-26
13530,1,0,-9,-20,-5,3,2,24
13535,-10,-4,0,12,-11,-4,-1,30
13540,-21,7,7,46,29,3,-4,-33
13545,46,-14,-3,-34,-4,-2,-1,48
13550,-13,2,0,20,-9,-5,-1,-17
13555,-2,-1,4,27,9,3,4,-19
13560,-4,-2,-3,-41,-6,2,0,22
13565,-17,0,3,-21,-10,6,-1,-31
13570,7,9,1,51,0,-8,-6,-4
13575,8,-2,-1,14,25,1,0,4
13580,-5,0,5,35,18,-2,0,-5
13585,-3,-2,0,26,5,-2,-3,-7
13590,-3,-6,-12,-68,-26,1,0,3
13595,-1,6,5,28,-1,2,0,-1
13600,10,-5,-4,-33,-11,-1,-1,-4
13605,9,6,-8,13,15,5,-1,-9
13610,-45,-11,0,11,9,-3,-5,2
13615,3,12,7,14,-13,0,-1,4
13620,-3,-7,-9,-6,0,-1,-1,0
13625,-17,-3,-8,2,1,-3,-2,-23
13630,11,7,12,-7,0,-1,1,28
13635,-3,-4,-7,13,-3,-2,-2,-3
13640,9,-8,-2,-44,-12,2,-3,-5
13645,9,15,6,11,-4,-2,1,-22
13650,-10,-14,-3,17,24,0,-2,-14
13655,-20,0,-2,-46,-20,-5,-3,18
13660,1,6,6,14,1,3,3,3
13665,-9,-4,1,48,20,-3,-1,-4
13670,7,1,-2,-54,-13,-1,-3,-31
13675,18,-5,-1,-15,-11,-5,-4,29
13680,-17,1,1,39,3,1,0,-11
13685,1,7,2,-36,3,0,4,36
13690,7,-5,-18,41,19,6,3,5
13695,10,-3,-3,-36,6,-2,-2,-10
13700,-6,-1,-1,6,-20,-7,-2,-6
13705,-10,-1,-3,14,8,1,-3,-12
13710,2,2,1,-30,6,4,2,-2
13715,34,9,9,15,-44,1,7,49
13720,-14,-12,-23,-35,-2,-11,-8,-12
13725,-27,-9,-5,-53,-5,-3,-3,-4
13730,3,5,-3,4,-1,-1,-1,-14
13735,3,-3,2,24,25,2,-1,-25
13740,4,5,16,19,-1,3,1,11
13745,5,-2,1,2,-5,-1,2,-13
13750,13,-3,-4,-12,-16,-6,-4,45
13755,-8,-3,1,15,2,-1,2,-28
13760,5,3,-4,-26,-8,-3,-2,11
13765,3,-6,-5,5,5,-6,-7,-3
13770,-6,-2,-3,14,8,5,4,-5
13775,0,-1,-1,-23,-25,-4,-3,-11
13780,-2,3,6,26,3,4,1,-7
13785,-16,-6,-1,19,3,-7,-6,-67
13790,23,-3,2,-47,-8,-6,3,47
13795,2,0,-6,24,6,-2,-3,-19
13800,1,10,4,25,26,6,1,1
13805,4,-8,-6,-4,-23,0,-2,-8
13810,7,1,4,-9,0,0,0,-16
13815,-43,-4,-4,-16,12,1,-4,-10
13820,23,4,6,-17,-17,-2,6,-3
13825,1,3,-4,36,-5,-2,0,37
13830,20,-2,-2,29,4,-4,-6,-16
13835,4,0,2,-42,16,0,3,22
13840,-16,-5,0,15,-16,-3,-5,-4
13845,-6,5,6,-7,18,3,-1,2
13850,1,0,5,44,-5,-5,1,18
13855,-4,-4,-7,-14,-9,0,1,-51
13860,16,-5,-4,-65,-10,2,3,57
13865,0,4,0,30,18,-4,-5,1
13870,-20,-1,-3,8,-13,-1,-4,-18
13875,23,0,5,-18,-2,-3,-2,-12
13880,-10,-2,-1,20,8,-2,-1,6
13885,10,1,10,60,2,7,4,-1
13890,-28,5,-12,-91,-7,-4,-4,-13
13895,-3,0,-6,9,-7,-2,1,13
13900,-1,-1,-4,-15,2,0,-4,-16
13905,0,-3,1,0,4,-1,0,-18
13910,3,0,12,45,18,2,3,25
13915,2,-2,-9,-1,5,2,-2,-1
13920,4,3,2,9,0,-1,-1,-21
13925,-16,1,-3,-26,-12,-1,2,4
13930,8,-3,-7,-73,-16,-3,-2,-28
13935,15,-4,0,17,4,0,-3,8
13940,-15,1,-11,-6,-9,-7,-4,-5
13945,-8,-6,7,-9,8,2,-2,11
13950,-15,7,8,31,1,0,-2,-11
13955,5,0,3,31,21,4,0,-23
13960,6,3,1,-15,-5,-2,2,5
13965,1,-2,-7,-14,-12,-4,-2,-4
13970,5,-15,1,72,34,2,-2,33
13975,-8,2,0,-52,-20,-4,-2,-16
13980,-5,-1,-1,-11,3,-4,-1,-11
13985,-9,1,6,-33,-5,5,2,16
13990,16,1,-20,25,-9,-1,-1,-25
13995,-4,-5,-4,24,17,0,0,27
14000,0,-1,3,-16,-16,-5,-2,-12
14005,16,2,-2,-38,-2,-1,-2,19
14010,-16,3,12,11,1,2,-2,-17
14015,-3,-2,-1,57,5,-2,-3,16
14020,-8,2,-9,-33,-4,1,1,-10
14025,18,-1,3,27,-3,-3,-3,7
14030,-8,-12,-10,-52,-8,-2,-2,-12
14035,-7,17,0,35,7,1,-2,-4
14040,10,-8,-2,5,-3,-1,-5,13
14045,-44,7,0,-1,10,-1,1,3
14050,14,-12,3,7,-25,-6,-5,1
14055,11,4,6,-14,12,1,-1,-7
14060,17,-1,-7,-3,0,1,3,7
14065,-13,-1,-17,-11,-26,0,1,-4
14070,1,1,8,67,36,0,0,16
14075,-21,-9,-5,-36,-2,-3,-4,-33
14080,10,-1,-1,30,-8,1,0,9
14085,2,0,0,-46,-21,0,2,11
14090,0,4,-4,19,6,0,-2,-31
14095,3,-4,-2,49,0,-3,0,12
14100,-14,2,4,8,16,0,-1,-4
14105,13,-7,-9,-62,-12,0,1,9
14110,-10,6,4,-28,-15,0,0,-4
14115,27,-4,6,-4,-5,-1,0,17
14120,-55,6,-9,-17,10,0,-1,-15
14125,-8,-7,-17,-18,-20,-10,-8,-30
14130,8,8,8,-21,-3,4,1,-5
14135,0,5,5,-36,-12,-2,2,33
14140,-7,-10,-3,67,19,-1,-3,-15
14145,10,0,4,-24,-6,-3,-2,0
14150,-17,0,1,-13,14,0,-2,-29
14155,15,-11,-5,22,-6,0,-1,18
14160,-7,1,8,-3,-11,0,2,0
14165,33,-8,-4,10,5,1,-1,33
14170,-8,5,4,29,-2,2,5,4
14175,7,1,-10,-55,-7,-2,-4,-18
14180,9,-1,3,-9,11,2,0,3
14185,11,11,5,52,19,3,-2,-3
14190,0,-8,-3,-48,-23,-3,0,1
14195,-12,0,-3,51,-2,-2,1,-6
14200,-2,7,-5,21,20,-3,-3,-2
14205,-2,1,-4,-31,-13,-2,1,2
14210,0,-1,6,8,20,2,-1,6
14215,-16,1,5,40,-9,0,-1,-2
14220,6,-13,-4,18,-7,-3,-5,-15
14225,2,2,-2,-2,2,-2,-1,7
14230,0,2,-4,-19,-12,1,0,7
14235,-2,-6,0,7,37,-2,-4,4
14240,-19,2,8,0,-17,-2,-1,-12
14245,12,-5,-7,0,7,0,-2,-9
14250,-1,-1,-6,-3,-15,-4,0,1
14255,-1,3,-1,2,18,-1,-4,-17
14260,-3,-5,-5,-21,6,4,3,20
14265,-13,5,11,35,-3,2,2,10
14270,-14,-2,-9,10,3,-3,-1,13
14275,8,0,-3,-37,-1,-3,0,-13
14280,-3,-7,6,23,-16,-2,-4,-14
14285,-17,-7,-4,-16,0,1,0,-8
14290,42,-1,5,15,6,-3,-2,-15
14295,-16,-6,-6,11,-8,-3,-1,35
14300,6,2,6,-11,-3,2,0,-3
14305,3,-2,0,22,-1,-3,-1,-3
14310,-9,12,0,-4,-18,2,-3,-4
14315,-6,-3,2,-18,11,4,6,-5
14320,13,4,4,2,22,2,-1,11
14325,7,-5,1,34,10,0,-1,-13
14330,1,-1,-3,-7,4,-3,-1,14
14335,-23,0,1,15,-31,-6,-3,-6
14340,1,-1,-13,-2,-6,2,1,-2
14345,-7,0,2,18,10,-2,1,-1
14350,-18,-7,-2,-17,-2,-1,-5,-47
14355,34,-4,2,4,-3,-3,-3,79
14360,3,5,3,-13,9,1,4,-8
14365,-29,1,6,33,-6,0,-2,4
14370,44,9,-4,-12,3,-2,1,16
14375,-20,-5,-11,-59,-7,5,1,-25
14380,12,-6,-2,21,4,-3,-3,-10
14385,-8,3,2,-50,-16,-1,0,-7
14390,-10,-4,10,52,16,3,0,2
14395,1,-3,-19,-83,-19,-2,1,-14
14400,-6,-7,0,65,-3,-7,-6,-17
14405,11,14,7,28,9,2,2,18
14410,-6,-10,-8,-16,3,-3,-1,15
14415,-1,4,9,48,2,3,0,-37
14420,13,-1,-8,-37,0,-1,2,20
14425,-13,-11,-8,-22,-13,-2,-2,-11
14430,-14,4,8,9,11,4,1,8
14435,-3,-2,-7,12,-3,-3,-3,-23
14440,-1,6,-3,-44,-14,-3,-2,2
14445,34,-8,-2,19,-6,-2,-3,-4
14450,-5,-2,-1,14,9,0,1,3
14455,-5,-3,7,12,-2,1,-2,-11
14460,-13,-4,1,3,4,2,2,7
14465,-4,-4,-7,12,9,-2,-1,2
14470,14,-2,-5,-22,-30,-4,0,25
14475,26,5,-4,-14,-11,-3,-1,12
14480,-5,4,16,39,18,0,-3,-3
14485,-16,-6,-1,-23,9,0,0,-13
14490,-6,1,-6,-19,-6,-3,-3,-21
14495,1,2,1,-27,-8,3,-1,16
14500,22,-9,-8,7,-6,-2,0,-2
14505,-30,-3,-4,-17,-25,-3,-4,-34
14510,-1,-11,-3,50,39,-1,-1,38
14515,17,5,3,-38,-2,6,3,12
14520,-32,-4,-1,16,20,-2,-2,-6
14525,15,0,5,-10,-9,0,2,13
14530,-12,4,7,-1,-10,2,0,-14
14535,-2,1,2,-1,-12,2,4,5
14540,-28,5,-22,-26,30,-6,-6,-1
14545,21,-4,5,14,-4,0,-1,-9
14550,-2,-2,-5,-37,-22,-1,1,29
14555,-10,-1,4,17,6,-1,-2,-6
14560,11,1,5,21,-8,-2,-3,-9
14565,-5,-1,-3,-1,11,2,-1,-22
14570,15,1,3,16,-5,2,3,15
14575,-13,4,-2,48,6,-9,-5,-33
14580,12,-7,-11,-52,-12,0,1,28
14585,-6,-6,-1,-20,-32,-7,-3,5
14590,1,2,2,-7,0,-1,-2,-26
14595,-9,0,4,7,17,2,0,4
14600,15,-6,-17,-4,-15,-2,-2,-9
14605,-17,1,2,15,27,3,5,-13
14610,15,-7,-5,2,-30,-3,2,38
14615,-13,8,-3,-52,19,-2,-1,11
14620,8,8,10,6,-20,0,4,-9
14625,-16,2,2,32,19,-1,-1,10
14630,3,-3,1,-13,-4,-2,0,-25
14635,-13,-4,-6,10,0,-2,-2,-18
14640,24,1,6,-14,-7,5,7,50
14645,5,2,-8,-29,-15,-5,-1,16
14650,-18,2,-1,-24,5,-9,-8,-26
14655,-2,-6,0,33,0,-1,-2,-10
14660,-11,-1,0,5,1,2,-6,-19
14665,22,-5,0,-4,-3,-1,4,18
14670,-14,-2,-1,-18,-2,-1,-3,-34
14675,9,-1,2,-24,-28,1,4,43
14680,3,2,4,26,34,4,0,-23
14685,9,-8,-19,-14,-3,-11,-7,22
14690,-18,-3,-1,-22,-7,-1,-2,-9
14695,3,0,3,28,0,0,-1,-8
14700,-8,1,6,-17,-16,2,0,-7
14705,7,4,9,36,23,4,1,-1
14710,-4,1,-3,-45,-18,-3,-1,-1
14715,-2,-10,-14,-4,-16,-6,-4,-33
14720,17,-2,11,17,2,-1,1,65
14725,-29,5,0,13,22,5,-1,-13
14730,4,-5,0,37,4,2,0,4
14735,9,2,8,8,11,6,1,1
14740,-31,-10,-9,-49,-32,-6,-1,-26
14745,-7,8,-2,-25,-5,3,0,7
14750,-10,-2,-13,30,12,1,1,3
14755,-16,-3,-2,10,6,-2,-5,-63
14760,30,1,6,19,12,5,3,49
14765,14,0,-6,-39,-8,2,-2,7
14770,-1,-1,-1,11,3,-1,4,-6
14775,-4,-2,-5,-62,-7,-5,-3,18
14780,-8,-1,-7,-9,-36,-3,-3,-29
14785,7,1,4,-1,3,0,0,5
14790,0,1,0,0,-7,-5,-4,-1
14795,6,2,7,39,14,1,0,15
14800,-17,2,3,11,26,-1,-2,-30
14805,2,1,2,-27,-25,0,4,30
14810,-8,-7,-10,-14,-5,-4,-2,-4
14815,21,8,5,10,9,-1,0,16
14820,-17,-3,-6,-57,-15,-3,-5,-16
14825,-2,13,-5,26,20,-1,-4,-42
14830,-6,-1,5,25,0,3,1,11
14835,6,-4,-7,25,5,-3,1,7
14840,-15,-2,-7,9,5,-5,-4,-14
14845,14,-5,7,-10,-26,-2,1,9
14850,2,0,-1,2,17,1,-2,-21
14855,7,0,-5,-69,-21,0,4,51
14860,-38,-6,-1,16,-1,0,-4,-26
14865,-5,-4,-1,-37,-14,-4,-1,9
14870,12,4,0,63,7,-3,-3,-12
14875,-21,-6,4,37,9,1,-2,-28
14880,20,-1,-2,-40,-5,0,4,29
14885,-6,11,2,35,9,0,-1,9
14890,11,-5,-2,-19,3,2,1,6
14895,-11,4,2,-2,2,-3,1,-10
14900,30,-4,2,-14,-15,-2,-2,26
14905,-37,8,-21,29,-18,-10,-6,-20
14910,-4,-3,6,22,8,-1,-3,-7
14915,-8,0,6,11,20,2,-3,18
14920,11,1,-2,36,5,3,-1,-17
14925,13,-9,3,9,8,3,-1,0
14930,-6,2,-4,-56,-25,-3,-4,6
14935,-4,-6,4,70,20,1,-2,-4
14940,4,3,-1,9,-5,-4,-2,-6
14945,3,-4,3,8,9,1,1,-7
14950,-6,2,4,-9,11,5,0,4
14955,3,-8,-11,-58,-36,-8,-1,-9
14960,4,8,-2,-26,-3,-3,-1,2
14965,6,-4,3,-18,18,1,-1,-15
14970,-24,-5,3,4,13,1,3,0
14975,14,-5,-2,53,-20,-5,-6,-2
14980,-7,-4,4,20,-5,-2,1,-4
14985,-7,-2,-7,1,15,0,2,10
14990,18,5,-3,-12,-1,1,-1,-14
14995,0,0,-2,9,-6,-2,-6,15
15000,11,-4,-8,-70,-2,-1,0,-19
15005,-8,-9,-2,-24,-15,-6,-6,-22
15010,18,0,-9,-23,-13,-5,-1,45
15015,-10,0,-6,-4,4,3,4,3
15020,9,7,9,2,6,3,0,-5
15025,-2,-8,5,15,10,2,1,-10
15030,-2,16,1,15,14,-2,2,-12
15035,-2,-3,-8,-93,-20,-7,-6,-7
15040,-14,-2,5,54,10,3,4,5
15045,8,-3,-1,-47,-4,2,-1,-5
15050,-1,-1,13,57,20,1,0,-3
15055,13,5,2,-50,-12,4,5,13
15060,-6,-1,-1,10,-13,-5,-2,-4
15065,4,2,-2,17,10,0,1,5
15070,-3,-1,2,-4,-13,0,-4,-10
15075,52,-6,5,44,35,2,-1,-30
15080,-35,2,-2,7,-7,-1,1,26
15085,1,-4,-2,38,-4,-3,-1,8
15090,12,-4,-6,-15,-3,0,1,15
15095,-22,2,-6,-40,-17,0,-1,-23
15100,1,-4,-2,41,14,-1,-2,-12
15105,14,9,4,-25,-3,0,1,1
15110,-12,-5,-2,7,4,-2,-3,9
15115,-13,0,4,34,4,1,0,-8
15120,15,2,1,2,12,1,2,6
15125,-8,3,-9,-14,-10,1,1,4
15130,9,-11,-3,3,-18,-4,-3,2
15135,-15,2,2,18,8,-4,2,-13
15140,13,4,12,-7,23,2,-3,-1
15145,-5,-8,-11,24,-14,-5,-2,-6
15150,7,1,-6,-34,-12,1,2,4
15155,-25,-2,-3,-21,7,1,-2,9
15160,5,0,2,-12,-32,-3,3,12
15165,5,-9,5,29,25,-1,-3,-3
15170,-6,-2,1,-28,-10,0,2,-15
15175,2,6,-7,0,-16,-1,-1,14
15180,-17,11,3,26,19,4,0,-13
15185,24,-12,-8,-58,-11,-2,0,21
15190,-1,-5,3,64,3,-4,-3,-16
15195,1,-2,1,-15,-1,-4,-3,4
15200,-15,-6,-2,-19,-8,1,-2,-41
15205,4,4,5,16,11,-1,1,36
15210,17,3,3,-7,5,2,5,4
15215,-18,-2,-2,-32,-22,-2,-2,-13
15220,18,-2,-2,34,9,-6,-5,-9
15225,-16,0,2,-12,-3,1,-2,-15
15230,1,9,-1,-64,-7,2,1,3
15235,9,-4,-1,64,4,-3,-3,11
15240,-34,-13,-3,-20,3,0,-1,-4
15245,-5,8,7,12,16,2,0,6
15250,-13,-7,-8,-6,-19,-3,-4,0
15255,-7,-6,7,28,4,-4,-5,-25
15260,21,-2,-6,-1,-9,-1,0,10
15265,-14,-1,-1,7,3,-2,0,6
15270,-12,-7,-14,-62,-24,-2,-2,-3
15275,-1,-1,1,20,9,-2,2,12
15280,1,2,3,35,15,0,-1,-12
15285,18,-1,-2,12,-13,-1,-2,-4
15290,-24,1,6,-24,-7,-1,-2,-9
15295,39,2,-4,22,-1,1,-1,6
15300,-1,2,2,22,0,3,3,6
15305,14,0,-11,16,-9,-6,-5,-27
15310,-17,-3,0,5,22,1,0,30
15315,12,6,0,-23,5,2,-1,0
15320,-22,-10,-13,-26,-19,0,2,4
15325,-9,0,5,55,-7,-2,-4,-11
15330,-5,0,-1,12,17,1,-2,-36
15335,-7,0,2,-28,-20,0,4,55
15340,30,0,-5,-50,-19,-6,-3,-27
15345,-20,-2,1,-36,-6,1,4,22
15350,5,-2,-7,38,11,-1,-3,9
15355,3,-13,1,25,12,0,-4,-20
15360,-17,12,6,-37,-10,-1,0,5
15365,-19,3,3,14,-5,1,2,-2
15370,49,-2,3,2,-4,-2,0,-10
15375,-11,-4,-3,-15,2,1,0,15
15380,2,-6,-12,-2,0,-4,-3,3
15385,-11,5,10,-7,7,1,2,-2
15390,1,9,2,27,-1,1,1,6
15395,-7,-5,0,-44,-6,1,0,-12
15400,1,-3,3,65,17,0,-1,7
15405,8,0,-5,-48,5,1,1,-4
15410,-2,0,-6,-3,-18,-3,-5,-15
15415,16,3,-3,9,9,-3,-1,-38
15420,-21,-14,-3,11,11,-2,-1,54
15425,-1,3,-1,39,-7,1,-1,-6
15430,-8,-6,-14,-25,-11,-1,3,13
15435,-15,7,4,50,22,0,-1,-9
15440,0,-9,0,-69,-39,-2,-4,-53
15445,16,-3,7,32,-5,-2,-2,28
15450,-18,-3,-5,-13,5,-2,-2,30
15455,4,-11,-11,-8,16,3,2,-6
15460,8,13,6,0,9,3,1,-8
15465,0,-12,-15,-62,-11,-5,-2,-8
15470,-12,1,3,2,-7,1,-1,-18
15475,-6,3,4,0,2,1,-1,4
15480,8,3,0,-24,-13,1,1,26
15485,0,0,-1,13,-1,-3,-2,-18
15490,35,-3,-5,19,21,-1,-2,7
15495,-24,1,-2,-38,1,3,4,1
15500,1,9,4,13,-17,-3,-2,-10
15505,-8,-7,3,-16,22,2,-1,18
15510,-7,1,7,28,-3,-3,-3,-34
15515,30,-2,3,-4,-5,-1,1,62
15520,-3,6,4,-16,11,0,-1,-5
15525,6,-7,-7,34,3,-1,-1,-16
15530,-18,1,14,-4,8,1,0,-16
15535,-2,-1,-10,-27,-37,-5,0,6
15540,2,-17,-12,14,-5,-3,1,53
15545,1,15,8,39,22,4,-1,-16
15550,15,3,10,17,25,2,0,9
15555,-20,-3,-10,-55,-52,-3,-1,-23
15560,-12,-10,-7,18,5,-3,-3,-13
15565,3,-5,-12,-25,-10,0,0,4
15570,-10,-8,3,-5,-7,-1,-3,-11
15575,9,14,3,-9,19,3,1,-4
15580,5,0,-4,71,8,-1,-1,-7
15585,-23,-3,6,-15,-11,-3,-2,-11
15590,5,2,-2,7,-8,-1,-2,2
15595,-19,-4,2,35,11,1,2,-10
15600,0,4,-1,-39,-17,-2,-2,3
15605,7,-1,4,49,37,-2,-1,-11
15610,13,0,-1,0,-11,-1,2,11
15615,-15,-6,3,26,-10,-3,-2,-12
15620,1,2,-2,-20,1,3,1,1
15625,-2,4,1,-46,-27,-3,-2,-14
15630,-12,-4,-5,32,12,-4,-2,6
15635,6,-4,-11,5,1,-2,-4,1
15640,8,5,5,17,11,0,-2,-42
15645,3,-3,-7,-65,-15,-4,-2,47
15650,4,-1,-3,-11,-8,1,0,-5
15655,-19,-3,8,69,13,0,-1,-21
15660,37,14,2,-21,-1,-2,1,12
15665,-44,-5,-11,-10,-30,-5,-3,-20
15670,-3,5,20,32,37,4,3,-2
15675,2,-7,-20,-61,-12,-3,-5,-22
15680,-19,-8,-2,21,25,1,-1,6
15685,23,2,15,8,-23,-4,-3,5
15690,-2,5,-9,-24,-17,-1,-2,3
15695,-7,2,1,-55,-4,-2,-2,-10
15700,27,-4,3,22,7,0,-4,-11
15705,-8,-6,-16,41,2,3,2,30
15710,2,-9,-1,-23,-7,-7,-3,-16
15715,-49,8,7,5,12,2,1,-23
15720,11,-7,-9,3,-4,-3,-1,32
15725,10,-3,5,-2,-5,3,1,-6
15730,-6,4,-5,-12,-21,-4,-1,9
15735,4,-10,-1,63,26,-2,-5,-6
15740,2,12,-1,8,17,-1,-4,-19
15745,-2,0,7,-23,4,2,0,-36
15750,11,54,0,-1,-1,2,6,53
15755,21,-45,-3,-47,-21,1,1,25
15760,-28,-8,9,43,7,-1,-1,3
15765,4,-11,-14,-75,-19,-8,-6,-42
15770,-33,-5,-4,9,7,1,0,20
15775,65,15,0,-7,-9,-2,1,1
15780,-24,-6,6,33,17,3,2,12
15785,-1,2,5,23,14,1,0,-1
15790,14,-13,-13,-34,-21,-3,-4,-26
15795,-19,6,12,52,25,0,-2,-13
15800,10,-8,-13,-59,-16,-3,0,45
15805,1,8,4,14,5,2,-2,-6
15810,-30,-17,4,60,6,-2,2,-4
15815,16,5,0,-2,-10,-6,-2,-2
15820,1,5,1,-5,-2,3,0,6
15825,10,2,-1,-48,-11,0,0,5
15830,-4,-13,-7,8,13,-3,-6,-5
15835,17,-8,1,9,-7,-3,-7,-23
15840,-8,24,4,-38,-9,-1,4,24
15845,-2,-1,3,2,39,8,4,9
15850,20,-8,8,65,-25,-4,-3,-7
15855,-32,3,-22,-53,-13,-4,-4,-2
15860,-24,-4,7,-18,-3,0,-5,-24
15865,33,7,1,22,-3,2,2,15
15870,-32,15,3,24,21,4,1,-6
15875,28,2,4,5,-12,-3,1,25
15880,-18,-33,1,45,20,2,1,-44
15885,22,7,0,-19,-18,-2,0,41
15890,24,7,6,10,12,-2,3,0
15895,-63,20,9,-20,-28,0,-1,4
15900,46,22,-8,3,-13,-4,-4,-11
15905,-19,-19,2,24,16,2,-3,-56
15910,37,-1,-12,63,28,2,2,82
15915,-34,-16,-3,-69,-9,-1,0,-17
15920,-6,5,2,-11,-17,-3,0,-10
15925,-19,-7,1,24,0,2,-1,-16
15930,24,12,-5,-47,7,-2,0,16
15935,-10,5,-3,63,14,-2,-1,13
15940,29,-7,-8,-17,-16,-6,-5,-16
15945,-10,2,-10,66,28,0,1,3
15950,-20,-17,-1,-128,-27,2,-1,-36
15955,27,-7,-5,25,10,1,-4,5
15960,-3,3,6,7,11,5,4,7
15965,-29,19,0,25,-8,-4,-4,-15
15970,-11,-18,-3,-41,2,-5,-3,-6
15975,26,9,10,27,-2,2,3,18
15980,-43,-31,-5,-34,-16,1,1,-15
15985,12,12,3,-2,-2,-3,-4,77
15990,-28,-1,-7,5,-2,2,0,-42
15995,19,-20,4,-11,-9,1,-1,-4
16000,-28,32,1,42,33,-4,-2,29
16005,29,-15,-3,-57,-25,-4,1,-3
16010,10,13,0,-2,-8,-4,-5,-14
16015,-33,-1,11,55,17,6,3,15
16020,5,-9,-18,-73,-22,-3,-4,-1
16025,-41,-3,1,-18,-18,-8,-4,-22
16030,25,-11,-8,2,-6,3,0,6
16035,19,22,2,7,19,-7,-9,-36
16040,-24,-10,9,57,-5,1,5,1
16045,7,8,-7,-52,-8,0,2,8
16050,0,-8,1,20,2,-1,-1,-24
16055,-12,10,4,-15,-2,3,6,38
16060,34,-5,-14,-12,4,0,2,5
16065,-8,-10,-12,0,17,-1,-3,6
16070,7,-5,4,-8,-25,-1,0,-14
16075,-37,18,3,19,-2,2,1,-5
16080,17,11,-6,-56,-5,-2,-3,4
16085,6,-11,-8,-21,-34,-1,4,-6
16090,-23,-9,2,30,8,-3,-6,7
16095,0,-11,-5,30,8,1,-2,1
16100,32,-6,-8,-47,-11,-2,-1,-9
16105,-29,8,10,76,23,-1,-5,-13
16110,-57,-4,-4,-26,-8,-3,-1,-10
16115,23,-5,6,36,6,-3,-3,8
16120,-5,-1,-4,1,-16,-2,-1,-6
16125,52,21,2,-21,28,4,3,0
16130,-2,-37,-12,-9,-22,-8,-7,-4
16135,12,4,9,-48,8,-2,-2,-6
16140,-40,-23,-28,0,-1,4,-4,9
16145,-35,8,2,26,8,-1,2,-13
16150,26,22,18,-24,7,1,2,-21
16155,12,-4,-12,30,-5,-6,-3,20
16160,-36,10,17,1,5,0,-3,-9
16165,-13,-27,-1,18,-8,-1,-1,-4
16170,0,19,1,-16,17,1,2,-8
16175,24,-16,-18,-46,-17,0,0,-19
16180,11,27,13,28,2,-1,-2,10
16185,24,-13,-4,27,9,-3,-9,-4
16190,13,4,4,12,2,3,6,30
16195,1,4,-1,-13,3,-1,0,-6
16200,-33,7,-4,10,-6,-2,0,-13
16205,29,-6,6,-39,-16,-1,-1,-17
16210,3,-11,-6,-71,-27,-2,-2,8
16215,-3,13,2,27,37,1,-1,-4
16220,12,-2,8,41,16,-5,-5,24
16225,-17,-10,-4,10,-20,-5,-1,-19
16230,-7,14,3,49,-1,0,-1,-15
16235,-22,-16,-2,-48,-7,4,3,7
16240,29,8,9,29,9,1,0,-22
16245,7,1,-11,-87,-17,-7,-1,-3
16250,6,-9,-9,38,9,2,-1,15
16255,-11,0,0,-5,-5,0,1,-6
16260,11,-6,6,30,1,-1,2,-2
16265,1,10,8,39,11,0,-6,3
16270,-8,0,4,-22,9,1,1,-7
16275,-15,-1,-6,-16,-31,-4,0,11
16280,-1,-13,2,-10,7,4,1,-24
16285,-20,-2,-5,61,17,-2,-1,-11
16290,13,6,-4,-18,0,-1,-2,32
16295,13,-4,0,14,-4,2,-1,27
16300,41,-9,-1,-34,-11,0,-1,19
16305,-11,-9,-10,41,16,5,0,1
16310,-19,-10,-7,-66,2,-4,-4,-30
16315,51,11,2,-25,-3,1,-1,-22
16320,0,8,-8,23,-5,-4,1,0
16325,-66,-41,4,50,18,2,-1,6
16330,24,6,1,1,-16,-4,-2,8
16335,-13,-3,-2,16,14,3,1,6
16340,7,-4,10,-43,-22,-1,-2,-18
16345,23,33,-7,-51,1,-2,1,7
16350,-31,5,10,34,4,2,-1,-4
16355,-2,-20,-7,22,2,-5,-6,-5
16360,9,9,5,12,12,5,3,15
16365,-24,6,3,-19,0,-2,1,-5
16370,3,-1,-7,1,1,-3,-3,-5
16375,-23,5,-2,-2,6,4,4,19
16380,-2,-10,-10,-13,-28,-6,-4,-10
16385,24,-8,12,45,20,1,2,-2
16390,18,5,0,-2,3,3,4,24
16395,-41,6,-3,0,23,1,-2,-91
16400,29,-26,-11,-32,-4,-4,-5,75
16405,-11,35,1,-65,-53,-9,-4,-16
16410,-4,-27,-3,44,5,0,-3,-5
16415,11,11,5,-31,1,3,1,1
16420,-20,-17,-8,30,8,0,-3,-31
16425,32,42,11,-45,-28,0,1,44
16430,33,3,-1,27,14,2,-1,-5
16435,7,-6,5,42,-15,-11,-5,10
16440,-13,7,4,35,26,3,-1,-16
16445,18,-16,-11,-15,-19,0,-2,-1
16450,-27,-1,3,-17,32,3,-1,6
16455,18,-15,3,2,-23,0,6,-3
16460,-9,12,1,7,9,2,-3,-7
16465,1,-6,-13,-60,-15,-3,0,-3
16470,-6,4,3,-22,-20,-2,0,-11
16475,-2,14,-4,-20,-1,0,-1,31
16480,-33,-18,-2,8,3,-5,-5,-54
16485,63,-9,-8,17,6,4,6,54
16490,-12,-1,-3,49,-8,-5,-4,-5
16495,16,40,1,-10,0,-2,-3,18
16500,-28,-50,1,-4,-6,-6,-2,-34
16505,24,-24,-2,18,13,0,-1,25
16510,-34,31,7,-39,-22,-3,2,-7
16515,-6,1,-6,24,-18,0,1,-2
16520,4,34,5,-72,32,6,0,-6
16525,-8,-13,8,43,15,-3,-5,3
16530,27,-7,-12,-19,-11,2,5,-1
16535,-12,-7,1,43,22,-3,-4,-9
16540,23,14,-1,-6,0,6,2,-7
16545,-30,-13,0,-18,-48,-12,-10,-75
16550,20,5,6,31,-1,0,1,57
16555,-14,-11,-1,-57,-8,1,-1,-4
16560,7,3,-4,25,2,-1,3,10
16565,14,45,0,21,18,0,0,-9
16570,3,-58,-11,10,-6,-2,-2,-11
16575,-36,-3,-6,-59,-17,-1,1,-13
16580,1,1,-3,-4,-26,-5,1,52
16585,0,13,11,55,25,4,1,6
16590,-30,9,14,-14,10,1,1,-21
16595,58,-15,-2,39,25,4,0,15
16600,-3,-4,-9,-23,-60,-2,1,-10
16605,-6,-18,1,39,29,-2,-1,4
16610,-2,1,-3,-46,-6,-6,-6,-3
16615,15,-3,0,-27,1,2,3,-16
16620,2,14,3,-42,-1,-1,1,30
16625,-21,-7,5,34,1,2,1,-19
16630,18,-21,-19,-30,19,-1,2,6
16635,-26,11,12,24,2,-2,-3,-13
16640,-48,-7,-3,7,1,-2,-3,-26
16645,1,-4,7,-39,-11,1,0,43
16650,1,18,0,33,17,3,-4,-18
16655,10,-13,-16,-43,-28,-7,3,10
16660,8,16,17,92,28,-1,-4,-7
16665,-6,-26,-7,-85,-6,5,5,-32
16670,-11,18,-3,28,-36,-10,-6,26
16675,20,-5,-3,-9,1,-5,-2,46
16680,-9,14,12,-3,10,2,0,-3
16685,-9,37,-1,36,11,2,-3,-4
16690,7,33,-6,2,-1,-1,5,-11
16695,33,-32,-5,4,5,0,-3,-5
16700,-15,-5,-5,1,-22,-5,-2,2
16705,1,0,-5,17,26,8,7,3
16710,-8,3,3,-10,-46,-6,-8,-35
16715,12,3,-1,44,10,-4,-2,52
16720,-26,-14,4,42,19,2,-2,-12
16725,33,-1,-15,-120,-18,-3,0,0
16730,10,-1,-5,28,0,1,1,-8
16735,-28,-7,-14,-14,4,-4,-3,-20
16740,20,-6,2,22,2,-2,-2,9
16745,-27,-5,12,49,5,-1,2,-12
16750,-25,-22,2,-38,1,-1,-2,10
16755,-16,65,10,49,-8,2,1,-12
16760,37,-30,-10,-68,-1,-3,-5,18
16765,30,-6,1,50,13,4,3,-2
16770,-10,-15,-10,-89,-33,-5,0,9
16775,43,7,21,38,17,2,-3,-6
16780,4,13,-4,44,-17,-3,2,-24
16785,-21,-23,-23,-46,-14,-10,-8,10
16790,5,0,15,37,28,2,-2,6
16795,-3,-6,-13,-34,-1,-3,-4,-1
16800,-28,8,6,-7,16,1,3,-20
16805,23,-29,-5,-21,-41,-3,-1,33
16810,-36,-2,9,60,29,6,3,-2
16815,-15,-13,14,-52,-6,3,3,-25
16820,7,1,-40,29,-22,-13,-6,40
16825,-26,-14,-2,36,20,-1,-5,-18
16830,-25,-4,5,-4,-3,0,2,5
16835,-21,-24,7,45,7,1,0,-15
16840,10,-12,-5,-49,9,4,3,1
16845,-11,8,7,13,1,0,-1,-10
16850,35,-6,-10,-54,-61,-6,-4,25
16855,-12,-10,-6,47,26,2,-2,-9
16860,-22,15,10,-57,-13,-2,0,-9
16865,-13,-5,-4,-1,10,-3,-7,-36
16870,31,10,-1,16,33,3,3,29
16875,-11,14,2,10,-15,-3,-2,7
16880,2,-14,-6,29,7,-1,-4,-30
16885,14,40,7,-53,-22,-1,2,2
16890,-5,-56,2,6,10,-3,-4,16
16895,-30,-15,-4,61,6,1,1,-7
16900,-21,0,3,-93,-1,-1,-1,11
16905,7,17,1,82,9,2,3,-8
16910,-7,7,-13,-75,-58,-12,-5,-29
16915,10,-4,-4,5,28,-1,-3,-4
16920,22,28,10,-15,5,6,2,-3
16925,-48,-40,-17,-30,40,2,1,1
16930,8,16,6,-1,-3,5,5,9
16935,-4,-10,2,0,-55,-10,-7,4
16940,6,-2,-24,44,27,-2,-6,-15
16945,7,6,12,0,2,5,5,24
16950,4,11,-5,37,33,4,-2,-31
16955,-7,-34,-7,-25,22,2,-1,23
16960,-20,28,1,-59,-46,-3,7,16
16965,12,5,15,29,-4,-4,-3,62
16970,1,-5,-2,-7,6,4,6,-19
16975,-7,13,4,-39,-7,-4,-3,-33
16980,-19,-22,1,55,3,-3,-3,23
16985,33,15,-1,-35,0,5,5,14
16990,-2,16,13,42,33,4,-1,-15
16995,5,16,-6,4,-26,-2,1,1
17000,16,-7,-6,-3,-22,-3,-5,-5
17005,-34,34,8,-14,-11,-4,-3,-25
17010,6,-12,5,65,24,3,1,31
17015,-18,1,-5,-32,19,2,1,-1
17020,31,-9,6,5,-20,-6,-1,-6
17025,12,-9,-4,0,5,2,-1,-5
17030,0,16,-1,-16,-40,-7,-5,-21
17035,-9,-4,-4,46,3,-6,-7,-27
17040,15,6,11,7,19,7,7,18
17045,-16,-9,-12,-36,-27,-7,-6,-11
17050,23,-7,-4,0,11,3,3,13
17055,8,-1,-2,-29,-6,1,-2,-26
17060,4,-2,-4,-14,-4,-4,-3,26
17065,-41,-15,0,46,0,-1,0,-20
17070,49,11,8,46,6,-1,-5,-2
17075,-36,4,-10,-87,-2,1,2,11
17080,-9,-12,-5,64,7,-2,-1,-21
17085,6,17,1,-18,-6,0,0,9
17090,-17,-33,-11,-13,8,-3,-1,-11
17095,32,5,15,65,14,4,3,15
17100,-24,-3,1,-1,15,4,-2,-11
17105,-1,-1,-14,-70,-24,-7,-1,0
17110,2,10,0,40,11,1,-2,28
17115,23,26,3,-4,-13,1,4,16
17120,-36,-18,13,-40,-10,-8,-3,-11
17125,5,0,-20,-35,-6,-2,-7,-11
17130,25,43,8,-12,5,1,-1,-24
17135,6,-2,-13,-8,-7,1,3,29
17140,-14,4,-4,3,-3,-1,-5,-70
17145,45,17,14,9,0,4,4,87
17150,-29,-51,-1,11,38,2,-1,-13
17155,10,22,10,52,-34,-3,0,-5
17160,0,-13,-6,-37,-1,-3,-1,-15
17165,-29,-4,-5,22,12,-3,-5,-36
17170,-7,9,-4,-27,-7,2,4,5
17175,-3,-16,-11,-5,15,-2,0,6
17180,16,0,18,67,-1,5,3,2
17185,-7,-16,-34,-72,-21,-7,-8,-21
17190,-30,1,10,-7,-25,-7,-2,5
17195,1,-43,-13,-42,4,-5,-4,-15
17200,0,7,6,22,24,7,3,33
17205,42,14,16,25,-22,0,2,-12
17210,-12,-15,-13,7,-9,0,-2,-12
17215,7,6,4,-24,-2,-5,-5,4
17220,-22,-10,-14,-25,-9,-4,-2,-5
17225,-5,-9,14,34,18,4,5,15
17230,17,37,-13,-46,-4,-3,-2,13
17235,-3,-33,6,33,7,4,5,3
17240,6,3,9,20,12,2,-2,-26
17245,-7,-38,-3,22,-3,-3,-2,37
17250,9,18,1,-4,-14,-4,1,15
17255,-26,6,-10,-30,13,2,-2,-3
17260,27,-12,-5,-29,-21,-3,-3,3
17265,-40,-4,4,13,0,0,-1,-31
17270,-9,-35,-1,34,12,-2,-2,-7
17275,22,44,14,-26,-4,-1,-2,14
17280,-8,8,-14,12,18,3,2,0
17285,11,7,9,-38,-19,-3,-1,-5
17290,7,-9,-20,-6,-5,-2,0,5
17295,-47,-4,6,3,-1,1,-3,-19
17300,17,-2,-6,-25,6,-1,-1,-7
17305,6,5,9,23,7,1,0,-5
17310,-15,10,2,-17,-4,-2,-1,-17
17315,17,-11,-8,47,-8,-4,0,3
17320,-5,10,7,-66,-10,0,2,12
17325,36,-9,-4,20,6,1,2,1
17330,-19,-1,6,5,3,-5,-7,-18
17335,7,17,-13,-30,23,6,-3,-37
17340,17,-5,1,28,-28,-5,1,74
17345,28,28,-1,-22,-4,-1,0,-20
17350,-44,-43,4,2,-1,1,-1,-8
17355,10,-1,10,61,19,3,2,18
17360,-5,-8,-6,-11,4,-4,-8,-28
17365,-3,-4,-10,27,12,0,2,-7
17370,14,14,6,13,-4,-2,-3,1
17375,-23,-10,-3,-3,-11,-2,2,-4
17380,34,-6,-4,-47,-5,-1,-1,1
17385,-17,2,8,28,10,3,-2,-3
17390,1,-9,-2,31,34,-1,-3,-8
17395,-15,6,-10,-46,-33,-9,-3,5
17400,-3,8,1,79,20,5,5,6
17405,16,25,4,-35,1,1,0,-11
17410,-23,-11,6,13,14,8,5,-18
17415,63,-1,3,2,-20,-1,1,47
17420,-41,10,-8,-12,-20,-7,-5,8
17425,-20,-30,-6,-36,0,0,-1,-10
17430,-9,5,3,17,13,1,-3,-3
17435,6,4,6,-1,3,1,1,-10
17440,6,10,-2,-8,-5,2,1,20
17445,-23,-23,-8,72,-3,-9,-6,-35
17450,29,18,3,13,13,5,2,51
17455,-15,-32,-8,-25,-44,-7,-6,-13
17460,33,-4,2,-38,-9,-1,0,-10
17465,-21,-6,-10,-54,-10,-4,-3,-9
17470,10,-3,-7,-49,-2,-3,-1,-20
17475,-10,9,2,35,33,-1,-1,15
17480,27,4,4,27,-14,-3,1,9
17485,0,6,4,15,-1,-2,0,7
17490,-1,27,-16,-17,-25,-9,-4,-13
17495,-36,-22,5,16,19,1,-1,-2
17500,-9,-6,1,28,14,-1,0,-11
17505,4,-10,6,-52,-5,2,1,11
17510,6,5,-2,-19,15,4,5,-15
17515,7,-6,-5,25,-35,-8,-6,6
17520,25,-13,-3,-16,10,2,-1,0
17525,10,14,12,63,9,2,3,-12
17530,-13,1,-14,-89,-33,-8,-5,5
17535,4,-1,-7,-51,-6,-2,1,4
17540,-28,1,2,36,29,3,-4,-44
17545,20,-7,2,-8,3,0,3,77
17550,2,-6,4,32,-39,-4,-5,-27
17555,-20,-3,-4,-38,7,-2,-2,-18
17560,-12,-37,-13,13,1,-4,-1,3
17565,2,40,3,13,8,2,2,-8
17570,-6,-6,14,11,6,6,4,12
17575,40,11,-3,2,-3,-2,-2,6
17580,-21,20,3,-20,9,-3,0,-14
17585,3,-21,-5,58,12,-1,-3,-3
17590,0,16,20,-17,-13,0,0,17
17595,2,11,-5,-43,0,2,-1,-21
17600,-4,15,-4,0,-30,-4,-3,-6
17605,-6,-8,-3,-35,-12,-3,0,-1
17610,-13,-5,-1,46,10,-2,-2,2
17615,-1,0,7,-7,12,2,1,-12
17620,-2,1,-8,-6,2,1,1,14
17625,-22,-5,3,10,-7,-2,-8,-12
17630,42,-22,-9,-14,6,3,0,-17
17635,-52,20,13,47,-5,1,3,-11
17640,-42,-10,-8,-36,2,-1,-2,-1
17645,46,-20,10,29,-5,5,4,2
17650,-14,11,-16,-83,-12,-10,-9,-9
17655,25,-10,5,22,19,1,1,7
17660,4,9,6,-18,0,-2,0,1
17665,-27,-8,-24,38,4,0,0,-11
17670,3,-14,5,15,13,3,5,12
17675,13,33,1,-13,-16,-1,0,-10
17680,-49,-51,1,25,1,-3,-5,20
17685,-16,14,8,-24,11,0,3,-2
17690,7,-11,-11,27,-8,-5,-3,-3
17695,-4,-3,-14,-18,-3,-1,-2,-31
17700,29,12,8,13,16,5,8,-10
17705,35,-1,-7,-11,-1,3,0,43
17710,-37,21,1,8,-20,-7,-3,-7
17715,13,-13,7,13,10,2,-2,7
17720,22,13,10,-28,0,-1,0,-1
17725,-3,-10,5,60,14,-3,-4,-22
17730,21,5,-15,-48,-28,2,2,18
17735,-7,7,-3,-6,25,-7,-6,7
17740,-2,13,-2,36,-5,-2,-3,-1
17745,-8,2,-7,-12,17,6,4,-2
17750,36,-1,3,6,-4,-3,-2,3
17755,-23,-13,-19,-31,-19,-7,-6,-6
17760,6,-5,-2,10,13,3,2,15
17765,3,-5,1,-20,-26,-11,-7,-27
17770,-44,1,13,33,0,3,3,15
17775,44,-2,-12,-60,-6,0,-2,8
17780,4,11,15,34,25,4,-1,-7
17785,-7,-1,-11,-34,-15,-8,-4,-1
17790,28,-9,-1,5,-1,-2,0,-18
17795,-5,-3,5,27,-1,1,2,23
17800,0,2,-3,-10,-11,1,2,5
17805,-11,3,1,-13,0,-1,-4,-11
17810,-5,-9,-3,16,12,0,-3,-2
17815,-16,4,9,38,9,-3,-2,-5
17820,-4,-28,-10,4,-21,4,0,-51
17825,3,16,6,-78,-21,-6,4,67
17830,25,-1,-2,-32,-10,-5,-4,-4
17835,4,-4,7,74,23,7,3,18
17840,23,19,-10,-40,-17,-6,-3,-11
17845,-60,-4,-1,-10,7,1,-4,-54
17850,-8,3,12,23,10,7,0,21
17855,-5,-6,1,27,5,-3,-1,-12
17860,21,1,-8,0,-1,-5,-3,25
17865,-36,8,-8,-21,-12,-8,-8,-28
17870,3,-1,-4,-3,2,1,2,4
17875,-9,-10,6,7,-6,5,0,-50
17880,8,2,-3,-20,8,1,3,65
17885,2,18,-1,-45,-20,-2,-2,-2
17890,-16,-17,-10,-23,8,0,-1,-7
17895,-7,-7,-5,-13,-24,-4,-2,-9
17900,21,5,7,48,28,-1,0,8
17905,-28,-28,1,16,-1,-1,-2,-4
17910,3,25,5,20,11,1,2,8
17915,-17,17,3,-29,-1,3,5,14
17920,-11,-19,-11,-32,-36,-3,-4,-19
17925,35,-12,2,29,7,0,0,5
17930,2,27,-6,6,-7,1,2,-3
17935,-8,-45,-7,-7,12,-4,-4,-34
17940,1,4,7,-16,-2,-2,-1,24
17945,21,-6,-7,-19,-1,2,-1,-7
17950,-2,-21,4,5,0,-2,-2,-1
17955,16,11,-9,-50,-33,-6,-3,39
17960,-18,6,3,1,0,0,-1,-20
17965,9,-22,-14,4,14,2,0,-3
17970,14,19,-7,0,19,2,-1,-9
17975,0,-3,-3,-21,-23,1,-3,-24
17980,-9,-9,9,70,0,-3,1,25
17985,7,13,-2,-51,-16,-3,-6,3
17990,-3,-14,-3,19,20,1,1,-15
17995,-6,2,-2,3,9,-1,-2,2
18000,9,9,3,-12,0,2,2,-7
18005,4,0,1,36,13,6,3,-3
18010,-18,1,5,-28,-25,-4,0,-11
18015,-2,-7,8,76,24,-2,0,6
18020,8,-27,-12,3,8,-5,-6,15
18025,18,7,1,-43,-12,-4,-3,8
18030,-3,1,-1,-43,8,5,3,-5
18035,-9,4,-7,74,-3,2,0,12
18040,-21,8,9,10,13,1,-4,-33
18045,36,-9,7,52,2,-4,4,49
18050,17,2,-6,-85,-37,-2,0,1
18055,4,9,8,58,19,-7,-7,-9
18060,-5,-2,-5,62,12,-7,-4,-3
18065,-7,-5,1,-22,17,7,3,-11
18070,-16,-16,-5,28,-5,-3,-7,-39
18075,20,1,4,-16,4,4,1,51
18080,-23,-11,-9,-39,-14,-5,-4,-22
18085,19,13,6,24,4,2,5,17
18090,-2,13,-6,9,-3,-6,-4,11
18095,-13,-16,-3,-29,8,2,0,-22
18100,8,-22,-5,-17,12,-2,-5,4
18105,-30,-1,9,39,-21,-3,-2,-17
18110,7,-14,3,23,16,6,1,-3
18115,-27,13,-2,-28,4,0,1,1
18120,14,15,6,-10,-3,2,2,-8
18125,-16,-3,-4,6,-15,-4,-2,-13
18130,-2,-9,4,19,11,-1,0,5
18135,9,6,1,-21,-7,0,0,1
18140,-3,8,-7,-12,-2,-2,-2,-4
18145,-11,-3,-1,38,-16,-2,-1,-14
18150,-7,-7,5,28,3,-2,-4,23
18155,-2,5,-10,-45,-6,-3,0,-9
18160,14,1,12,12,-11,3,5,13
18165,12,10,-13,-39,-10,-4,-5,-20
18170,-35,-9,-8,-35,1,-6,-4,-17
18175,40,-2,-2,-25,2,-4,-1,50
18180,-19,3,6,-1,2,0,0,1
18185,-12,-3,-4,40,30,4,2,-4
18190,5,-1,3,-10,-4,1,5,2
18195,3,21,-10,-35,-62,-5,-1,-1
18200,9,-13,0,21,2,-2,-2,-9
18205,-6,-1,7,10,21,-1,-1,10
18210,-7,-6,-5,-28,8,-2,-3,-5
18215,-11,5,5,-19,2,4,3,-8
18220,-13,9,-5,-27,-5,0,0,-3
18225,-4,2,-13,9,-9,-5,-6,0
18230,12,6,0,68,3,-3,-2,-9
18235,5,1,3,-29,17,0,-2,-7
18240,-4,4,-5,-54,-46,-4,-2,-8
18245,-1,-9,4,-6,31,3,-1,-5
18250,6,4,7,21,-1,-1,-2,8
18255,6,-2,19,43,13,5,3,5
18260,-11,-9,-4,-13,-2,0,-1,-13
18265,-43,1,-19,-89,-31,-8,-4,-19
18270,35,-1,-3,8,-7,-4,-1,3
18275,-13,-16,-4,24,6,-2,-3,-15
18280,-15,10,3,29,19,6,0,-8
18285,26,-4,9,31,0,-1,-1,45
18290,-10,3,-7,-41,-7,1,-1,-1
18295,-13,-8,-2,16,16,3,-3,-13
18300,28,1,1,14,2,-3,-3,4
18305,-6,-3,-7,-6,-12,0,4,2
18310,-26,-21,-3,-10,-17,-4,-1,14
18315,16,-4,-6,-32,-3,1,0,-3
18320,-10,9,4,24,9,3,1,4
18325,9,-5,7,-5,26,0,-2,-18
18330,0,3,-5,33,15,4,2,-10
18335,-5,2,-4,-2,-8,-2,0,0
18340,3,8,-1,-4,-8,-2,3,0
18345,-10,3,9,27,17,5,1,-39
18350,35,0,-17,-77,-29,-9,-5,24
18355,4,-4,-1,28,4,-2,-2,7
18360,-1,-1,-3,32,13,-1,-2,-1
18365,-6,-4,0,-28,-19,2,0,2
18370,18,0,4,45,19,0,-2,-20
18375,-36,1,4,-22,-16,-4,-1,-25
18380,13,-2,-8,-17,3,2,2,21
18385,-5,1,-3,-8,9,-2,-3,-5
18390,1,-6,-1,46,-17,2,-1,15
18395,1,-4,-7,-30,-9,-3,-4,-2
18400,-10,4,9,20,29,6,1,-17
18405,-1,-3,-14,-9,-10,-2,0,2
18410,-6,15,3,0,-19,-1,-3,10
18415,12,0,1,48,8,-1,1,1
18420,-7,-3,-3,-42,-22,-6,-3,-2
18425,-20,3,4,15,20,6,1,4
18430,19,-4,-2,18,-2,-7,-7,-70
18435,33,-8,-1,-9,-12,0,5,50
18440,6,6,8,57,20,1,-2,-5
18445,-6,28,-1,-78,-30,-6,-3,4
18450,-21,-11,9,36,24,6,4,0
18455,8,-4,-7,-32,-9,0,-3,-35
18460,-4,-2,-12,-58,-15,-5,-4,19
18465,0,-1,6,19,-18,-3,0,-15
18470,-3,-2,12,19,40,6,2,52
18475,5,5,-2,-11,-22,-5,0,-3
18480,-12,-4,-2,2,-3,0,-2,-13
18485,2,0,7,32,10,1,-2,-7
18490,-10,-6,-5,-7,-3,2,4,9
18495,-18,0,-9,12,13,-2,-4,-14
18500,6,12,4,-26,-5,-5,-3,-8
18505,-3,-13,-10,-4,-11,-4,-1,9
18510,-31,3,4,-25,12,2,0,-10
18515,-32,-4,2,43,5,2,-4,-66
18520,19,-3,-4,-2,-24,-4,4,53
18525,33,-3,6,25,37,2,-1,-2
18530,-33,12,-3,-60,-26,-1,1,18
18535,5,-3,2,-8,-9,-3,-1,4
18540,10,-2,-5,22,11,-2,-4,-10
18545,0,-5,-2,37,9,3,1,-8
18550,3,-3,3,6,4,1,-1,-9
18555,-7,22,14,32,21,4,0,36
18560,4,-36,-7,-52,-21,-2,-1,-14
18565,-5,-11,-10,46,0,1,2,32
18570,18,15,-1,17,-1,-10,-7,-19
18575,-4,2,3,-29,-9,1,1,6
18580,-15,-5,-7,-12,-3,-7,-6,-4
18585,1,-4,7,19,2,0,-3,-11
18590,-12,-10,-7,-27,-7,-1,-2,-9
18595,17,-2,6,30,17,4,2,-3
18600,4,2,-5,-33,-4,2,1,-5
18605,10,19,-7,-62,-38,-6,-6,-18
18610,7,1,3,31,8,-3,2,15
18615,-20,-6,-11,-11,8,-6,-6,-12
18620,7,3,8,14,-3,3,2,3
18625,7,-6,0,0,-1,0,0,-4
18630,-17,-3,5,5,10,2,1,0
18635,15,-8,-7,-9,-27,-2,1,12
18640,6,-7,-10,-58,-18,-3,-1,-33
18645,-21,6,4,0,2,-1,1,30
18650,3,-5,-3,-2,-1,-1,-1,-1
18655,-1,-13,5,-16,11,-2,-2,14
18660,-21,1,5,34,21,6,2,-17
18665,24,-3,-10,-3,-2,-3,-3,35
18670,-6,4,0,-8,-1,3,1,-8
18675,4,-1,-6,-53,11,2,1,1
18680,-2,1,10,77,-43,-8,-7,-15
18685,11,0,-23,-83,-18,-4,2,19
18690,5,-7,-3,16,-18,-5,-6,-34
18695,-35,4,5,40,35,3,-1,30
18700,6,12,0,-18,16,-1,1,13
18705,-7,0,10,50,16,1,0,-20
18710,10,-8,-11,-38,-14,4,3,11
18715,14,1,-11,-53,-37,-8,-4,-9
18720,-34,2,6,65,31,4,-1,-3
18725,-12,-10,0,5,-23,-2,-2,-9
18730,3,4,-1,-2,-2,-2,-2,6
18735,-1,4,7,12,8,2,2,-7
18740,-6,-5,-4,-6,-11,-2,-2,16
18745,4,-6,-2,-7,16,-3,-5,-21
18750,-14,-8,2,36,8,3,4,-46
18755,18,3,-8,-23,-24,-5,-3,71
18760,17,10,-18,-25,2,1,1,8
18765,-22,-4,8,29,16,4,1,-9
18770,8,-1,6,18,5,-7,-6,1
18775,7,-9,-2,22,-6,1,0,-36
18780,0,22,-2,-16,25,5,9,57
18785,6,-16,1,-48,-37,-9,-6,-6
18790,12,2,-3,31,1,1,2,44
18795,-2,0,-6,-17,4,-2,-2,-16
18800,8,3,9,-7,-8,0,0,-12
18805,-20,-2,5,85,22,1,-2,-18
18810,-6,-4,-8,-27,-7,-3,-2,7
18815,4,0,6,7,0,0,-1,-5
18820,6,-8,3,14,7,1,3,-8
18825,-17,21,-4,-15,-1,-2,-3,-4
18830,-12,-6,3,-29,-25,0,-2,-15
18835,3,0,-4,7,-1,1,3,28
18840,-5,-7,-6,-3,5,2,-2,-24
18845,-1,-6,3,-18,9,3,2,11
18850,4,0,-9,14,4,-2,-3,-2
18855,-20,-6,-10,-42,-21,-1,4,-14
18860,-17,-8,24,72,-12,-5,-4,17
18865,24,7,5,-39,23,-2,1,-7
18870,7,4,-6,-25,8,2,1,27
18875,-17,-1,5,22,3,4,0,-33
18880,11,0,-1,7,4,4,3,26
18885,8,-20,-13,14,-14,-8,-3,3
18890,17,11,7,-1,18,-1,-1,-8
18895,-4,-2,-1,51,-3,-5,-6,-9
18900,-14,-3,-13,-53,-5,-3,-3,-23
18905,15,1,7,32,9,5,1,20
18910,-2,3,13,16,18,4,3,0
18915,10,0,-9,-7,-32,-2,0,-7
18920,-21,-4,-12,-19,12,-6,-5,-7
18925,16,-3,-4,-3,-9,0,0,-19
18930,-40,-2,0,-7,-7,-1,-1,22
18935,18,4,6,48,14,3,2,30
18940,11,1,-10,-16,2,-3,-4,-16
18945,-16,-4,0,-5,-46,-5,0,0
18950,19,-4,1,-25,-2,0,-2,-17
18955,-69,4,-1,-16,-4,-2,-7,-43
18960,40,0,0,-27,-4,-2,-3,17
18965,-4,-6,-6,-4,11,1,1,9
18970,-8,-1,3,5,2,-2,-4,-16
18975,17,-7,-4,0,5,5,1,-4
18980,-23,9,4,9,-15,-5,-3,1
18985,-2,-26,4,-20,6,2,1,-22
18990,6,2,-5,22,-15,-5,-1,43
18995,54,1,-7,-11,24,-1,-3,-9
19000,-23,-3,5,7,16,4,4,-13
19005,7,6,-2,3,-30,-2,-1,6
19010,-10,2,-6,0,-7,-6,-5,-5
19015,3,-17,3,13,15,-1,1,8
19020,15,2,6,-1,-11,1,3,-6
19025,-39,8,-6,19,15,-3,-7,-11
19030,5,-2,6,-6,-2,0,2,7
19035,-11,5,-10,-25,1,1,-1,-4
19040,35,-4,0,-7,-45,-4,-2,4
19045,1,3,9,3,22,3,0,3
19050,-20,-4,-8,4,-2,4,0,-55
19055,12,-2,0,-9,4,-4,0,86
19060,-25,-3,-3,-13,10,0,-2,-28
19065,31,6,-2,5,-6,-2,-3,-8
19070,7,-9,-8,-15,4,-2,-1,-1
19075,1,-9,7,-17,-10,1,4,6
19080,15,-1,-14,22,-11,-3,0,-25
19085,-24,12,7,23,22,2,-3,16
19090,3,-10,0,10,5,0,-1,-13
19095,5,8,7,-18,-12,-1,-1,-14
19100,-32,-5,2,3,4,-4,-4,18
19105,-5,5,1,14,14,6,6,-5
19110,-10,-6,-3,-16,9,-1,-3,-5
19115,15,-2,5,23,-1,-3,-1,1
19120,0,9,-2,-33,-10,1,1,15
19125,19,0,-6,-51,-6,-2,-1,17
19130,-31,-2,-8,6,-2,-1,-2,-21
19135,-20,14,-6,-8,-14,-2,0,-4
19140,34,-13,-4,12,18,3,-1,-6
19145,-12,-6,6,15,-24,-3,-1,-11
19150,20,10,-1,-3,-7,0,0,27
19155,-10,-7,1,-11,9,-4,-6,-22
19160,-1,13,1,2,-4,5,2,-7
19165,-23,-7,-2,-16,-7,-4,-3,20
19170,9,-1,5,1,2,-1,-1,-10
19175,-4,-1,-3,6,1,0,-2,-7
19180,-8,-4,4,38,17,0,0,-9
19185,13,-3,-5,13,-1,-2,0,2
19190,-9,0,-4,-46,-12,-2,-3,6
19195,5,3,-5,4,-3,-2,-2,-11
19200,-27,-16,-2,19,-13,-6,-3,1
19205,6,3,-1,28,16,-1,-2,-16
19210,7,4,18,4,4,2,0,3
19215,-11,-5,-13,2,21,2,2,-18
19220,51,6,-6,-17,-39,-4,-2,26
19225,3,5,12,23,3,-1,-1,-5
19230,11,0,3,0,10,3,4,14
19235,-10,-9,-6,-59,-18,-4,-5,-3
19240,-9,-2,-3,2,7,1,1,-9
19245,-19,3,-1,-22,1,0,0,-3
19250,3,-7,-6,14,-9,0,2,7
19255,-2,-3,8,34,1,1,1,-5
19260,-7,8,-2,-11,14,0,-3,-9
19265,39,13,4,20,7,1,1,30
19270,-30,-2,-2,-43,-28,-5,-3,-2
19275,-31,3,0,-10,2,-2,-1,-29
19280,-10,-1,1,-14,12,3,4,45
19285,10,-6,-7,4,-19,0,-1,-1
19290,-2,-3,1,5,-14,-9,-5,-16
19295,7,-3,-1,36,-5,0,0,13
19300,-6,3,7,-18,6,-2,-5,-17
19305,-22,-1,-2,13,29,9,3,-8
19310,6,-5,-3,9,0,-6,-3,7
19315,9,5,6,-22,-20,-3,0,-6
19320,0,-9,-17,22,13,1,2,-4
19325,-22,-3,0,-29,-6,0,-1,1
19330,12,7,-1,8,23,5,-4,-6
19335,11,6,8,53,-12,0,5,24
19340,4,1,1,13,-2,-7,-2,-8
19345,1,9,-14,-30,-15,-5,-3,-9
19350,1,1,-2,28,5,3,2,5
19355,-26,-11,9,-5,19,3,-2,1
19360,45,-4,-1,-20,-18,-2,0,2
19365,25,-5,-13,-4,0,-6,-5,-29
19370,-11,0,5,-28,-2,0,1,28
19375,7,3,-5,33,9,0,0,-5
19380,-20,-6,1,-35,6,5,0,-9
19385,6,-8,-1,-30,-2,-1,0,-3
19390,13,-1,3,52,-4,1,0,-13
19395,-19,-2,-5,17,-9,-7,-6,-4
19400,-20,-6,-5,15,12,-1,-1,11
19405,1,1,-7,-78,-21,-1,3,8
19410,-2,-2,-6,29,6,-1,-1,0
19415,20,9,8,-18,0,-2,-2,-3
19420,-23,-5,5,-27,1,2,-5,-26
19425,-9,17,0,33,3,0,1,13
19430,50,-9,-4,-44,-8,-4,-2,2
19435,-20,3,-12,-15,-3,0,-2,-27
19440,14,2,16,18,17,0,-3,2
19445,6,-6,1,31,-18,-1,2,11
19450,-15,-2,-18,-32,3,2,-2,3
19455,-12,1,13,2,2,-5,2,-5
19460,2,0,-10,-30,-28,-5,0,17
19465,-2,-1,13,29,25,3,4,19
19470,4,-4,-10,-1,11,0,-3,-14
19475,-3,-16,-1,33,27,2,-1,0
19480,-14,13,14,13,10,0,4,1
19485,1,-13,-8,8,-21,-4,-4,-19
19490,-28,6,-1,27,-9,1,1,2
19495,37,-4,-14,-9,21,-6,-13,6
19500,19,-13,-6,-1,7,-1,-8,-33
19505,-10,-11,2,7,5,2,20,34
19510,36,49,10,12,-11,3,3,6
19515,-33,-22,-4,-38,-13,-6,-9,15
19520,-24,2,0,23,-6,-1,0,-18
19525,-1,-14,3,47,22,2,-8,-35
19530,4,13,6,-3,8,0,0,38
19535,52,-4,4,54,-11,1,4,-4
19540,-14,-5,-13,-60,-3,-6,-8,-8
19545,-3,-3,-3,-27,-21,3,-1,0
19550,-26,-7,-3,-7,-6,-5,-1,-22
19555,21,6,10,57,26,6,2,-26
19560,62,29,7,-55,20,7,7,55
19565,-58,-21,-9,34,-59,-14,-16,-35
19570,12,-30,-6,-6,4,1,8,28
19575,-14,12,10,-44,-24,-1,0,0
19580,14,-12,4,65,18,4,1,-10
19585,15,4,-8,-50,15,1,-2,5
19590,8,6,-5,49,9,-2,-7,-17
19595,-60,4,3,-63,-24,0,4,9
19600,-35,-1,-9,21,4,-3,-2,-11
19605,6,11,14,-6,-4,1,-2,2
19610,-22,-21,3,33,-3,-5,-3,-9
19615,29,-9,-14,3,3,2,5,10
19620,-35,2,2,-2,-38,-3,-2,2
19625,12,2,-4,-63,22,2,0,-7
19630,-28,6,12,38,21,-1,1,9
19635,9,3,-7,-28,-14,-2,-2,7
19640,-2,-4,-9,-12,8,3,1,-5
19645,3,-15,7,28,-13,-2,3,-25
19650,4,5,-1,-65,-18,2,3,63
19655,3,32,4,29,7,2,0,3
19660,-32,-31,3,11,-17,-3,-2,-4
19665,18,14,-2,12,34,4,0,-24
19670,-1,-13,-4,0,-4,-3,-6,-1
19675,14,-8,-5,0,4,0,0,-10
19680,12,37,8,5,-6,-1,0,19
19685,-22,-2,4,-16,-1,-1,0,8
19690,-12,-5,5,-29,7,-1,0,-27
19695,17,-5,10,57,19,0,-2,24
19700,-17,-17,-11,-33,-15,-5,-3,-13
19705,40,7,2,32,8,0,-2,15
19710,8,-31,-12,-57,-21,-3,1,-22
19715,-15,-18,-1,26,-14,2,3,14
19720,23,3,6,59,33,-4,1,-14
19725,-12,-4,-6,0,2,-2,-4,14
19730,-4,5,-9,-57,-10,3,-1,-40
19735,7,4,1,-34,19,0,4,16
19740,8,-4,1,32,1,-1,-4,-2
19745,-13,5,-8,-7,-37,-3,3,9
19750,9,6,4,28,17,1,-1,-17
19755,-4,-4,-17,-60,-20,-3,-2,-7
19760,12,8,4,1,9,2,2,8
19765,3,-4,-7,11,6,0,-3,2
19770,-17,-3,-1,5,6,2,-1,-9
19775,30,-7,-15,28,-2,-3,-2,-4
19780,-12,-12,-8,-50,-13,-2,-4,-7
19785,9,4,12,25,19,0,-2,-2
19790,-5,5,0,26,7,1,3,-5
19795,11,-3,-13,-103,-19,-4,-4,-4
19800,-3,13,11,8,-36,2,3,-9
19805,5,1,-7,49,24,-1,-3,8
19810,-18,-1,3,-43,-5,0,0,-1
19815,-14,2,7,28,22,-3,-3,-8
19820,12,-5,-3,15,-5,2,1,-3
19825,-4,0,3,-22,6,-1,-1,5
19830,-19,-16,2,40,4,-1,0,4
19835,24,8,8,-18,-8,2,0,-19
19840,-64,-1,0,25,38,-1,-6,-3
19845,44,14,-1,-55,-66,-5,7,4
19850,18,1,-10,-16,-7,-6,-4,2
19855,-26,-7,-1,-18,-10,-1,2,-6
19860,-5,-5,5,31,30,5,2,7
19865,-26,-6,-9,-14,13,3,-5,-12
19870,25,6,-2,-36,-31,-9,-1,-1
19875,-7,9,6,4,15,3,0,9
19880,36,1,2,49,6,-6,-1,-14
19885,-45,6,6,-17,1,2,0,-2
19890,8,-2,-6,-3,-39,-5,-1,13
19895,-12,-3,5,13,1,2,-3,-8
19900,6,-6,0,-7,-4,0,1,4
19905,-4,-33,-7,31,14,2,4,2
19910,14,-4,0,-22,15,3,-4,-19
19915,-46,11,9,50,-2,-5,4,27
19920,0,-5,-10,-57,-24,-2,-5,-1
19925,10,7,3,-10,-4,-2,10,5
19930,-3,-2,8,33,24,3,-3,-17
19935,13,10,-7,-16,11,4,-4,32
19940,-20,-12,-9,-16,-37,-11,1,-12
19945,0,9,7,-31,-17,-4,-7,22
19950,4,-2,1,6,8,-1,-1,2
19955,-13,-6,-7,8,6,-1,-3,-25
19960,7,-7,6,2,0,-3,-10,1
19965,10,17,-5,-26,12,-1,6,1
19970,-5,-9,-6,-4,-6,2,3,3
19975,9,10,7,-32,-16,-2,-5,-11
19980,-7,1,-5,33,-8,-2,0,0
19985,27,-14,-13,-17,32,-1,-4,-2
19990,-39,9,8,8,-9,-1,-1,7
19995,-13,-16,-5,5,6,0,-2,-11
20000,17,10,-5,-11,-10,1,6,15
20005,-1,-4,8,-23,-14,-3,-7,-57
20010,19,11,-7,32,22,-3,0,67
20015,7,-8,-1,0,-16,-1,4,6
20020,2,1,10,9,8,4,-3,-2
20025,-7,-6,-22,-26,-5,-6,-5,-2
20030,8,1,-2,13,10,3,0,-9
20035,-7,13,4,8,-19,-3,-2,-16
20040,-6,-26,-5,15,27,7,8,9
20045,-8,-6,-12,36,-7,-2,-4,6
20050,-4,-5,-1,-41,-49,-10,-3,-15
20055,8,-1,5,39,-1,-1,-2,6
20060,10,8,-3,-41,5,3,3,-5
20065,-29,-6,7,27,17,2,-6,-8
20070,-27,-6,-6,-85,-9,-3,-4,-3
20075,32,-4,-14,24,11,-1,0,-5
20080,-17,8,0,-39,-37,-5,-8,-38
20085,28,-1,3,28,13,3,5,56
20090,19,7,9,26,30,7,1,22
20095,-7,-9,-8,-12,-5,-1,3,-11
20100,-22,-10,-10,-31,-3,-6,-4,1
20105,27,-1,2,7,-5,0,1,-12
20110,-43,-8,10,40,7,1,-2,-26
20115,44,-6,-9,-24,12,2,-2,18
20120,-22,33,7,13,-8,-4,-2,-14
20125,-17,-41,-7,-25,-2,2,7,3
20130,-10,7,-1,5,-50,-12,-4,9
20135,-15,-2,1,47,24,1,0,-9
20140,19,-8,-9,13,10,3,1,18
20145,7,11,2,-76,-11,-4,-5,-16
20150,-27,15,5,35,18,3,3,-10
20155,-10,-8,-3,16,-2,-6,-5,-3
20160,8,3,6,46,4,0,-1,-4
20165,-11,9,-9,-27,-4,2,-5,11
20170,57,-8,-13,-31,7,4,3,-24
20175,-96,13,7,-55,-15,-8,-5,11
20180,-6,-11,8,11,14,2,2,7
20185,39,21,6,38,0,-2,-2,-18
20190,3,-30,0,11,5,1,-3,-9
20195,2,8,-15,-46,-18,-3,-2,-4
20200,15,-2,5,-7,4,-1,2,13
20205,-29,-3,9,25,13,0,-3,-14
20210,39,3,-14,-4,-11,-1,0,5
20215,-11,4,4,-7,17,6,5,-6
20220,-1,-9,-7,-45,-52,-10,-7,0
20225,-3,5,3,-9,-3,-3,-5,-12
20230,52,5,-6,-11,14,1,3,7
20235,-21,-3,-1,-21,6,3,2,-14
20240,2,-10,-2,14,-8,1,3,-1
20245,7,8,-4,16,-1,-4,-7,15
20250,-9,4,11,48,6,-2,-3,-31
20255,22,-2,5,30,11,2,1,32
20260,-11,-7,-4,-4,-18,-1,-2,-14
20265,-11,-24,-6,-39,-17,-4,2,19
20270,12,6,4,30,14,-3,-7,-35
20275,-15,8,-8,-45,-15,-3,3,3
20280,-4,4,12,16,23,4,-1,5
20285,10,1,13,78,10,5,6,-2
20290,-46,-6,-12,-11,5,-5,-2,14
20295,-11,-16,7,6,9,2,3,-9
20300,59,33,-6,-24,-2,0,1,13
20305,-13,-1,-6,6,-4,2,-1,-4
20310,17,-2,0,10,17,3,1,6
20315,28,11,3,96,-14,-2,-2,-2
20320,-41,-5,-9,-54,25,1,3,4
20325,5,-1,-8,-63,-36,-10,-4,-10
20330,-14,-3,9,19,0,2,1,19
20335,10,-14,-2,-7,4,0,-3,-11
20340,17,1,-1,79,20,3,0,-13
20345,2,8,1,-11,0,1,0,13
20350,-13,15,-18,-64,-26,-5,-1,0
20355,38,-4,9,62,5,0,0,1
20360,-68,-9,-1,-37,4,-3,-5,7
20365,-18,-7,5,40,15,2,1,-1
20370,1,12,-3,-33,-16,-3,-1,9
20375,28,2,-5,-48,-22,-6,1,-16
20380,29,0,6,14,1,1,-1,-2
20385,-12,-3,-23,25,13,-1,0,2
20390,-18,-11,-6,42,29,5,1,-11
20395,8,13,2,-36,-25,-2,-4,10
20400,-42,-6,-1,16,-18,-8,-4,-15
20405,2,7,12,12,-1,2,7,1
20410,17,6,6,4,1,-3,-3,9
20415,-44,-32,-8,13,18,2,-2,-4
20420,18,-7,-16,-100,-24,0,-3,-20
20425,-12,39,-1,29,9,-1,-5,33
20430,-41,-57,-2,29,-1,-5,-6,-30
20435,-11,7,1,-39,-1,-1,-1,11
20440,7,3,5,13,-14,2,8,-12
20445,19,-12,9,4,10,-1,-3,-2
20450,-5,13,2,39,-12,-7,-5,5
20455,9,8,-9,-24,-7,-3,-3,-6
20460,8,-5,0,70,16,5,1,-2
20465,-6,-3,2,-55,-16,-3,-3,-11
20470,-2,8,1,20,40,1,-2,10
20475,-2,-13,7,39,-10,0,6,-8
20480,25,-1,-12,-19,-4,-5,-5,16
20485,0,-1,9,-9,-40,-4,-3,1
20490,-8,6,18,26,1,5,5,3
20495,4,-6,0,17,4,1,7,15
20500,63,11,-3,-53,2,-3,-5,12
20505,-75,19,14,43,30,4,3,-14
20510,-7,-9,-10,-32,-20,-3,0,-26
20515,27,15,-11,-16,-10,-2,-5,43
20520,9,15,11,46,24,5,6,24
20525,1,-35,-10,-57,-45,-11,-8,-22
20530,0,5,-6,-30,11,4,0,17
20535,-9,-3,5,-39,-10,2,3,-30
20540,-13,1,-9,43,10,-4,-5,1
20545,19,1,-3,19,7,-1,-3,2
20550,-2,1,7,-14,3,4,2,-10
20555,13,-9,6,78,13,0,-5,8
20560,-4,-3,-8,-55,-3,-3,5,0
20565,0,-6,-19,-50,-16,-4,-4,-10
20570,-2,6,2,-1,-13,-3,-1,3
20575,-17,2,7,6,2,-3,-5,-15
20580,-4,1,14,69,15,3,-4,-3
20585,20,-3,0,-29,18,7,13,15
20590,20,15,-13,-10,-37,-13,-7,5
20595,-8,-17,-2,25,4,-1,-1,-20
20600,-16,-5,-2,-38,-10,-2,0,-8
20605,9,-2,-9,35,15,-1,-5,9
20610,11,3,11,32,7,2,4,-3
20615,-6,0,5,-48,4,0,-6,-10
20620,-13,-7,2,52,1,0,7,14
20625,45,5,1,-21,19,9,2,2
20630,-8,2,-12,-62,-20,-4,-3,0
20635,-4,2,2,90,24,-3,-2,-3
20640,26,4,11,-56,-24,2,0,-1
20645,-47,7,-20,66,14,-3,-2,-7
20650,-9,-58,7,-32,0,5,1,2
20655,-12,-1,-5,7,-3,-8,-6,0
20660,0,-7,-1,-24,5,2,-1,-7
20665,14,7,19,74,18,3,5,-10
20670,5,8,-6,-52,-30,-2,-9,1
20675,-9,-1,-4,-14,-4,1,10,-1
20680,-18,-14,5,27,11,-4,-7,-2
20685,15,-4,-8,-32,-30,-10,-2,-6
20690,-20,18,11,24,23,10,10,21
20695,64,-1,-29,-9,-14,-3,-3,6
20700,0,10,-1,42,8,-1,-6,-3
20705,-15,-6,2,-13,17,0,1,3
20710,2,-9,-3,-13,-18,-6,-7,-1
20715,7,-1,-2,-53,-8,-2,-8,-19
20720,8,32,-3,15,5,0,13,33
20725,-7,-12,13,5,-7,-3,-9,-6
20730,17,0,5,-15,24,9,4,9
20735,-35,-6,-2,-22,-25,-1,2,-20
20740,-4,-15,-21,-13,10,-4,-1,20
20745,-5,-2,11,-38,15,0,1,-9
20750,18,14,-6,31,-30,-7,-4,-4
20755,-15,-2,13,-6,6,1,1,1
20760,13,13,-2,-72,-20,-1,-7,-19
20765,3,10,4,116,44,5,-11,-19
20770,3,-14,-8,-29,-4,2,32,16
20775,-1,18,12,-1,-7,0,2,11
20780,20,-4,0,-1,-2,1,3,-7
20785,-11,-16,-7,-5,5,-6,-6,6
20790,3,11,-20,-64,-6,-2,-8,-27
20795,11,-5,-1,48,14,2,1,18
20800,-16,-9,8,3,-11,-4,-5,-23
20805,27,-4,-1,-59,-26,2,4,34
20810,-7,13,24,95,69,9,12,14
20815,46,-34,-3,-34,-32,-4,-6,-20
20820,-56,-5,-3,-14,-29,-7,-4,-1
20825,2,8,-10,-47,-17,-5,-3,-8
20830,-11,0,13,36,7,-1,-3,-6
20835,-15,5,27,37,44,8,-9,-1
20840,40,10,-23,-25,-16,1,19,30
20845,-3,-31,-1,45,-31,-7,-8,-5
20850,-23,-10,-6,-8,6,3,0,-7
20855,-5,-5,-8,-16,-1,-1,6,-11
20860,22,43,9,12,-2,-1,-7,21
20865,-45,-30,-9,27,18,5,10,27
20870,-36,9,5,30,-7,-2,-16,-14
20875,-21,-25,-16,-4,-6,-8,-3,3
20880,20,0,-5,-34,9,3,2,-16
20885,-18,10,0,28,0,6,-2,-35
20890,42,10,-16,-68,-51,-8,-6,21
20895,-43,12,10,74,21,-2,-11,12
20900,8,-22,1,6,11,3,8,-9
20905,18,2,-7,-70,-15,-3,1,-27
20910,22,-13,7,43,16,3,-4,41
20915,-17,69,-17,-32,1,1,4,-5
20920,-45,-42,12,-16,-51,-10,-17,-22
20925,13,24,2,-1,1,-1,0,7
20930,-24,-23,-18,-88,-39,-6,2,-32
20935,50,-6,19,99,57,0,-10,13
20940,-21,-6,-12,14,24,10,0,2
20945,22,13,9,1,-12,-5,0,-1
20950,-8,-2,-6,-37,-19,1,0,-11
20955,2,-3,-4,-24,4,-1,-1,3
20960,-27,-24,-2,-1,22,-1,-9,-13
20965,6,1,-6,-26,-18,-1,9,13
20970,13,-41,-1,40,23,-2,-7,-1
20975,-6,3,0,-11,-19,0,5,0
20980,13,0,-6,-6,-11,-1,-1,-9
20985,-21,-8,-8,-19,12,0,-5,2
20990,0,17,4,-16,13,0,-2,-10
20995,-5,-9,-2,-27,-21,0,3,17
21000,-11,17,12,43,17,2,4,2
21005,-33,-52,-7,13,4,3,-1,-3
21010,32,44,2,-62,-11,-2,0,5
21015,-16,-17,-3,0,-10,-5,-2,-14
21020,4,5,0,3,9,0,-4,12
21025,46,10,3,-8,-16,2,1,-5
21030,-46,-13,0,1,-4,-7,-1,-9
21035,15,-16,2,58,12,6,5,-6
21040,-29,5,-6,26,7,-1,-4,2
21045,7,9,0,38,4,-1,0,14
21050,20,-7,-4,-27,-14,-7,-2,-26
21055,4,19,-4,-6,-7,0,0,27
21060,-2,-54,8,43,1,-3,0,-12
21065,-27,14,18,45,19,7,2,8
21070,-1,2,-12,9,-12,-2,-2,4
21075,2,7,-4,-37,-20,-4,-1,-13
21080,6,-3,0,-43,2,2,0,-8
21085,3,39,13,5,-18,-6,-2,2
21090,-6,-17,6,108,44,3,-2,-4
21095,7,-1,-7,-9,-10,-1,2,-1
21100,6,31,-2,-19,-9,-2,-5,-3
21105,-6,-2,-8,-41,6,4,4,-4
21110,7,12,4,15,-5,-1,-4,2
21115,-2,-9,2,33,15,-2,-5,-16
21120,34,2,-2,-16,-8,-1,-1,-11
21125,18,3,10,21,14,2,7,25
21130,2,8,-4,-30,-4,-2,-1,-8
21135,-35,-9,-13,-86,-17,0,-3,-4
21140,20,-21,1,11,7,-6,-5,-5
21145,-14,14,-1,-46,-8,-3,-5,-2
21150,12,-4,11,54,15,4,5,19
21155,16,10,-10,-44,-20,-1,-3,-12
