time,emg1,emg2,emg3,emg4,emg5,emg6,emg7,emg8,hand,pose,orientation,testPerson
0,25,-11,29,48,3,-8,-19,-27,1,0,100,BueBaby!
5,7,6,-16,1,-2,-2,5,-7
10,-9,-31,14,-55,-3,1,-27,-29
15,19,14,7,5,-1,2,32,23
20,-49,2,-16,-53,-5,2,-3,13
25,11,-6,-30,11,0,5,6,0
30,7,18,20,36,-4,-4,5,-3
35,-9,6,-1,-34,-5,-2,-20,-25
40,15,-11,-1,6,-7,-5,-9,-9
45,13,-10,11,59,9,8,31,71
50,-36,17,29,11,-13,-5,-3,-44
55,-19,-24,3,-66,-17,-11,-25,31
60,-38,12,15,63,-8,-10,37,23
65,-8,26,28,17,1,2,-10,-44
70,8,-15,-29,4,3,9,30,52
75,-18,2,4,-45,-1,-4,-2,25
80,10,10,-12,16,5,0,-10,-36
85,-3,-39,41,22,-3,-1,-39,-12
90,31,25,-11,-55,-13,-10,-3,1
95,-6,3,-17,31,3,5,21,-21
100,-13,-19,-10,38,7,-1,-19,15
105,32,13,0,-61,-4,3,19,-22
110,-41,-19,-12,13,4,3,11,-21
115,35,12,18,-63,-6,-7,-4,24
120,-15,-23,-23,17,-6,-3,-28,-15
125,7,-16,-42,-38,-12,-4,0,-14
130,38,15,17,29,1,3,-11,10
135,1,-12,3,26,6,5,0,-4
140,-20,-1,6,50,6,-4,-19,-17
145,30,10,37,-32,-5,-3,30,10
150,-19,-12,-1,-7,-2,-4,-13,-7
155,21,0,0,-65,-9,-4,-13,-15
160,2,41,50,45,8,3,4,-30
165,92,-10,-8,18,-13,-7,-17,-7
170,-33,-2,39,25,4,-2,12,75
175,-41,13,-3,32,9,4,4,-17
180,16,-18,-37,-3,-9,-8,-3,-16
185,-24,-5,9,-72,4,1,-11,-28
190,-44,18,6,35,3,-2,-4,-9
195,-11,-6,-9,-59,-8,-1,-5,-27
200,4,19,10,35,5,0,-12,8
205,-30,0,-15,16,6,5,7,19
210,23,-4,-32,3,-6,-4,-15,-8
215,11,17,-5,-31,6,7,30,3
220,-21,-29,10,28,5,2,26,24
225,-16,-7,40,5,4,0,-2,6
230,11,-21,-27,-32,-13,-6,-11,-35
235,95,25,26,88,3,3,-25,-5
240,-12,-36,-62,-104,-13,-3,25,27
245,83,7,3,43,7,9,22,10
250,-6,-3,1,-65,-17,-8,-8,7
255,-8,0,-39,-5,-3,-3,-11,-16
260,-11,-3,11,-15,-2,-1,15,30
265,-31,14,-37,70,7,5,-4,-32
270,25,1,9,-85,-12,-7,2,30
275,-32,-1,4,-15,-3,-5,7,3
280,15,-1,-5,0,2,1,-10,-6
285,-29,23,44,49,5,-2,-21,11
290,23,-12,-40,31,-3,3,13,-23
295,46,-17,-10,6,2,5,25,-1
300,-2,3,-12,-98,-4,-6,3,14
305,-91,-18,30,29,0,-3,0,-18
310,10,16,1,61,12,5,-1,6
315,-35,-44,-16,-55,-10,-6,-15,-30
320,37,15,-14,39,6,2,9,79
325,16,13,9,-35,-1,-2,-5,-7
330,0,-1,8,3,4,6,10,-31
335,-39,2,-16,11,7,-1,-3,18
340,-3,-1,12,14,-8,-1,3,-29
345,-19,-8,-19,-15,-3,-7,-6,11
350,0,13,22,69,5,0,-6,-9
355,17,-1,-9,-44,-4,1,5,36
360,2,-3,-36,30,6,6,2,-7
365,11,2,58,-52,-10,-3,0,-6
370,6,-16,-27,8,-5,-7,-7,-16
375,8,6,9,9,0,2,2,5
380,-23,-14,5,-3,0,-4,-15,-33
385,13,-15,-51,-44,-11,-3,3,30
390,0,7,16,-17,9,-3,-10,1
395,25,-7,4,28,-9,-6,6,-23
400,28,1,9,37,4,4,7,20
405,-2,1,-23,-39,-5,1,-9,-28
410,-53,2,-6,-26,-1,5,8,2
415,51,0,2,26,1,-3,-11,44
420,-80,4,13,-24,-1,-1,-15,-64
425,24,10,-15,32,2,0,7,10
430,-1,7,17,-67,5,3,-14,-9
435,-42,1,40,66,-1,-6,12,14
440,43,9,2,-31,-6,-5,-4,1
445,-31,-13,-43,21,3,-1,13,13
450,57,12,-11,19,2,2,-3,-28
455,-1,-2,16,-7,3,1,-6,12
460,-34,-1,-4,3,-13,-7,0,5
465,28,-16,-28,102,7,-3,-27,-20
470,49,8,-28,-79,-7,5,45,8
475,-16,7,0,21,3,1,14,49
480,0,15,-21,-60,-2,-4,-29,-11
485,-6,-10,-8,-28,-1,2,14,0
490,-1,-7,17,10,-4,-3,-9,7
495,-18,-7,-2,3,-1,-2,-11,-19
500,3,15,16,-16,8,8,38,-6
505,-18,-14,-16,-96,-18,-13,-23,9
510,-11,-2,-22,23,2,-5,-13,9
515,5,-5,-20,-10,2,0,-5,-22
520,33,-5,24,18,6,-1,-20,9
525,-1,3,-1,-15,-7,1,-2,-62
530,-15,-25,51,65,7,7,31,64
535,-38,3,-34,-20,-10,-7,-15,-7
540,-14,8,-12,40,1,3,-5,-23
545,26,-6,47,99,6,-1,-1,43
550,-84,9,-40,-42,-5,0,-11,-18
555,43,-7,-7,14,7,7,14,-5
560,39,-10,50,-34,-5,-3,10,7
565,-21,11,-14,1,8,4,1,9
570,20,24,75,80,-5,-4,-7,-13
575,-30,-8,-25,22,6,1,-9,-3
580,35,-1,-22,-31,-6,-3,0,5
585,-11,-2,-8,-28,6,5,29,-1
590,20,-13,4,-44,-3,-2,-24,-7
595,-5,6,-7,2,7,5,11,-3
600,17,-22,-5,-20,-2,-7,-34,-13
605,3,18,6,-23,-5,-6,11,52
610,12,-13,-41,3,-4,-4,25,3
615,-19,0,1,-6,2,-1,-14,-26
620,-15,-15,-14,-26,2,1,0,4
625,-6,6,1,18,0,-2,-11,-10
630,4,-6,10,-9,-9,-8,-12,-46
635,-68,4,-5,-23,2,1,-6,35
640,12,9,-20,21,8,6,18,10
645,13,1,17,17,2,-3,-11,-16
650,0,7,11,55,8,3,3,10
655,11,17,15,71,2,-4,-8,-21
660,40,-19,-42,-65,-11,-1,1,2
665,-48,10,20,15,6,-1,-7,-28
670,59,5,-34,8,6,-1,6,-1
675,-26,-19,5,-17,-2,-6,-33,1
680,19,8,-18,-46,0,8,60,-34
685,28,-7,43,29,-3,-3,-11,16
690,48,1,-24,-45,-6,-1,10,53
695,-13,-11,4,29,0,1,-6,-7
700,-19,19,29,32,6,-6,-21,-8
705,88,-32,-21,-80,-7,6,13,-18
710,-31,7,-1,-46,7,3,0,-3
715,-19,-4,-25,12,-6,-3,9,-14
720,-17,-16,21,38,0,-6,-17,13
725,15,8,-18,-15,4,5,7,-2
730,-32,-9,-30,-1,-2,-4,-17,0
735,56,8,-27,-13,4,1,13,2
740,-69,-16,38,12,-3,-3,-6,-13
745,-24,10,-29,10,5,2,-2,7
750,83,5,43,27,-5,-2,14,-17
755,-64,-7,-30,-10,0,-4,-3,-25
760,36,16,-16,9,-2,-2,-22,-11
765,-13,1,11,-12,2,-1,15,39
770,-19,4,-42,-21,-10,-5,-14,-18
775,39,-8,35,-23,1,-2,11,-13
780,-19,-8,4,42,5,1,-11,-7
785,-16,10,-12,-4,-1,-1,-10,6
790,-19,-5,5,-54,-6,-4,-5,-5
795,-5,10,16,57,2,2,5,3
800,-5,4,-11,-25,0,3,2,12
805,-39,-13,-12,-35,-9,-5,-9,-29
810,-71,4,15,30,8,7,17,9
815,-58,-12,4,-19,-5,-7,-1,6
820,-21,-7,-35,-1,2,7,11,14
825,31,10,57,84,-1,-2,-6,-11
830,21,-29,9,16,-1,0,-3,27
835,12,-5,-8,-94,-10,-1,-2,1
840,27,16,-5,63,3,-1,-2,1
845,-33,-17,-5,23,0,2,0,-13
850,-14,9,18,-4,6,6,6,-5
855,16,0,9,-32,-1,-1,6,-18
860,4,-12,26,30,-15,-7,-6,8
865,-60,13,-11,2,-1,3,6,-3
870,1,-9,-24,-39,-3,-2,-15,-6
875,29,1,0,40,9,4,3,-7
880,-24,-5,-4,-108,-11,-5,5,-3
885,30,2,-7,-22,-1,1,-11,-4
890,-28,17,26,66,3,-5,-9,-14
895,10,-6,-5,-7,-6,-2,0,18
900,0,9,18,16,4,2,-6,-14
905,11,-17,-48,-28,-4,-2,-11,-16
910,3,18,6,-76,5,4,14,59
915,0,10,21,51,-7,-10,-11,-6
920,-36,-3,13,-7,2,-1,2,3
925,12,-4,-14,-15,0,4,6,5
930,-2,-2,-6,34,4,1,-5,-17
935,8,5,-15,-55,2,4,10,-2
940,-23,-32,-40,-34,-13,-8,3,19
945,-9,14,43,74,0,-5,-3,22
950,-2,1,-23,-41,-4,3,3,-2
955,19,-11,0,-18,1,2,-3,30
960,44,9,-8,14,-1,0,10,-7
965,1,-3,-44,-36,1,0,-1,-30
970,-14,-14,21,76,1,-2,0,-30
975,23,10,-5,-34,-4,0,0,27
980,31,7,16,65,10,1,-8,-19
985,9,-17,6,-65,-10,-7,-6,33
990,-43,-13,2,22,-2,-3,14,-6
995,1,10,11,53,4,2,6,-12
1000,22,-15,-27,-52,3,3,-4,-2
1005,-20,1,-4,31,1,-2,-1,3
1010,92,11,3,46,5,0,-5,1
1015,8,-9,28,-1,-6,-3,-2,1
1020,-17,9,-13,29,2,4,6,16
1025,16,5,6,-40,1,2,5,1
1030,-7,-4,-17,-36,-6,-3,-11,0
1035,-21,1,38,85,1,-1,17,0
1040,-8,13,20,-20,-2,-1,-6,-44
1045,6,-12,5,9,-1,-5,-7,6
1050,31,0,22,9,4,3,-9,1
1055,-76,-21,-26,-56,-6,-2,14,12
1060,-37,-1,13,4,2,-1,-18,0
1065,12,8,5,9,2,1,8,-2
1070,1,8,-3,-31,2,0,0,6
1075,3,2,-21,17,-4,-4,-13,-18
1080,12,-2,33,34,0,1,10,4
1085,-13,8,6,-11,8,3,-2,6
1090,-8,5,-23,-3,-1,-1,3,7
1095,22,1,-55,-55,-4,1,-6,-4
1100,-9,-10,21,58,-7,-5,-4,7
1105,-5,4,-6,58,7,-2,-9,-21
1110,41,-9,4,-20,-5,1,9,-58
1115,-46,0,-6,-13,2,1,5,70
1120,22,-5,-21,-57,-2,-1,-6,-6
1125,11,-11,-5,7,-7,-2,4,16
1130,-20,-4,-13,34,1,-2,-3,1
1135,31,0,1,-18,3,4,-6,-26
1140,6,3,-7,4,-5,-6,-1,13
1145,-27,-3,1,25,4,2,8,0
1150,15,-6,13,-13,-2,-3,-13,0
1155,-8,-4,-2,-14,-6,-5,-5,-13
1160,-1,4,1,19,2,2,-4,-6
1165,-23,11,10,-19,2,5,11,28
1170,4,-12,-8,-3,-10,-6,-7,13
1175,34,20,23,66,7,4,3,-19
1180,35,-16,-14,-85,-10,-5,2,5
1185,-9,5,12,2,-5,-4,-5,-21
1190,4,18,35,-2,2,2,-12,-6
1195,-34,-36,-18,-20,-5,1,1,8
1200,20,0,-30,18,1,1,-2,-17
1205,-11,-2,-14,-27,-4,-2,11,38
1210,-17,5,28,-4,-1,1,5,0
1215,114,1,14,45,-4,-4,-16,-20
1220,-85,5,-2,1,10,4,17,2
1225,-6,-20,-3,-58,-12,-7,-16,-33
1230,18,-4,-21,31,6,-1,8,-12
1235,-45,2,-22,-51,1,-1,-2,33
1240,4,8,31,44,3,3,3,11
1245,11,4,-10,-19,1,-1,-11,-10
1250,-38,-11,1,-34,-8,-3,1,-12
1255,19,3,1,-5,-3,-3,-6,-17
1260,-41,-2,8,42,2,2,-1,-1
1265,6,3,9,-47,-3,2,3,0
1270,7,-8,-27,16,4,0,0,-1
1275,2,-3,5,0,-5,-4,-2,-4
1280,-5,8,-4,-4,0,-2,-3,5
1285,10,12,4,43,5,2,-7,7
1290,3,-11,9,48,-8,-1,3,-18
1295,30,7,-19,-9,5,-1,4,39
1300,3,2,27,-91,-9,-4,2,-2
1305,-7,-6,-14,61,2,0,-4,-24
1310,-3,1,4,-19,0,1,-4,25
1315,23,-6,-7,-35,-1,3,4,5
1320,-26,0,20,28,5,0,-6,-5
1325,31,-1,12,11,-1,-2,6,-1
1330,-17,-4,-45,28,4,0,-7,-11
1335,-18,7,21,18,5,1,0,-11
1340,21,-16,-62,-73,-2,-2,-3,18
1345,25,1,13,99,2,2,5,1
1350,-23,9,26,-29,0,-3,-4,-2
1355,-5,-12,-28,-2,-7,1,-5,-5
1360,31,2,17,-21,2,1,8,25
1365,23,6,5,74,-3,-4,-4,-1
1370,-45,-14,11,-78,-8,-7,-6,1
1375,-18,10,-18,16,0,0,-3,-24
1380,16,-10,-13,-10,-1,-1,0,-14
1385,43,-7,-10,-21,1,2,6,25
1390,-13,-10,-2,23,4,0,-2,-24
1395,-87,-8,13,-2,-4,-6,-7,18
1400,4,4,9,21,3,-4,1,-10
1405,-28,-13,-8,-59,-3,1,-15,-5
1410,17,13,43,112,3,-3,2,-9
1415,51,-11,-15,-78,-6,1,-6,-31
1420,-11,-2,-22,14,-1,0,20,40
1425,-16,1,18,-20,-2,-4,-6,-13
1430,-3,4,-33,-75,-1,3,-1,13
1435,41,5,17,29,0,-1,-1,-22
1440,-13,7,20,14,-3,2,-1,16
1445,9,-15,-4,9,-5,-7,1,-13
1450,-8,20,-9,-30,-2,0,1,19
1455,-13,-9,-16,2,4,2,3,-14
1460,12,9,11,30,2,3,-4,-24
1465,-67,-29,-60,17,-4,-4,2,34
1470,31,14,-28,-7,3,1,3,10
1475,-5,-3,27,31,-1,-3,-5,-6
1480,-1,-2,-8,4,-2,0,-5,-2
1485,13,12,-6,-41,5,2,0,-15
1490,-51,-7,19,8,-3,-5,-7,-29
1495,17,-1,-36,4,-4,1,14,44
1500,26,0,7,-15,-3,0,4,9
1505,0,-1,-9,-6,0,0,-5,-32
1510,-60,-11,8,14,-4,-3,-2,-12
1515,12,8,32,50,3,-7,-23,29
1520,-5,0,-23,-7,-3,1,-3,-26
1525,18,7,20,-49,-6,-1,5,14
1530,16,-4,-9,54,1,3,5,22
1535,37,-1,10,-58,-7,-3,-4,-39
1540,-48,3,26,73,-3,-9,-9,15
1545,67,5,1,-32,-1,3,1,8
1550,22,0,6,22,-1,1,0,1
1555,7,-2,-30,-40,-4,2,8,-1
1560,-2,1,7,-17,-4,0,-6,-5
1565,-20,19,42,25,5,-2,-4,-32
1570,-3,-14,-23,22,1,1,1,6
1575,36,-4,31,17,0,-4,7,53
1580,46,-5,-39,-50,-4,-1,-3,-9
1585,-18,-4,6,21,2,3,21,-13
1590,23,-1,-23,-24,-3,0,-4,-10
1595,-20,1,5,-29,-3,-1,1,27
1600,-55,-6,22,63,2,-5,-11,-7
1605,6,3,-14,-46,-6,0,-1,5
1610,29,-5,3,-47,4,5,14,24
1615,-110,6,12,47,4,-2,0,-35
1620,20,-24,-4,-57,-9,-4,4,2
1625,-5,9,20,58,4,-3,-12,3
1630,-8,7,-29,-42,3,1,0,-8
1635,18,-4,-6,12,5,3,0,-20
1640,-3,0,-8,-12,4,1,-4,1
1645,17,3,-38,-12,2,1,0,-13
1650,75,3,13,-32,-5,0,2,66
1655,-59,3,21,38,4,1,2,-45
1660,-24,-18,-45,1,-6,-5,-9,2
1665,30,18,25,33,4,2,5,18
1670,-28,-9,-23,-5,-3,-4,1,-3
1675,78,8,-7,-26,-2,-1,-9,-19
1680,-31,-1,7,23,2,3,1,5
1685,-11,2,20,31,-5,-5,-3,1
1690,-7,-6,-8,-45,-5,-5,-1,-3
1695,-12,-5,13,-9,0,-1,-2,4
1700,21,-14,12,10,-2,1,11,-13
1705,30,-2,-24,-81,0,2,1,-5
1710,-15,7,25,60,-1,-1,1,16
1715,-18,0,21,-11,-1,0,-6,-14
1720,37,24,-1,17,7,1,-9,-47
1725,-13,-32,-52,-56,-14,-5,5,58
1730,3,-3,7,7,9,0,-1,-14
1735,7,1,-15,-9,-1,2,-5,-8
1740,-18,-5,2,42,-1,-2,-5,-5
1745,-13,4,4,-17,-1,1,-7,-9
1750,15,10,50,57,-3,-5,-6,-8
1755,67,-1,-20,14,1,3,3,37
1760,-27,-2,-43,-43,-2,-1,6,-17
1765,31,1,21,55,0,-2,-5,-11
1770,38,-20,-40,-20,-5,-3,-6,4
1775,-45,16,5,-12,6,5,18,-13
1780,20,-17,-16,6,-7,-6,-18,-13
1785,-44,4,10,18,-1,-2,5,17
1790,-6,2,-2,-30,2,5,11,-26
1795,-1,9,22,68,5,-3,-10,-5
1800,9,2,-30,-104,-8,0,15,9
1805,-17,-7,10,19,-1,-1,-2,16
1810,-7,10,8,39,-1,-2,-8,-24
1815,-18,-29,-56,-89,-5,-2,-18,-73
1820,1,14,57,89,-2,-1,23,103
1825,-105,-10,-28,-80,-7,-3,-1,-30
1830,40,20,15,10,4,0,1,3
1835,17,-18,-46,-6,-2,-2,-6,13
1840,-3,22,26,-5,1,3,7,-32
1845,27,-13,-8,-40,3,-1,-5,-8
1850,27,2,32,40,-1,-1,-1,10
1855,-63,-4,7,-29,-3,-2,6,11
1860,3,5,9,67,5,-2,-9,-12
1865,3,4,-19,-26,-7,-1,-5,-11
1870,46,-25,-31,-32,4,5,7,-5
1875,35,5,26,3,-10,-5,-1,22
1880,-58,-21,2,-2,-3,-6,-11,4
1885,13,3,-3,32,2,2,-1,-19
1890,-28,-1,1,13,-8,-6,-12,-33
1895,1,-3,-16,-9,1,0,7,5
1900,35,13,-5,-15,3,5,7,28
1905,1,-8,25,62,-5,-2,1,19
1910,-70,5,6,-22,-3,-6,-14,-17
1915,12,-7,-3,48,3,0,13,16
1920,1,-5,24,-17,6,3,-3,-19
1925,-13,-1,11,-4,-3,-4,-8,-13
1930,3,9,-31,8,3,2,3,28
1935,39,2,10,-32,-2,-1,-10,5
1940,64,2,-5,61,0,-4,-4,-11
1945,38,-1,-25,-5,6,6,5,-16
1950,-48,-17,0,-9,-1,-4,-3,29
1955,18,7,10,9,-3,-3,-2,-6
1960,2,-9,1,-13,1,-2,-4,-19
1965,4,15,-2,-27,8,4,16,3
1970,-16,-14,57,15,-5,-5,-5,-15
1975,22,-3,4,43,3,2,-4,5
1980,7,13,7,-34,0,1,0,34
1985,8,1,-26,28,0,-1,-4,-5
1990,46,2,-29,2,4,2,2,11
1995,31,0,6,-43,-1,-5,-11,-22
2000,-69,-13,2,53,-2,-4,0,-2
2005,52,4,6,-88,-7,-3,-5,6
2010,-8,2,-23,-12,-1,1,0,17
2015,-16,-11,-4,32,1,-1,5,-4
2020,30,8,-24,-99,1,-1,-14,-48
2025,-10,4,23,92,0,-6,-3,76
2030,18,-7,-23,-31,-5,2,13,-17
2035,9,7,5,-4,1,0,5,17
2040,19,10,26,-5,2,4,10,-2
2045,-4,-1,5,47,2,-1,-11,-25
2050,-56,-14,0,-53,-3,-7,-3,-10
2055,21,-1,-11,2,4,5,4,10
2060,-37,-7,-2,-95,-4,2,4,0
2065,8,4,13,63,-3,-5,0,1
2070,15,10,-35,-44,1,4,-1,-26
2075,-28,-4,13,15,-1,-3,0,58
2080,6,-1,7,10,4,-2,-6,14
2085,-5,-9,27,-16,3,-2,-4,-34
2090,-16,-5,-30,-44,-3,-1,-1,9
2095,-41,4,8,68,-4,-3,6,-5
2100,29,0,-35,-37,-1,-1,-1,-5
2105,-8,-5,-6,-30,-6,0,0,13
2110,24,6,23,63,0,-1,-10,-22
2115,-40,-1,-3,-65,-7,-4,-3,4
2120,47,-3,-10,2,-3,-2,-7,5
2125,14,-2,4,13,-1,1,0,-18
2130,12,1,25,-8,3,-3,0,-15
2135,-29,-2,0,-7,-7,-6,-3,-14
2140,-21,5,-3,57,1,-1,-2,1
2145,-22,1,-11,-25,2,1,-2,38
2150,23,1,41,55,-1,2,0,25
2155,23,-22,-31,6,1,-4,0,-12
2160,5,9,10,53,2,-1,-5,-20
2165,-7,15,5,-36,3,4,14,11
2170,-20,0,-29,-3,-1,-1,-1,3
2175,-4,-11,-11,8,4,5,0,-13
2180,-77,-19,0,-22,-7,-4,-1,-11
2185,24,11,-23,-36,5,3,3,-32
2190,-39,0,20,50,1,-5,-5,1
2195,3,12,11,-3,-2,0,-8,-22
2200,3,-13,-24,-8,-3,0,6,31
2205,2,2,-2,-20,-6,-2,2,-10
2210,-8,-1,13,-18,-4,0,-2,-28
2215,-53,-9,4,-23,1,-1,-8,1
2220,32,11,19,46,0,-2,0,-6
2225,-47,-19,-18,-40,-6,-1,2,4
2230,2,5,32,14,8,-1,-3,24
2235,21,7,-4,-9,-5,0,3,-41
2240,69,2,-23,28,3,3,0,22
2245,-56,2,33,-33,-2,-4,-4,-3
2250,24,-15,-50,-22,-10,-5,-3,-17
2255,11,1,9,50,2,0,7,14
2260,12,0,-1,-24,-3,-3,-3,-1
2265,18,-2,-9,25,0,-1,-2,-3
2270,81,4,-2,29,5,4,5,25
2275,-13,2,-20,-30,-3,-2,11,22
2280,-13,-9,1,1,-5,-2,-8,-29
2285,11,-1,1,37,0,0,-5,-54
2290,-15,-12,-11,-74,-8,-2,1,68
2295,-34,8,8,66,2,-2,-2,-6
2300,72,19,7,-26,-1,0,7,-2
2305,24,-13,-14,19,3,-4,-4,-8
2310,-10,-4,-6,-12,0,2,-4,-16
2315,20,8,17,-18,3,0,-10,-7
2320,-13,-1,8,12,-6,-2,0,21
2325,21,5,21,4,-1,-2,-3,14
2330,-57,2,-21,14,-3,-6,-6,-14
2335,16,4,-6,10,2,3,-3,8
2340,-26,-12,5,-25,0,0,0,-30
2345,-1,-7,8,-38,0,-2,0,45
2350,8,6,6,-24,2,-1,-2,-5
2355,-18,0,3,43,8,2,1,-14
2360,33,-8,-11,-27,-8,-1,-8,11
2365,-15,-3,-1,7,0,-1,5,-4
2370,5,0,-2,-14,3,-1,1,-16
2375,15,-5,15,29,-7,-4,-3,21
2380,-42,3,-54,-16,-3,2,-8,-30
2385,72,11,2,6,0,-2,7,-14
2390,-42,-9,8,44,-1,3,4,49
2395,27,-2,-2,-48,-2,1,1,-15
2400,-25,19,25,33,6,0,0,5
2405,-17,-9,-31,36,-3,-2,-1,12
2410,10,-7,6,-91,-7,-3,1,-16
2415,-17,0,10,-10,-5,-2,-13,-17
2420,-3,-2,43,75,12,-1,0,11
2425,-29,9,-9,8,0,2,6,10
2430,18,6,4,12,0,0,2,-9
2435,-9,-8,-37,-17,5,4,1,7
2440,-1,-5,38,-65,-12,-8,-3,-30
2445,4,0,1,63,6,3,-7,14
2450,-11,5,1,4,-2,0,-3,-20
2455,17,9,24,36,4,-4,5,1
2460,11,-2,-27,-39,-1,3,8,26
2465,-61,-11,11,6,-2,-2,-11,-25
2470,-26,-6,-2,28,2,-3,12,51
2475,-7,-4,-7,28,-2,0,-3,-18
2480,61,-4,36,-40,-3,-2,3,4
2485,-8,5,15,-15,-2,0,-8,-7
2490,21,7,-7,22,4,2,-5,-30
2495,43,-8,1,-14,-3,1,-8,2
2500,-30,6,-7,6,1,2,7,7
2505,-8,5,18,-31,-1,1,-4,-10
2510,-19,5,13,69,3,-3,-5,9
2515,5,-3,6,-25,-1,0,-6,-43
2520,-39,-3,-14,-1,4,1,9,62
2525,12,-2,-8,-17,0,-2,-1,-5
2530,-1,-2,-2,-23,-6,-4,-6,-16
2535,-20,-3,12,0,-3,-4,-3,6
2540,2,-1,-5,39,3,1,1,-11
2545,-8,4,-10,33,2,-3,-1,0
2550,13,-2,-28,-41,-1,-1,1,-35
2555,9,2,-4,-42,-1,-1,-3,50
2560,-8,-16,-38,25,-8,-5,-5,-17
2565,3,10,32,18,0,-1,-6,-26
2570,-7,0,2,23,3,1,3,-3
2575,21,-9,-11,-32,-1,0,4,18
2580,-55,6,-14,12,2,-1,2,1
2585,10,1,-6,-30,0,-2,-6,-42
2590,27,-8,17,24,1,-1,7,12
2595,-4,1,-13,-12,3,-1,-3,16
2600,31,3,13,-11,-2,-1,-7,-8
2605,-23,-11,19,58,0,-6,-5,-23
2610,-4,3,0,-1,1,0,-4,38
2615,-4,-5,-24,-13,-2,-4,10,26
2620,-22,-4,-52,18,6,0,-10,-40
2625,2,-6,40,-62,-13,-5,11,78
2630,6,2,22,56,10,1,-17,-57
2635,-25,-3,-38,-41,-9,-1,6,31
2640,15,4,14,0,1,0,-5,6
2645,-69,-14,-47,-28,2,0,1,-13
2650,34,10,-16,-25,0,1,2,1
2655,-50,-26,25,9,-9,-8,-12,-30
2660,-12,-8,-6,5,6,3,10,-12
2665,67,-22,-10,17,2,-1,-2,-2
2670,-56,-8,-13,-15,-4,-2,-5,16
2675,-8,14,-12,-2,5,1,-4,-7
2680,9,-5,13,-13,-6,-3,-1,-3
2685,4,-2,1,-1,-3,0,-7,-6
2690,19,-5,-17,-8,-3,1,10,40
2695,21,11,-2,59,4,4,9,-22
2700,5,1,12,-86,-6,-7,-4,14
2705,23,1,-18,12,5,3,-2,4
2710,-17,-5,-31,-26,-2,2,-2,-13
2715,37,5,-3,-38,-5,0,0,-20
2720,-39,-1,15,20,-3,-3,-7,7
2725,-48,-2,-55,3,1,-2,2,1
2730,25,0,9,-16,-1,-3,-1,-18
2735,13,5,3,9,1,-3,3,9
2740,0,3,12,-26,-1,1,-6,-7
2745,23,-2,-8,26,-3,1,1,5
2750,0,2,-7,18,-6,-1,4,-14
2755,-28,4,23,-26,-3,0,0,-14
2760,-2,-2,-4,23,-2,2,1,0
2765,-19,-1,32,4,-5,-9,-5,-21
2770,34,-2,-17,-59,-7,-4,1,6
2775,3,-8,12,20,2,0,7,35
2780,104,14,-6,31,-4,1,-2,-5
2785,3,5,11,-16,1,0,-1,28
2790,-42,-6,5,-5,0,-2,-7,-30
2795,-19,-10,1,27,-5,-2,-7,-10
2800,-25,-6,21,24,4,-1,1,7
2805,24,9,-19,-18,1,2,1,5
2810,-3,1,14,-5,0,-3,-2,-9
2815,14,7,2,36,0,-1,-3,3
2820,-20,-5,-15,-26,-3,-2,1,1
2825,9,-5,37,58,0,4,5,-8
2830,0,6,0,-7,0,1,-2,8
2835,-20,-10,-19,-24,2,2,2,-24
2840,-21,0,5,5,-10,-3,-1,-3
2845,4,-7,-71,-11,-2,-2,5,5
2850,51,7,48,62,0,-7,-9,10
2855,-10,-3,-9,-24,-1,1,4,-22
2860,29,16,11,35,3,0,-1,1
2865,-2,8,-11,-42,2,1,-3,-1
2870,10,-5,-12,-4,-4,2,0,-21
2875,4,8,19,-12,-4,-4,3,40
2880,-2,-3,0,-1,-1,0,0,1
2885,17,0,4,-25,-1,-2,-6,-14
2890,0,-1,6,-17,0,1,-3,-6
2895,24,-1,5,33,-5,-3,-1,33
2900,-79,-5,-17,-20,2,2,1,-9
2905,53,-2,10,30,0,-1,12,15
2910,-11,-3,-16,-69,-6,-2,-12,-1
2915,8,0,24,13,2,0,-2,-29
2920,-3,5,12,55,2,-3,-3,2
2925,-3,-4,-32,18,-3,-1,-2,1
2930,-19,1,38,81,4,0,5,10
2935,3,-6,-32,-21,0,3,-2,-18
2940,2,-1,0,8,5,0,-6,1
2945,-41,-6,6,-69,-2,1,5,0
2950,-7,-4,1,23,-2,-4,-5,-11
2955,21,-7,-6,7,-3,-3,-12,-11
2960,6,-2,-19,8,0,2,4,25
2965,-30,0,-10,-11,-1,2,-1,-7
2970,20,0,4,-37,-4,1,8,6
2975,-12,-3,6,19,0,-5,-7,-25
2980,62,1,2,-3,-4,-1,10,14
2985,73,3,16,11,-3,-2,-5,-27
2990,-107,-15,-10,9,4,1,6,9
2995,31,5,9,21,3,1,-3,-9
3000,28,-3,2,-80,-5,0,-6,-14
3005,-2,12,22,26,-3,-1,2,16
3010,10,-2,1,-2,-5,-5,-3,-4
3015,-30,5,1,-15,3,2,-5,-17
3020,3,-3,-5,15,2,3,4,36
3025,-22,6,23,49,2,-5,2,-19
3030,-4,-8,-25,-68,-7,0,-4,-1
3035,-24,5,21,4,3,-1,2,2
3040,11,7,-31,-45,-4,-1,-1,-10
3045,-16,8,43,61,1,1,-8,-2
3050,80,3,-8,34,3,-3,8,13
3055,-20,-6,3,-66,-4,3,3,-34
3060,-20,-10,16,14,4,0,-8,34
3065,7,0,-19,-14,3,3,9,14
3070,-18,-9,7,-16,-6,-7,-7,-25
3075,28,-11,1,29,-2,0,-4,7
3080,-83,5,-23,44,1,-3,-11,-36
3085,9,0,24,-91,-9,2,13,55
3090,17,-9,11,16,0,-2,-4,2
3095,-17,2,0,11,-4,-1,-2,-11
3100,-2,-13,3,9,-9,-2,-4,-9
3105,-5,2,-20,-35,2,-5,-9,-4
3110,4,5,-11,5,0,3,10,21
3115,75,6,5,-66,-9,-3,3,38
3120,-45,-7,4,16,-3,-2,0,-21
3125,22,-1,-19,-1,-2,0,-5,-12
3130,-30,4,11,-7,2,1,-5,20
3135,23,4,-17,7,-6,-4,-6,-12
3140,26,-11,-15,28,1,1,10,20
3145,-35,-3,30,-62,-10,-8,-13,-24
3150,-3,9,-13,30,6,6,2,2
3155,-16,-8,-38,12,1,-1,4,9
3160,8,-1,17,-42,0,1,0,-37
3165,-8,3,11,80,10,2,1,21
3170,-11,-5,6,-12,-7,-5,-9,-18
3175,-51,-7,-32,-8,1,-4,5,33
3180,47,-3,-13,-31,2,1,-1,-12
3185,18,2,-6,-23,-4,-1,0,17
3190,12,2,14,36,0,-1,4,-34
3195,-11,7,7,0,1,1,-9,10
3200,-48,-1,27,37,2,-4,0,1
3205,32,-11,-34,-8,0,-3,-10,-24
3210,49,2,0,-15,3,-1,-4,8
3215,-1,-2,-14,-13,-3,1,6,-35
3220,-15,1,-6,24,-6,-3,-3,38
3225,-33,2,10,-18,-1,-1,5,16
3230,23,-2,9,14,-5,-4,-3,-5
3235,-63,3,20,28,4,-3,-8,-5
3240,56,-7,-15,-12,1,7,8,1
3245,-53,-6,-19,-14,2,4,3,-7
3250,-5,6,-9,-37,-1,-1,1,19
3255,-3,-10,-36,-73,-8,-10,-9,-38
3260,62,16,25,55,1,-1,-5,9
3265,-25,-7,5,6,0,1,-3,0
3270,-16,-19,-29,-1,5,5,18,21
3275,21,13,36,-2,0,-1,-7,-9
3280,-20,-2,11,-15,-1,-5,0,-24
3285,113,13,2,45,2,2,-9,-18
3290,-93,-14,-6,-34,-1,1,1,-1
3295,24,-4,-15,32,-2,-2,-7,45
3300,31,8,-6,-33,1,0,17,13
3305,-63,-5,-23,-21,3,0,-5,-44
3310,42,7,2,56,0,-1,-7,35
3315,-14,-8,12,11,-3,-4,0,-14
3320,36,9,15,17,3,2,-5,2
3325,0,-5,-4,-60,-7,-4,-2,-4
3330,-18,0,-32,-30,3,2,-3,-32
3335,-34,-8,-3,-2,6,3,6,17
3340,-6,3,25,53,-1,-7,-9,-6
3345,21,-2,-15,14,-2,-2,-4,-4
3350,-58,-3,-18,-36,2,3,11,1
3355,59,3,27,52,0,3,-8,-17
3360,-29,0,-10,-95,-7,0,8,-4
3365,-3,-6,-2,86,3,-2,-2,37
3370,55,13,35,44,-1,-2,-1,-26
3375,-6,0,-1,-31,0,0,1,-2
3380,-17,2,-12,9,2,1,1,11
3385,8,-14,1,8,-5,-1,1,-2
3390,-72,-2,14,-55,-7,-5,-8,1
3395,95,8,-22,17,-1,6,3,20
3400,-43,-7,8,26,-2,-2,0,13
3405,-3,-10,-2,-55,-6,-4,6,-18
3410,2,-6,-16,37,0,0,-12,-13
3415,29,2,41,-42,-1,0,2,4
3420,17,5,12,27,-4,-7,0,1
3425,-11,0,2,52,5,1,-1,-11
3430,-37,-12,-17,-27,-14,-6,-6,5
3435,-122,5,-5,-5,7,3,6,-44
3440,32,-14,-5,-23,-8,-2,0,24
3445,-36,1,-4,14,6,3,-2,-19
3450,57,2,15,-20,0,1,5,37
3455,-4,-2,2,50,1,-1,0,-10
3460,-25,-4,0,-51,-1,0,-11,5
3465,-4,8,-28,1,1,-1,0,-7
3470,45,-7,7,27,1,0,-8,-17
3475,-26,-3,12,-19,-7,-1,2,20
3480,28,7,-33,-20,10,2,0,-15
3485,49,-10,17,45,-7,-7,-5,-18
3490,73,7,-16,-8,2,-1,-3,-5
3495,-7,1,-12,-20,0,0,-1,1
3500,34,2,10,12,-8,-5,-10,-35
3505,-2,-2,-8,-58,-7,1,5,19
3510,30,2,1,-41,-2,3,7,2
3515,26,-1,16,86,6,-4,-2,4
3520,-35,-3,-4,-7,5,2,-2,-19
3525,-20,5,3,-19,-2,2,-2,-5
3530,-11,-1,-6,-42,4,4,7,37
3535,11,-5,3,-6,5,-2,-3,-5
3540,-28,0,2,22,-5,-3,-3,13
3545,44,9,39,88,7,1,-4,-20
3550,1,-20,-6,-31,-2,-3,3,12
3555,5,-4,-9,-34,-6,-1,0,10
3560,-8,0,-16,-2,-5,-2,-1,-21
3565,16,2,0,-2,4,0,9,27
3570,-58,2,-54,3,-4,-3,-12,-43
3575,72,-7,0,20,1,0,5,21
3580,26,0,-6,11,2,5,-4,0
3585,-54,-8,-5,-67,-1,1,4,4
3590,54,4,42,25,-6,-1,-5,13
3595,-36,-7,-7,37,4,-2,4,-12
3600,12,11,-10,-12,-10,-2,-3,-6
3605,14,-3,8,53,9,4,5,-2
3610,-31,-8,-1,-26,0,-6,-5,-21
3615,-12,-12,-12,40,-2,-1,0,39
3620,12,2,5,-78,-9,-4,-5,-39
3625,-30,-14,-8,20,-10,-5,-3,48
3630,14,27,14,97,19,5,-1,-6
3635,-38,-14,5,-75,-13,0,-3,-21
3640,-46,-3,-14,15,2,-1,4,10
3645,56,4,3,-41,-4,0,-8,-6
3650,20,0,20,-15,0,1,4,11
3655,-9,21,-5,-10,1,1,2,-13
3660,4,-10,19,-13,13,7,6,23
3665,5,9,0,-33,-4,0,-3,-15
3670,-4,-33,-11,-20,-5,0,1,-44
3675,-15,18,6,64,8,-3,-4,23
3680,-13,-5,0,11,-2,1,0,-10
3685,-37,2,-8,30,5,0,-1,12
3690,2,5,-8,-41,-12,-6,-3,-17
3695,-4,-5,0,-21,-5,2,-3,-17
3700,10,-4,-18,-13,-6,-3,5,25
3705,-6,10,20,-33,11,2,-2,0
3710,-10,1,-26,83,1,4,1,10
3715,-23,-18,16,-20,-3,-5,-4,-2
3720,-56,-14,-4,40,7,-2,-6,6
3725,59,34,-2,0,-8,-1,-5,-41
3730,-44,0,-13,-37,-4,-3,6,66
3735,86,16,4,-12,-1,6,4,-7
3740,-73,-9,-2,17,0,-8,-6,-33
3745,-17,-23,-22,-63,-9,-9,-4,41
3750,-4,19,7,26,11,4,-4,-11
3755,19,-1,-7,26,-1,-4,1,9
3760,16,8,-1,-6,2,2,1,-10
3765,-9,-2,0,-27,-2,0,1,11
3770,6,25,27,12,-7,-3,-1,17
3775,1,-29,-39,-44,2,1,2,-4
3780,41,17,23,-55,0,-2,0,44
3785,-12,-6,-17,49,1,-7,-5,-12
3790,4,-1,2,-51,-8,0,0,-20
3795,-40,7,14,31,8,3,-1,-22
3800,27,11,-20,-42,-6,1,2,-29
3805,-30,36,8,-27,-4,-3,6,81
3810,3,-60,14,20,12,-6,-11,-33
3815,-26,1,-3,-59,-8,-4,-8,-12
3820,-5,-14,-1,44,-13,-2,2,18
3825,30,3,-9,-49,-10,-1,1,-27
3830,2,5,-10,18,8,5,3,-65
3835,-62,-14,22,-4,-4,-4,-3,88
3840,59,10,6,99,12,-1,-1,15
3845,-18,-16,2,-55,-10,-4,-5,-30
3850,-16,25,25,44,10,1,2,4
3855,-14,-20,-21,25,-11,-7,-4,-37
3860,-16,11,9,-31,4,3,0,-5
3865,59,0,22,63,7,1,0,4
3870,-30,-1,-19,-18,-13,1,3,15
3875,18,6,4,35,12,2,-1,-5
3880,-6,-9,6,-30,-7,-3,-3,-1
3885,-15,-8,5,63,5,0,-3,-20
3890,5,4,-5,-1,10,2,-2,7
3895,-5,-2,-2,-38,-17,0,4,0
3900,25,24,-8,-19,7,-1,6,-11
3905,-58,-25,-9,59,5,2,-1,-1
3910,-55,10,3,-32,-11,-7,-5,-8
3915,9,6,-16,-17,-4,1,6,-8
3920,27,0,16,31,4,-1,-5,-28
3925,-35,-1,-61,-37,-4,6,3,-5
3930,32,17,11,31,-1,-2,-1,6
3935,16,-43,13,-40,-1,0,-3,-19
3940,-13,-17,7,-28,-7,-4,-4,24
3945,-10,-6,10,-18,2,-2,-3,-19
3950,20,-4,-9,23,0,-2,-5,11
3955,-8,-16,14,9,5,1,0,-28
3960,52,8,-15,6,2,6,5,28
3965,-12,-7,-1,-12,6,-2,4,-3
3970,30,-7,0,13,-9,-3,1,15
3975,-38,28,-13,-18,-11,-3,-5,-31
3980,-19,-23,5,60,13,-1,-2,55
3985,12,14,12,-21,4,0,1,-20
3990,9,-6,-8,-5,2,7,10,45
3995,33,19,-7,19,3,0,-2,-2
4000,-14,11,0,-15,2,1,-1,-25
4005,-17,-32,-28,-18,-7,-4,-5,-9
4010,-10,-6,-9,64,-2,-4,-1,9
4015,7,-2,22,-11,1,1,0,-7
4020,-57,0,-8,22,-3,-8,-7,3
4025,65,33,8,-35,-4,4,5,4
4030,-20,-20,-6,-30,4,-2,-2,-33
4035,18,17,6,11,14,3,2,32
4040,-24,-23,-4,-29,-12,-3,-6,-56
4045,12,-8,-11,11,6,-1,-1,-37
4050,-9,-8,-5,-46,-12,0,7,105
4055,3,15,-10,41,9,-5,-4,-39
4060,-32,-12,8,37,7,-2,-6,-17
4065,21,30,-8,-30,-11,3,0,-4
4070,11,-10,25,94,26,2,2,-39
4075,0,9,-7,-35,-13,-4,-4,44
4080,18,-3,-6,-31,-7,5,5,-13
4085,-31,2,6,24,-1,-9,-12,-5
4090,32,33,-5,20,-1,2,2,-5
4095,23,15,13,-42,-7,1,4,21
4100,-44,-31,7,-24,-3,-2,-5,-40
4105,4,-12,-1,44,4,1,6,31
4110,8,-2,1,-57,-17,-5,-7,11
4115,-4,4,4,81,-4,-4,4,-4
4120,-7,5,-11,8,-4,1,-1,14
4125,-6,4,29,1,4,2,-3,11
4130,-1,-9,-13,-24,-8,-4,-1,-50
4135,47,13,7,-3,3,4,2,69
4140,5,4,-6,-18,3,2,6,-1
4145,-17,-11,-7,42,3,-5,-5,-18
4150,3,2,-8,-36,-14,-3,-6,5
4155,-14,6,5,-13,0,3,-5,-37
4160,9,-18,-5,59,16,-2,-2,-7
4165,-11,-7,16,0,-3,0,-3,-10
4170,10,12,-37,18,7,5,2,6
4175,16,-20,-2,-37,4,-4,-3,-8
4180,22,30,2,-13,-17,-5,-7,-18
4185,55,-2,1,21,4,4,8,38
4190,-65,-2,-7,-30,-1,-5,-5,-25
4195,7,-10,-1,9,2,1,2,6
4200,-48,-17,6,13,6,4,2,-7
4205,-9,16,10,-41,-3,3,0,26
4210,71,9,12,-59,-9,-7,-9,-28
4215,-7,-4,-23,-14,-9,-4,-2,0
4220,-20,4,4,17,1,1,-2,17
4225,11,-6,-22,22,5,-1,1,-3
4230,-38,-8,7,-44,-21,-5,-6,-34
4235,-4,-10,14,10,-2,-1,-7,42
4240,40,21,-8,3,-4,-2,13,-21
4245,-1,-35,-8,9,-1,-4,-8,-22
4250,-10,2,8,-21,-9,3,1,-5
4255,18,12,8,87,3,-4,-10,-33
4260,-12,11,-10,-52,-8,-3,-1,21
4265,-14,-13,-4,45,-8,0,6,18
4270,-27,3,14,-58,3,-1,-3,-24
4275,-11,9,3,77,11,7,1,11
4280,27,-4,-15,-47,-3,-4,-2,23
4285,-14,7,16,11,1,0,3,-35
4290,-34,-24,-4,-20,5,1,-1,24
4295,-41,4,6,5,7,-2,1,-35
4300,39,-4,-8,32,-8,0,-5,13
4305,2,4,-3,-57,-9,-1,-3,23
4310,16,6,-1,46,14,3,9,19
4315,1,8,3,15,6,1,-5,1
4320,50,-3,-6,-32,-8,-6,-1,-19
4325,-14,7,5,-2,3,6,-4,-14
4330,28,-4,-4,42,11,6,2,8
4335,39,-13,-13,-30,-16,-10,-5,-30
4340,-22,6,-2,-2,3,4,-5,31
4345,1,-8,2,-16,-13,-8,-1,-12
4350,11,11,15,98,12,3,0,-9
4355,-16,-8,-11,-25,-6,4,2,5
4360,-13,-1,-17,-24,0,-5,-6,-12
4365,31,-9,15,-1,6,-1,-2,8
4370,-81,-4,-7,7,-5,-6,-3,7
4375,-7,-10,1,10,5,2,-2,-32
4380,4,8,1,-22,5,3,5,-21
4385,-31,-5,-9,10,3,-1,-2,13
4390,37,-6,2,-12,-9,-3,-5,-20
4395,27,11,-24,-39,-8,-4,0,46
4400,-15,-38,8,7,2,2,3,-17
4405,-39,-6,-2,24,5,1,-1,-1
4410,9,3,6,4,10,2,-2,-34
4415,-24,-32,15,12,-15,-3,4,-4
4420,-21,17,16,0,-2,-3,-2,36
4425,-20,-14,-28,-45,7,-2,-3,-21
4430,35,-4,4,-5,2,2,2,8
4435,6,13,8,71,3,-1,1,11
4440,0,-21,2,-59,-11,1,-1,-18
4445,1,12,-2,37,3,-3,-2,3
4450,-7,4,18,-17,-10,0,-3,9
4455,-16,-1,-24,-24,8,1,4,7
4460,7,7,0,32,0,4,-4,-8
4465,12,-15,18,40,-1,1,4,-40
4470,86,6,1,-77,-10,-5,0,75
4475,-53,-21,-22,-6,0,2,-3,-23
4480,7,24,6,45,-7,-2,-2,-4
4485,31,8,3,-10,-3,-3,-5,-12
4490,-18,-9,-13,25,5,-2,4,-10
4495,30,10,0,-112,-15,0,-1,-12
4500,14,-2,-10,48,25,1,1,14
4505,-8,-1,-5,-32,-7,-1,-1,10
4510,-38,-13,4,-35,-2,-1,-4,-22
4515,8,8,-21,4,8,3,3,10
4520,-16,-20,3,6,-3,1,4,-3
4525,18,2,-8,21,-5,-3,-4,13
4530,-23,2,23,9,1,-2,-1,12
4535,11,-14,17,28,3,-1,0,-17
4540,28,36,-7,38,-3,0,1,8
4545,-26,-27,-12,-27,-6,-2,-2,-1
4550,-8,2,-2,42,3,4,0,3
4555,-16,10,-20,-52,-3,-2,1,-5
4560,11,-5,10,60,1,-6,-7,-10
4565,8,11,6,-98,-6,-2,1,20
4570,-13,0,1,80,1,-4,-6,-34
4575,9,-1,-4,-4,-6,-5,-2,34
4580,22,13,1,-19,7,3,3,4
4585,-21,-17,-11,-14,-9,-1,2,-4
4590,-22,-1,-15,17,5,-2,-5,-26
4595,-20,-2,34,-4,3,2,-2,18
4600,-27,3,-6,-17,-4,0,6,48
4605,30,16,5,41,5,0,-2,10
4610,-43,-13,-27,-49,-5,-3,-1,-34
4615,-23,7,21,65,9,0,3,45
4620,-33,-17,-24,-60,-14,0,-7,-1
4625,9,9,25,29,11,1,1,-9
4630,-10,0,-18,-3,-2,3,5,-3
4635,-14,-14,6,54,4,1,-2,-27
4640,-4,2,-18,-106,-13,-6,-3,-14
4645,-12,-9,-16,48,-5,-4,-2,1
4650,17,13,4,-21,-8,-1,-5,6
4655,23,7,31,52,12,2,8,31
4660,4,-10,-10,-7,-2,0,-1,-20
4665,-17,3,6,0,-6,-3,-2,-16
4670,28,2,6,-3,0,-2,0,39
4675,10,1,-15,-15,-4,1,-6,-24
4680,-29,-11,14,23,4,-1,3,-21
4685,-21,26,14,49,8,-7,-3,43
4690,43,-6,0,-10,-12,1,-5,-26
4695,-7,2,-9,19,10,-1,-1,-16
4700,-9,-4,5,24,1,-2,-9,-18
4705,-4,5,-8,-8,3,3,6,16
4710,1,3,-5,-10,5,-1,-1,-4
4715,-5,19,-7,-33,-3,3,-2,-31
4720,45,-7,10,64,-10,-6,0,15
4725,6,-1,12,-65,-3,-3,-2,-12
4730,-13,-23,-30,-16,10,0,2,24
4735,34,12,11,-5,-12,-3,-3,-1
4740,-6,-4,-4,37,11,-1,-5,-19
4745,6,0,1,-35,-3,2,0,-12
4750,-8,-2,3,32,1,1,3,13
4755,0,-2,-17,-32,3,2,3,-11
4760,-36,13,16,-8,4,1,0,-25
4765,-40,-33,-21,5,-12,-7,-8,2
4770,-4,2,1,21,9,3,3,-29
4775,-5,-7,17,53,-2,-4,-8,-31
4780,4,2,4,-13,2,5,2,15
4785,-4,3,-10,-10,4,4,1,-21
4790,11,3,0,26,2,1,-1,11
4795,-14,-13,3,-48,-4,-1,1,3
4800,-36,-7,-14,37,11,2,-3,-19
4805,69,43,-20,-30,0,2,8,55
4810,-17,-18,34,94,15,-4,-4,-24
4815,-12,-7,-26,-36,-14,-5,0,23
4820,16,8,11,-13,14,8,-1,-4
4825,-36,-5,-12,17,0,2,1,4
4830,85,19,0,-17,0,-4,-5,-42
4835,-49,28,18,-34,-21,-4,7,70
4840,51,17,-5,-65,4,-3,-2,7
4845,-4,-17,17,92,3,-3,-6,-22
4850,3,-3,6,-39,-6,0,-2,15
4855,-16,-2,0,8,6,4,-1,-46
4860,10,-2,-14,-40,-12,-3,3,25
4865,-14,-7,11,-1,2,5,5,-6
4870,22,28,12,-20,-15,-6,-12,-26
4875,-14,-6,-1,67,3,0,8,34
4880,-13,-13,-20,-65,-10,-3,2,-8
4885,40,-5,13,53,10,-5,-5,-22
4890,-51,-13,-6,39,-3,3,0,9
4895,22,-5,-14,-55,-6,1,-3,-21
4900,13,5,4,-12,-7,-1,-1,-13
4905,-11,-5,-4,-65,2,-4,-4,43
4910,3,-3,-6,37,-5,1,1,6
4915,12,-6,-7,-81,-7,-10,-6,-12
4920,2,-1,-3,7,5,1,1,7
4925,16,-1,13,62,5,-2,-3,-37
4930,-15,-4,-16,5,5,4,8,38
4935,33,3,18,-5,0,2,-3,-10
4940,1,-7,-37,-22,-9,-2,3,7
4945,-9,10,13,1,2,-3,-3,-22
4950,-52,-40,-13,25,-16,-12,-5,10
4955,-62,10,-15,-53,3,2,0,-10
4960,2,-2,10,37,-2,-2,-2,-1
4965,12,2,-11,-17,-6,1,-1,-15
4970,30,-1,10,-32,6,0,5,50
4975,-46,-16,-36,51,3,-2,-5,-27
4980,4,-2,20,51,0,-3,-8,-14
4985,-10,-3,-15,-19,0,2,5,62
4990,-46,13,-5,-71,-19,0,4,-8
4995,27,-1,10,24,3,-1,-2,2
5000,-1,2,2,-9,-2,-2,1,6
5005,-4,-13,-11,-7,-4,-5,-7,-40
5010,19,8,0,6,2,5,4,-1
5015,32,0,-1,-13,0,-4,1,12
5020,-38,10,33,86,4,1,-5,-10
5025,82,-8,2,-1,5,0,3,-7
5030,23,-10,2,-12,-9,-4,-4,5
5035,-8,-5,-35,40,5,0,-4,-13
5040,-73,-8,0,-14,-7,1,2,4
5045,58,17,21,0,9,5,2,12
5050,15,3,-21,15,-2,-3,-1,-18
5055,26,2,18,-25,-5,-1,-1,11
5060,10,-19,-17,35,7,-2,-5,36
5065,-24,7,-12,-59,-8,-2,1,-12
5070,-50,-33,-6,-33,-10,-6,-3,-21
5075,102,-5,-3,-47,-3,1,2,1
5080,-49,-5,14,39,9,-4,3,28
5085,-28,8,-2,25,-8,1,-5,-19
5090,-23,0,1,-14,1,1,4,7
5095,-6,5,11,16,7,4,-1,-11
5100,31,-6,-11,-21,4,-2,0,-9
5105,5,-3,-17,31,-18,-6,-2,3
5110,-19,1,27,-59,2,-3,-9,-18
5115,4,-3,3,34,2,6,0,0
5120,33,11,-3,-3,-3,-4,-1,-14
5125,-26,7,-14,18,7,2,1,-1
5130,-22,4,-6,-27,5,1,0,5
5135,-35,-13,-1,-2,-5,-3,-2,-8
5140,55,5,-1,-53,-1,3,0,3
5145,-48,-20,-10,-19,-4,-2,-3,-6
5150,-4,4,11,29,8,0,0,-11
5155,-30,2,-19,-27,-1,3,4,13
5160,-7,-11,-12,31,3,0,-4,6
5165,8,-8,9,32,-5,-3,2,-15
5170,24,11,-5,-5,9,4,2,9
5175,-6,9,0,8,-8,-3,-1,-18
5180,-23,8,8,15,-1,1,0,29
5185,6,2,-1,-61,0,-1,-1,6
5190,-17,2,20,38,9,-2,0,2
5195,26,-3,-1,10,0,1,0,-11
5200,12,12,-21,23,-15,-2,1,-12
5205,-22,-4,9,22,1,1,-3,2
5210,27,13,-6,-46,-2,4,5,6
5215,5,-5,34,99,11,-2,2,2
5220,-22,-11,5,0,-2,-6,-8,-32
5225,39,-13,8,-68,-6,0,-1,25
5230,26,8,-16,18,5,0,1,6
5235,-43,6,-8,-44,-12,-1,4,-24
5240,64,-20,6,39,3,-4,-7,-15
5245,-69,-4,5,31,1,-2,-2,-39
5250,16,12,2,3,4,2,-1,11
5255,14,-7,-16,-35,-8,-6,-5,-5
5260,-16,-1,9,-15,-3,3,8,13
5265,-71,-11,-9,3,9,3,0,-26
5270,71,4,-4,20,-10,-4,-1,26
5275,-34,-4,-1,-24,-5,-3,-6,9
5280,1,10,7,-22,-5,-1,-2,-13
5285,32,11,1,17,5,0,1,22
5290,4,-12,-12,-19,-7,-2,-6,-18
5295,20,-9,29,24,3,3,4,31
5300,-38,-4,4,63,2,-2,-1,-9
5305,51,10,-9,21,7,4,3,7
5310,-15,3,41,29,2,-4,-2,-15
5315,-16,-1,-20,22,-9,-1,-5,-10
5320,-17,-10,2,32,5,-1,-4,-10
5325,30,10,-3,0,-6,-1,1,3
5330,-90,4,11,-5,1,3,0,13
5335,3,-10,-13,4,2,-1,6,18
5340,5,-5,8,-22,1,-4,-5,-20
5345,-6,3,-22,-90,-10,-3,-2,-4
5350,-13,9,-17,6,6,4,2,21
5355,18,14,9,-33,1,-1,0,-8
5360,-1,-10,-14,-38,-4,0,0,-37
5365,0,4,8,14,5,1,1,9
5370,9,-13,-2,2,7,5,2,-28
5375,-10,22,4,-53,-5,0,0,40
5380,20,6,8,-14,0,-2,-3,-19
5385,-10,-10,2,21,-4,-1,-2,-6
5390,15,-2,-17,-81,-9,-2,0,-5
5395,-2,12,9,107,10,-3,-6,-10
5400,-11,-3,-11,47,2,3,5,15
5405,-10,-13,4,-114,-18,-12,-6,12
5410,5,-4,-12,60,11,-1,-6,-1
5415,80,7,12,-7,-4,-1,1,-44
5420,0,16,-7,-66,-2,3,6,22
5425,-14,-5,9,127,7,-4,1,69
5430,13,5,-2,62,2,1,1,-17
5435,-16,-19,-9,-74,-6,-7,-9,-15
5440,7,0,-2,-44,-7,-2,-1,-9
5445,23,1,-13,-12,1,3,8,16
5450,-19,-1,-1,-79,-20,-8,-7,-19
5455,-15,-3,-5,68,14,1,-5,7
5460,10,11,3,-29,-3,-2,1,1
5465,2,-2,10,39,5,1,2,13
5470,-57,7,-23,-10,-6,-6,-7,-5
5475,43,-2,-10,-16,-2,1,5,9
5480,28,9,18,65,11,0,-2,-4
5485,-8,3,-5,-24,-4,-1,-4,-26
5490,17,-8,2,67,3,1,2,-9
5495,-32,6,-9,-15,0,-1,-3,19
5500,8,8,0,-48,-6,0,-3,-21
5505,8,-11,-19,43,10,0,3,45
5510,21,-4,12,-59,-2,2,2,13
5515,-21,-5,16,88,4,-4,-2,-4
5520,13,10,-18,-70,-2,1,1,9
5525,-23,-25,0,9,0,-1,-11,-43
5530,6,10,-17,32,10,-1,2,-2
5535,-12,4,32,-123,-8,-1,-1,-1
5540,-22,-16,-2,89,7,-2,-5,10
5545,-6,5,-1,-22,-1,6,3,-28
5550,-2,-2,-4,-54,-5,-4,3,35
5555,1,-3,-15,23,6,4,-1,-31
5560,5,0,5,39,-6,-7,0,37
5565,-12,3,6,-60,0,-1,-4,-61
5570,-18,-19,-2,22,-18,-3,-5,8
5575,-13,2,-17,-27,0,2,8,4
5580,-2,-11,-9,-8,-2,-3,-4,-3
5585,9,3,0,12,-3,-1,-4,-16
5590,-25,-6,-4,-3,2,-4,2,-1
5595,2,1,9,-13,-2,-4,-5,11
5600,-12,-8,2,82,10,-3,0,-4
5605,-5,-2,16,-24,-1,1,8,7
5610,35,-2,3,7,-2,0,-2,19
5615,-5,-2,-11,-72,-6,-1,-3,-3
5620,1,-8,17,34,6,0,-1,3
5625,-10,15,-1,55,3,3,-1,-6
5630,29,-12,4,-57,-13,-7,-3,-16
5635,-28,-3,-12,16,2,3,3,11
5640,0,6,9,-11,4,3,-1,1
5645,3,-1,-5,-6,-5,-2,-5,2
5650,9,0,-2,18,8,1,-2,-34
5655,9,1,-2,25,-1,1,1,43
5660,-22,-4,-8,-26,-4,-1,-3,-6
5665,71,19,-10,-82,-5,0,4,-18
5670,-27,-9,26,68,4,0,-2,24
5675,58,1,-11,39,4,0,3,-6
5680,-35,-9,0,26,3,-4,-2,-13
5685,29,2,18,-58,-14,-5,-8,16
5690,-7,-3,-23,30,1,0,3,-12
5695,4,4,14,44,4,-2,-6,-18
5700,18,3,-3,-97,-2,1,3,17
5705,-30,-8,-7,37,1,1,-4,3
5710,15,-2,-2,-14,1,-3,-4,-17
5715,-14,-10,10,18,-3,-4,-4,2
5720,11,13,-7,-35,-7,3,10,1
5725,-15,5,-5,-27,1,-2,-1,9
5730,5,2,1,27,6,-2,-4,-1
5735,23,10,2,28,-1,1,-2,-29
5740,-24,-18,-22,-42,0,-1,8,43
5745,-25,4,1,31,-4,0,-3,-11
5750,9,2,17,64,9,3,0,2
5755,-27,13,-32,-36,-6,-6,-7,-29
5760,22,7,4,-19,-17,-3,-7,0
5765,12,2,-4,22,8,0,0,5
5770,-13,-12,-17,-35,-6,-4,-4,-22
5775,-19,-4,15,-12,10,3,2,9
5780,-1,2,-3,45,0,-5,-6,-9
5785,-10,-10,-11,14,-6,-4,-2,0
5790,-7,13,6,-31,-4,2,-2,5
5795,-12,-14,-3,-43,0,4,3,-2
5800,-2,-1,-9,-40,-7,-3,-3,4
5805,-4,-4,16,50,3,-2,-2,-17
5810,27,1,-3,-4,0,0,1,15
5815,32,2,7,-13,-9,1,6,10
5820,-2,2,-9,46,12,2,-1,-9
5825,24,-15,0,-73,-16,-11,-6,2
5830,-5,3,-16,26,2,4,-1,-6
5835,-8,-2,6,56,2,-5,-7,11
5840,12,-3,-5,-19,-1,0,4,-5
5845,-4,7,2,-36,-3,1,2,0
5850,3,8,4,39,-5,-4,-2,-11
5855,31,8,10,-69,-8,-2,0,8
5860,-6,-9,4,56,9,3,0,-12
5865,-45,-6,-8,-1,-4,-2,1,5
5870,-4,-2,-8,-29,2,3,0,-11
5875,24,2,-10,12,1,0,-2,-7
5880,-44,4,9,-19,-9,-3,-4,-17
5885,-22,-3,-8,13,9,4,8,0
5890,-3,1,-4,-18,-3,-2,-4,-12
5895,-10,-6,3,-28,-2,0,3,21
5900,-1,-2,6,45,9,-2,-7,-7
5905,5,-3,2,14,-1,0,-2,3
5910,2,2,-1,-27,1,3,4,7
5915,-18,-15,-11,-10,-3,-2,-4,-12
5920,-29,-6,-18,-43,-14,-6,-5,7
5925,39,0,5,21,8,5,7,5
5930,38,20,10,41,4,1,-2,-1
5935,-14,1,-3,-8,-5,1,2,11
5940,3,2,0,-53,1,3,1,-2
5945,37,-7,20,92,5,-6,-9,-3
5950,-16,-9,-16,-116,-12,-1,5,-5
5955,-7,-9,-5,59,7,3,-2,-23
5960,12,-6,13,-74,-4,-3,-3,11
5965,-17,4,-3,39,5,2,-3,6
5970,24,0,10,-35,-1,0,-2,0
5975,-69,-15,-18,-11,-5,-8,-6,-18
5980,36,-3,7,-7,-7,-1,4,21
5985,-57,-5,-38,-55,-2,2,0,-5
5990,50,8,26,85,5,-4,-6,14
5995,-26,-11,7,18,0,0,5,1
6000,38,7,4,7,-8,-3,-3,-10
6005,-1,0,2,-64,4,1,0,13
6010,-53,-9,-5,46,-4,-7,-3,-2
6015,20,7,-8,-4,0,1,2,-2
6020,3,0,7,31,2,1,0,5
6025,15,-2,-11,-21,-4,-1,1,3
6030,-20,-6,-2,-2,3,1,0,5
6035,47,0,12,2,-8,-5,-7,-1
6040,-78,-13,-4,24,7,-2,-2,-17
6045,8,-7,-15,-23,-3,-1,1,-14
6050,7,-8,4,-2,0,-2,1,1
6055,3,17,-12,-12,3,1,4,21
6060,5,0,2,72,9,-1,-3,19
6065,19,6,27,19,-5,-5,-5,-7
6070,6,4,1,-11,-4,-4,-3,-8
6075,-45,-21,-22,-9,1,1,1,-9
6080,28,2,-19,-32,-3,6,2,-13
6085,-18,-3,17,56,6,-8,-8,26
6090,7,-1,-3,-77,-10,2,3,3
6095,12,12,18,53,3,-1,-6,-5
6100,-4,-4,-24,-13,-1,2,0,-4
6105,-5,-5,-3,-6,-9,2,1,-12
6110,-22,5,-4,-4,0,-1,3,6
6115,-33,2,4,-17,1,-1,-7,-7
6120,34,-1,-1,13,-2,-3,0,0
6125,-33,7,-14,-5,10,4,0,-6
6130,17,-19,12,-25,-13,-8,-4,3
6135,-33,14,-3,4,1,1,0,-3
6140,35,-11,8,-2,-1,2,3,-1
6145,-8,-1,-15,10,-4,3,7,9
6150,-11,-3,2,-7,12,0,-2,-42
6155,24,-13,16,86,3,-6,-5,26
6160,-16,1,-2,-39,-5,-4,-6,-20
6165,17,-2,-19,-19,-5,0,-1,-13
6170,-29,-1,6,16,6,6,0,9
6175,31,-2,16,-26,2,-1,-1,-13
6180,-26,-1,-10,20,-2,-2,0,-2
6185,14,0,14,38,-2,-1,2,6
6190,31,10,3,-1,4,3,0,4
6195,-2,-3,-6,7,-2,-4,-3,-3
6200,-11,2,0,-33,-7,3,4,12
6205,5,-6,-6,-24,-3,-2,-3,5
6210,-29,-2,-6,6,-1,0,2,0
6215,28,16,-6,-30,-5,2,5,8
6220,-74,-11,13,54,8,0,-1,-16
6225,41,14,8,-4,2,2,5,9
6230,-14,-6,-27,-7,-5,-4,-7,8
6235,1,-3,-9,3,-2,0,-2,-21
6240,45,28,12,-15,0,3,3,-2
6245,1,-27,-3,-9,2,-6,-9,3
6250,-61,1,-2,5,-8,-4,-1,18
6255,10,1,5,7,-1,4,1,-8
6260,19,10,7,-64,1,2,0,8
6265,-24,-11,-41,9,1,2,-10,-8
6270,47,8,32,1,-4,-4,9,-10
6275,22,8,-10,-2,1,1,0,13
6280,-10,-5,-1,34,-2,-5,-4,1
6285,-1,-4,2,0,-5,-4,-3,-2
6290,-19,3,-13,-1,1,3,-8,-22
6295,27,-8,4,-19,1,1,8,28
6300,10,-7,-9,12,1,-3,-2,15
6305,-57,2,3,-26,-6,0,-1,-28
6310,21,-19,-1,38,2,-3,-15,19
6315,-59,-2,-1,21,3,-1,16,-12
6320,63,12,-4,-69,-10,-1,-4,13
6325,-2,-20,-10,-16,-10,-4,5,11
6330,-29,-17,2,16,-3,-3,-5,-18
6335,-24,3,9,0,4,0,-6,-3
6340,-6,-5,3,109,6,-1,-3,-15
6345,-6,13,7,-65,-18,-4,-2,13
6350,-9,-5,-12,14,2,3,3,-2
6355,66,-24,-23,-47,-14,-8,-9,-6
6360,-21,22,7,23,9,1,4,3
6365,16,-5,5,11,5,3,3,-2
6370,28,-4,-3,-2,-6,-7,-12,-6
6375,-111,-21,-3,17,5,1,-1,2
6380,19,5,17,-78,-10,-3,1,14
6385,39,16,24,74,13,6,-2,-67
6390,-28,7,-25,-84,-8,-2,9,106
6395,5,2,16,13,5,-1,-9,-44
6400,2,-14,-8,-22,-2,-1,-5,20
6405,-38,3,-25,-25,-12,-7,2,2
6410,63,7,13,71,16,4,1,-14
6415,15,17,-13,10,3,4,0,8
6420,-21,-11,-3,-63,3,2,-2,-9
6425,-22,3,0,20,-18,-5,-1,11
6430,40,13,12,23,9,3,8,-2
6435,80,12,-11,24,9,-2,7,-9
6440,-41,-5,-14,-62,-18,-3,-2,-11
6445,5,-6,12,21,12,4,-6,-2
6450,-18,1,-2,0,0,-1,-4,-15
6455,0,4,15,5,1,1,-1,-4
6460,28,12,11,21,3,-2,-2,-5
6465,33,-22,-21,-49,1,-5,2,11
6470,-16,-7,-3,50,1,-2,-2,-4
6475,-8,5,-7,-43,-10,1,-2,8
6480,3,-8,2,13,5,-1,-1,-15
6485,-29,-1,29,-5,2,-4,-7,-11
6490,-42,13,-6,46,0,0,4,53
6495,19,-9,-5,-71,-23,-7,-2,-9
6500,0,3,-12,20,5,4,1,2
6505,4,-5,-3,-18,11,2,4,-1
6510,2,-7,5,4,5,3,1,-20
6515,-29,1,17,15,-3,-3,-11,-14
6520,-44,-18,-21,25,-1,-4,8,2
6525,35,11,15,-12,7,4,2,38
6530,7,-2,-15,-22,-6,-1,-3,-20
6535,-15,-5,2,-7,2,-2,0,8
6540,-7,12,0,58,2,-4,-10,-29
6545,16,5,2,-28,0,0,16,-9
6550,63,12,10,-11,-8,-4,0,28
6555,-24,-11,9,-34,0,-4,-6,-6
6560,19,12,-6,68,6,1,1,9
6565,5,-9,15,61,-4,-3,-5,1
6570,3,2,6,-30,-5,1,4,-21
6575,-43,0,-5,33,6,2,0,14
6580,43,7,-25,-97,-16,-4,-5,-10
6585,-25,-5,5,97,9,-6,-7,-20
6590,-36,-26,-5,-26,0,-2,-2,-10
6595,-35,3,-12,-13,-2,2,0,16
6600,-7,-5,1,-20,1,2,2,-19
6605,12,-2,-18,-22,-9,-1,-6,3
6610,-12,5,5,16,8,2,-5,-18
6615,23,-10,-11,-16,-12,-4,-6,-8
6620,-9,-7,2,-21,9,3,9,18
6625,-21,12,-12,-27,-10,-3,-5,-4
6630,-5,-9,13,20,10,3,4,3
6635,12,-4,-10,-23,-12,-4,0,3
6640,-11,-5,40,100,16,2,-4,-9
6645,77,-18,-41,-66,-15,-5,-12,-11
6650,-25,21,12,-88,-3,5,11,20
6655,14,8,0,59,13,4,1,8
6660,-19,-6,21,-15,-5,-4,-6,-11
6665,8,1,-13,18,2,-2,1,17
6670,54,0,-8,-3,0,-4,-10,-45
6675,-40,-1,-12,-10,-6,-4,-2,26
6680,20,-3,-18,-1,4,3,8,5
6685,-39,-18,15,-11,-1,0,-1,-5
6690,-10,-2,-15,26,-3,-6,-3,-17
6695,7,11,14,0,2,-1,0,-10
6700,-6,-9,-17,4,-7,-4,-8,20
6705,-29,19,1,-27,-2,5,12,0
6710,11,-8,1,11,0,-2,-4,-6
6715,4,-7,12,35,7,-1,-4,15
6720,5,-1,-5,-38,-3,-4,-3,15
6725,-4,10,5,30,1,-1,-2,-10
6730,-27,-5,-7,56,11,4,-2,-1
6735,83,5,29,-12,6,-1,-1,5
6740,-17,0,-38,-61,-24,-7,-4,-7
6745,-42,12,7,-47,14,7,7,8
6750,-15,-2,10,82,1,-5,-6,-30
6755,5,4,5,-58,-7,3,-3,5
6760,6,-5,0,15,2,-6,2,6
6765,11,-11,-22,-29,-1,1,-3,-7
6770,-49,5,15,5,-5,-3,-5,4
6775,-7,-5,-29,-6,-5,0,1,-15
6780,44,1,20,39,4,0,-2,-4
6785,-2,-2,7,21,-9,-8,-9,-2
6790,16,-9,-7,-50,-3,4,13,-2
6795,43,13,-5,15,-2,-4,-4,-3
6800,-1,-2,-1,2,-3,0,-3,-3
6805,-8,-4,11,22,2,-1,1,43
6810,-35,-6,-9,-22,1,-1,-7,27
6815,28,1,7,29,-4,0,2,-26
6820,-23,-2,-8,-29,-10,-4,-2,-7
6825,-2,22,13,54,19,3,5,-8
6830,31,3,-11,-11,-9,-1,-2,-3
6835,-17,1,6,-17,3,4,4,4
6840,-26,-8,-13,33,8,-6,-6,-16
6845,9,0,12,78,6,3,2,-1
6850,12,-3,6,-45,-4,4,2,8
6855,-11,4,-20,81,7,-11,-5,-16
6860,-14,-3,16,16,-1,3,5,5
6865,18,-6,1,-35,-2,0,-3,-1
6870,-1,0,-3,2,-3,-4,-1,5
6875,17,5,4,-21,1,2,-2,-15
6880,-9,-20,4,-2,12,-1,-1,-29
6885,21,9,-4,-31,-24,-5,-1,77
6890,-4,6,-6,9,-2,0,-2,-24
6895,-13,-11,-2,-57,-3,-2,-1,37
6900,-41,1,3,20,-1,-1,-2,-8
6905,50,7,2,18,7,3,-6,-24
6910,-17,-5,-5,-16,-7,0,3,-28
6915,-32,-13,-13,19,1,-7,-7,-36
6920,15,38,17,-8,3,5,10,106
6925,-22,-3,-13,-49,-5,-2,-3,-38
6930,22,-7,-11,1,2,-1,-5,26
6935,10,-6,25,58,7,1,-1,-21
6940,15,-9,-4,55,6,-1,-4,-21
6945,19,4,-3,-55,-9,-3,10,-9
6950,-2,-6,13,36,5,-3,-6,1
6955,-12,-8,-28,-15,-7,0,0,4
6960,-18,3,15,-16,2,-1,-6,-15
6965,-3,-7,4,26,6,6,4,12
6970,-32,-1,2,-20,-8,-4,-5,-16
6975,0,-7,-8,16,5,2,6,12
6980,29,2,4,-42,-11,-1,-4,-10
6985,-27,-9,-6,40,4,-2,-4,-15
6990,-8,-11,-11,-29,-3,0,-4,-2
6995,56,9,3,-17,-6,-1,5,5
7000,-5,-23,-11,-4,-2,3,3,3
7005,-68,-6,14,-56,-1,-4,-7,-27
7010,93,18,-4,10,-5,-4,4,24
7015,-19,-3,13,16,-3,0,-5,23
7020,-2,-7,-12,19,4,4,2,-23
7025,-6,3,-5,-11,0,0,0,-2
7030,-15,-9,7,-27,1,-2,-2,0
7035,-18,5,-13,-82,-1,4,7,-14
7040,21,5,30,98,-8,-10,-5,16
7045,23,0,-18,-15,-1,4,0,-3
7050,-25,-5,4,-37,0,0,-8,-18
7055,-98,6,-12,-16,-2,-1,9,-3
7060,-7,1,-12,-9,3,1,-1,0
7065,27,3,-3,4,0,-2,-3,5
7070,-11,2,-4,14,-11,-4,0,-9
7075,4,-7,9,28,6,2,-5,-11
7080,29,5,8,-7,1,2,6,-27
7085,-63,-9,-15,-5,-7,-4,-5,23
7090,27,4,5,-15,-6,2,7,49
7095,43,8,3,64,3,-2,-6,-6
7100,11,-6,-19,-51,-7,-1,-5,-10
7105,10,4,30,41,14,-3,-2,-16
7110,-28,-8,-19,-20,-2,-1,-2,-8
7115,46,8,37,1,-8,-1,-1,4
7120,-69,-16,-30,-96,-3,-2,-4,-11
7125,-7,-9,-1,46,2,-2,-3,-7
7130,10,7,0,27,1,1,3,4
7135,8,3,-7,-35,3,0,-5,2
7140,0,-5,-10,-16,-4,3,7,3
7145,29,4,6,-1,1,-2,-5,-39
7150,8,8,4,-6,5,0,6,40
7155,23,-1,-12,-5,-2,-2,-6,-11
7160,-53,2,5,52,3,0,-2,21
7165,-13,-12,-9,-28,-7,-4,-9,-26
7170,68,2,-18,2,-3,-3,-4,-29
7175,-52,-40,0,-28,-5,-3,-2,2
7180,57,19,17,37,4,0,-2,-10
7185,-14,1,-13,-30,-5,-2,5,21
7190,-12,-3,13,42,10,-3,-6,-30
7195,-36,-4,-3,-6,-6,1,4,15
7200,44,9,-15,-41,-1,3,-2,-5
7205,-4,-1,11,42,5,0,2,2
7210,-40,-8,-12,-79,-9,0,0,-8
7215,1,9,32,15,2,-7,-6,-1
7220,5,-3,1,-9,-5,-4,-2,-5
7225,-2,3,-31,17,1,3,6,20
7230,-21,-3,4,28,2,2,-5,1
7235,15,7,7,-29,9,0,4,6
7240,-2,-11,-12,21,-11,-4,-3,-14
7245,-29,-6,7,-12,1,1,-4,2
7250,48,-19,-15,-6,-6,-2,0,-22
7255,-35,-4,-21,0,-5,-1,-2,-21
7260,16,-2,-7,-1,0,-5,-1,21
7265,-6,-2,9,-11,-1,1,-1,-8
7270,-12,5,-2,9,3,-1,-4,-7
7275,23,4,2,15,1,0,-1,-23
7280,-26,3,-14,-11,-2,-1,-2,-4
7285,6,0,-1,-20,-16,-8,-2,-1
7290,-17,4,11,7,8,-2,-1,2
7295,-14,3,10,13,-7,-5,-5,11
7300,-6,-9,-27,20,10,3,0,9
7305,13,8,26,16,0,0,1,1
7310,23,17,5,-9,-2,-1,-1,-6
7315,-56,-34,-31,26,2,3,2,-40
7320,84,17,16,22,-4,-3,3,86
7325,-1,-6,-1,51,0,-4,-2,-27
7330,-4,-2,1,11,7,-1,-3,1
7335,9,9,0,-5,1,1,-1,6
7340,-20,-8,10,-3,2,1,0,-23
7345,21,-5,-3,-30,0,-1,1,22
7350,-8,19,-4,25,-2,0,4,-24
7355,31,-16,-20,-59,-7,-7,-5,39
7360,-24,10,10,6,-12,-11,-7,-29
7365,15,-3,-6,7,5,3,4,28
7370,-35,-1,3,10,2,0,-1,-11
7375,34,26,-6,-8,0,3,2,0
7380,-32,-28,0,-35,2,-3,-2,-4
7385,47,-4,2,11,-3,-2,-9,-33
7390,3,-7,-15,30,-4,0,8,61
7395,22,-7,7,-69,-9,-8,-5,-14
7400,9,11,1,56,11,3,-2,-13
7405,17,0,-18,-6,-13,-2,-1,-8
7410,-10,-12,0,-26,1,2,1,-2
7415,-27,4,-2,11,1,2,4,-14
7420,-6,-7,9,-9,-2,-2,-1,5
7425,-10,7,10,-25,6,0,0,14
7430,46,7,2,-19,-3,3,6,-3
7435,-80,-17,2,44,-1,-5,-8,6
7440,-17,10,3,13,-11,-2,-1,-12
7445,33,-1,-7,29,8,2,1,0
7450,-11,-4,8,-5,-4,-2,1,15
7455,6,5,-6,40,-2,-2,-2,-1
7460,10,-6,-8,-16,5,1,1,1
7465,-48,-3,-2,-45,-4,0,1,0
7470,-14,-1,-9,48,6,-1,-5,-12
7475,27,5,8,-62,-2,-2,-2,-15
7480,-7,0,5,13,-14,-9,-6,5
7485,-4,2,5,-10,7,4,4,24
7490,-7,-7,-6,-37,2,5,0,-22
7495,-11,2,-1,31,-1,0,2,43
7500,-2,-4,2,-8,6,5,-1,0
7505,33,24,8,-11,0,-2,-5,-12
7510,58,-11,5,-25,-10,-4,-3,31
7515,-12,22,2,25,-9,1,1,4
7520,-18,-10,-24,-56,-1,-7,-7,-28
7525,-4,-4,-2,34,-5,-2,-1,5
7530,-22,9,8,-2,-3,-1,-1,-4
7535,21,6,-1,11,11,7,5,0
7540,-19,-2,3,26,11,5,4,1
7545,41,11,1,-32,-4,3,2,-24
7550,-83,10,-6,-9,-1,-6,-4,12
7555,8,-32,-7,21,-11,-2,-5,-6
7560,8,-2,-4,22,3,6,1,-10
7565,-21,-9,4,-54,-13,0,4,2
7570,16,-4,5,-13,5,-2,-3,-11
7575,-2,7,12,75,14,-2,-4,-13
7580,-44,-18,-17,-37,-4,-3,-10,-11
7585,0,3,6,45,0,7,9,18
7590,-6,-7,4,-49,-13,-3,0,-11
7595,31,-7,-11,-8,1,-4,-5,-13
7600,23,1,-1,-44,-5,-6,-2,6
7605,10,4,16,80,12,-6,-8,-15
7610,-46,4,-18,-6,-8,2,0,-17
7615,20,0,8,-38,0,7,7,45
7620,13,-1,2,16,-2,-7,-4,-15
7625,-12,-5,-12,-23,6,-2,-3,10
7630,-32,1,7,40,-2,-4,-4,-38
7635,16,2,-12,-66,-10,-3,0,-7
7640,-4,0,11,26,12,1,0,-15
7645,-24,-11,-21,-86,-23,-4,-4,19
7650,-2,-5,-5,45,18,3,7,6
7655,20,24,10,8,-9,0,2,-7
7660,-47,18,4,16,2,3,-3,-21
7665,36,19,13,-57,-2,-2,2,20
7670,20,-1,-7,15,7,3,-2,-16
7675,-26,-9,16,54,4,1,2,45
7680,45,0,-4,-50,-3,2,-1,-13
7685,-23,-19,-21,8,-1,-1,-2,10
7690,11,7,-3,-40,-3,-2,-1,17
7695,-7,-4,-12,-13,-7,-6,-3,-21
7700,17,-2,16,16,2,2,2,17
7705,-21,-14,10,127,19,-3,-9,-30
7710,10,-12,-7,-29,-9,1,6,4
7715,7,-7,-8,-2,7,2,-8,-9
7720,-49,-30,-16,-22,-5,1,5,-5
7725,55,20,-8,5,6,4,2,-7
7730,9,5,18,16,-18,-9,-5,20
7735,-32,-6,1,5,11,1,-1,-48
7740,35,8,-4,-27,-9,2,0,80
7745,-23,3,5,46,5,-1,-1,12
7750,24,-7,0,-69,-1,2,-3,8
7755,15,20,1,-30,-1,-1,3,5
7760,0,2,15,91,10,-4,-5,-19
7765,-18,-10,7,-44,-8,-2,-1,-19
7770,27,13,-2,-22,4,0,-4,19
7775,-2,-21,-24,-44,-18,-7,-3,-7
7780,-38,13,3,33,8,4,6,-15
7785,5,-1,21,31,7,3,-1,7
7790,-7,-17,-6,86,3,-6,-9,-23
7795,15,-8,-22,-3,1,-1,-5,-10
7800,-33,-4,-10,-34,-6,-1,5,21
7805,10,-3,-12,-3,-12,-3,2,-6
7810,-22,-3,-19,-7,8,7,5,-4
7815,-10,12,27,42,8,-2,-6,-8
7820,15,1,1,3,0,3,-2,-6
7825,-30,-7,-15,-80,-10,-3,-1,-15
7830,38,6,4,22,6,-3,-2,20
7835,-47,8,-2,-13,-4,-1,0,-8
7840,13,-10,-8,-27,-4,1,4,0
7845,54,14,-3,10,6,2,-5,-24
7850,-29,15,16,35,2,-1,-1,-32
7855,-7,-23,-9,-40,-8,1,13,64
7860,-6,3,3,20,-2,-5,-7,3
7865,-9,-6,-3,-18,0,1,2,-6
7870,17,3,3,34,1,-2,-7,-5
7875,7,10,8,-33,8,4,3,3
7880,-14,-6,-26,27,-12,-6,-3,-34
7885,-66,-13,0,34,-1,-1,-1,43
7890,13,1,1,-36,-7,0,5,16
7895,24,3,3,54,1,2,-3,-5
7900,-28,-20,-8,-89,6,0,2,10
7905,-18,1,2,24,-8,-5,-6,-29
7910,-37,-12,-9,-63,-3,0,3,21
7915,37,3,3,61,8,3,-2,-11
7920,30,8,-8,-16,-1,-2,-1,-8
7925,-11,6,-9,-19,0,-3,3,2
7930,-53,-4,4,-2,0,2,2,15
7935,23,-1,-10,-24,-5,-4,-1,-6
7940,-27,-6,7,-6,1,2,-2,-3
7945,-3,-17,-3,36,1,-3,0,3
7950,-6,13,2,22,7,2,-3,-12
7955,2,4,-4,-26,-14,-12,-3,-10
7960,37,9,18,41,5,2,-1,10
7965,11,-2,2,-4,2,1,0,1
7970,11,-5,-19,29,-7,-2,-8,-39
7975,1,1,18,-40,1,3,2,65
7980,2,-1,-1,-38,-3,2,6,-7
7985,26,-1,16,62,1,-4,-8,0
7990,-32,-11,-22,-69,-6,1,3,5
7995,1,-13,-15,-15,-12,-3,-7,-33
8000,23,3,-6,-3,4,1,4,7
8005,-42,-4,-4,-59,-1,1,-1,-3
8010,19,-1,23,62,7,0,-5,2
8015,14,-8,-31,-2,0,1,2,-21
8020,-40,-13,7,-29,-2,-2,-5,3
8025,-10,11,-13,18,1,-1,4,-3
8030,1,2,15,29,2,-4,-5,-1
8035,-6,-13,-29,2,6,0,-2,-2
8040,13,14,30,21,-11,-4,-2,-1
8045,-26,-7,-33,-65,-3,0,0,-8
8050,8,-15,10,45,5,-2,-1,11
8055,24,9,17,62,3,0,2,22
8060,12,-8,-17,-20,-5,-4,0,3
8065,1,4,-1,-30,2,1,-1,-8
8070,1,-8,-5,17,-5,-4,-2,-1
8075,-15,-1,18,15,-5,-1,-1,-11
8080,9,9,-2,17,-4,-3,-1,-3
8085,22,-2,7,28,6,2,-2,11
8090,-27,-10,-16,-33,-3,0,-3,-6
8095,-43,10,3,12,9,-1,-1,-36
8100,58,13,10,9,-4,2,5,47
8105,-42,-12,-2,65,7,-2,-4,3
8110,27,13,1,-74,-6,3,2,-1
8115,-23,0,4,21,4,1,-1,-10
8120,-17,-10,0,36,0,-6,-9,-14
8125,30,4,8,2,2,0,3,-4
8130,-27,3,1,-67,-12,-1,1,6
8135,5,4,0,27,10,0,-2,18
8140,0,3,-10,-43,-2,1,0,-13
8145,31,-9,7,26,-6,-3,-4,-10
8150,-12,16,-4,12,-1,0,3,15
8155,11,-14,-4,-15,6,2,4,-1
8160,-16,2,1,9,-18,-4,-5,-4
8165,15,9,1,-48,-2,0,-1,-7
8170,31,-1,0,5,4,0,-2,-4
8175,-79,-3,-1,38,-1,-6,-5,-54
8180,59,0,-8,-25,-3,-2,0,11
8185,-34,-11,-9,3,-3,1,4,-2
8190,21,4,-2,-66,-2,3,4,2
8195,6,-6,24,47,3,-6,-10,-17
8200,-16,4,-13,-38,1,2,0,-16
8205,4,6,1,10,-5,-10,-7,19
8210,13,-1,2,34,2,-3,-1,-26
8215,-12,6,2,-41,-2,3,4,28
8220,-9,5,14,24,11,1,0,-7
8225,-34,-2,0,42,2,1,5,6
8230,9,-1,-5,-48,-6,-2,-1,-23
8235,4,-1,-25,-81,-17,0,-1,4
8240,14,-10,41,109,5,-8,-8,0
8245,-52,2,-7,-13,2,2,-2,-18
8250,-30,-5,-16,5,-3,-3,-2,5
8255,17,-2,-5,-23,-2,1,3,18
8260,2,1,-13,-35,1,4,0,-3
8265,-9,0,-5,-23,-9,-5,-7,-50
8270,37,-2,15,57,0,-1,3,86
8275,40,24,-1,-8,-3,4,2,49
8280,-45,-12,-27,-72,-4,-4,-3,-12
8285,3,-3,22,74,14,2,1,-6
8290,-7,-3,13,28,0,-1,-4,-17
8295,-14,14,0,15,0,1,-2,-21
8300,14,0,-1,-5,5,4,1,7
8305,31,-6,-7,-40,-5,0,0,26
8310,-86,1,-8,-12,1,-3,-2,-24
8315,51,-6,11,4,0,-6,-4,-8
8320,-14,0,-17,-36,5,1,2,21
8325,16,-3,-5,-24,-12,1,4,13
8330,3,0,15,18,9,-2,-1,-3
8335,-30,-8,-17,-6,-2,-4,-2,-10
8340,2,3,12,63,7,1,-3,-7
8345,53,23,5,-80,-4,-3,-2,18
8350,-13,-26,-19,-37,-3,2,5,-13
8355,-11,-6,18,83,10,2,-1,-5
8360,15,1,-8,-72,-6,-4,-1,-5
8365,-1,-2,-9,-11,-5,-1,-2,11
8370,4,14,6,45,3,2,-3,-18
8375,27,-4,-7,-67,2,-2,1,25
8380,-32,-1,13,38,2,1,0,-12
8385,17,-1,1,6,2,-1,-4,17
8390,5,4,-8,1,2,0,3,3
8395,-6,-3,8,-2,-6,-4,1,-24
8400,1,1,-4,12,0,0,-4,22
8405,-27,-11,-5,-7,-2,2,3,20
8410,54,11,-2,4,-3,-3,-3,-18
8415,-42,-12,-7,-1,3,1,-3,-1
8420,-8,-4,-3,-17,-2,-1,-1,-31
8425,33,14,13,8,-2,0,2,3
8430,-24,-26,2,64,-1,-2,-1,13
8435,49,-1,1,-46,-16,-7,0,11
8440,6,8,-13,3,5,2,-1,2
8445,-7,-11,0,-2,3,-4,-5,-39
8450,-2,3,-9,-52,0,-2,1,48
8455,-9,15,21,35,0,2,1,-16
8460,32,-35,-18,13,-5,-2,-1,-3
8465,0,14,5,-34,0,-3,-2,-4
8470,-6,-3,2,20,-5,-3,-3,-22
8475,-19,1,-4,-9,5,1,0,-10
8480,5,5,6,-13,-5,1,-1,11
8485,-6,-3,-3,41,2,0,1,2
8490,-3,-4,-8,-81,-2,0,-4,-17
8495,51,3,-3,-36,-8,-2,0,12
8500,-29,4,2,83,-4,-5,-6,-22
8505,8,-2,-10,-15,-1,1,2,21
8510,16,20,17,48,6,0,-1,-3
8515,-12,-12,-12,6,4,-1,-1,7
8520,2,5,2,-27,-1,-2,0,-11
8525,-1,-6,0,-1,4,3,2,0
8530,6,-5,-6,17,2,-2,-4,-1
8535,-7,-10,-7,36,5,-3,-8,-15
8540,10,-5,2,-47,0,1,2,-10
8545,-21,-9,-12,20,5,-1,-3,-16
8550,-21,-3,5,-13,-7,-2,2,32
8555,-9,-1,-3,29,3,0,-2,-10
8560,6,9,3,21,0,2,1,21
8565,6,-1,-3,-36,-7,-4,-6,-14
8570,66,4,3,31,2,-1,4,-7
8575,-63,-2,-9,-39,-12,1,1,9
8580,7,-5,1,63,4,-6,0,17
8585,-16,29,10,-24,-4,2,-1,3
8590,-6,-3,-2,14,-8,-3,-7,-15
8595,7,-8,-16,-26,1,-2,1,5
8600,-16,2,10,15,-2,0,-1,-5
8605,21,2,-2,27,2,0,1,-4
8610,-13,-10,-3,-53,-5,-1,-8,-61
8615,-23,2,-6,55,3,0,3,93
8620,6,-4,-9,-90,-7,0,4,-17
8625,-14,0,12,48,1,-3,-2,-2
8630,32,4,-12,6,-1,2,1,5
8635,-5,1,10,3,-1,0,0,-17
8640,1,-2,-2,-19,-2,1,-4,-7
8645,-29,-13,-5,8,-3,-3,-2,-2
8650,15,21,10,33,8,4,4,36
8655,4,-4,-3,-36,-3,-2,-3,-22
8660,-11,0,-15,0,1,-3,-2,7
8665,10,-5,-4,-41,-9,0,2,-10
8670,-26,2,21,65,10,4,1,7
8675,41,-3,-4,-16,-6,-3,-2,-7
8680,1,6,-10,-22,-6,-4,1,-8
8685,-10,2,-4,16,5,0,-5,-11
8690,10,-1,7,10,-1,-3,-1,23
8695,-35,11,15,56,13,4,2,6
8700,25,-24,-9,-77,-17,-1,3,11
8705,-28,-3,15,10,3,-3,-3,-8
8710,5,-8,-8,5,-6,-3,-2,-14
8715,-6,-5,-7,5,0,-2,-4,-22
8720,-2,5,1,19,4,2,1,6
8725,17,-4,-7,-21,2,-1,1,-6
8730,-32,4,-6,-6,-5,-2,-1,-1
8735,34,-7,7,-16,-1,-2,-1,-8
8740,-18,2,5,19,3,0,-5,-7
8745,48,1,0,11,-1,-1,-7,5
8750,-62,4,2,-34,0,-1,3,-25
8755,-77,-13,-14,-20,-13,-5,1,-8
8760,1,5,11,41,7,1,3,24
8765,3,2,2,-10,-1,3,3,3
8770,23,-5,-13,43,3,-1,-3,8
8775,0,5,4,-61,-10,-4,-5,-17
8780,-50,-11,8,26,3,-5,-5,14
8785,-1,-2,-2,6,-2,0,1,-2
8790,5,-9,-18,-54,-21,-3,-1,14
8795,6,-1,14,-3,12,3,1,-19
8800,-5,2,-9,-2,-3,0,-3,15
8805,10,-6,17,8,2,-6,-4,-21
8810,6,5,-6,6,0,-1,0,-10
8815,36,2,-2,8,-6,3,-1,27
8820,12,7,-1,-9,1,-2,1,-10
8825,-12,-1,-4,-17,1,4,3,2
8830,9,0,1,-7,-2,-6,-1,-6
8835,7,-4,-2,23,2,1,-3,4
8840,8,1,14,-1,-8,-1,1,-18
8845,-4,6,-10,-1,-2,-3,-4,15
8850,21,-2,3,18,7,3,6,2
8855,40,0,-17,-43,-6,-2,-3,-5
8860,35,3,1,30,-5,-7,-7,-7
8865,-6,4,-4,-9,-1,2,2,9
8870,-2,-3,6,-18,5,2,-3,-6
8875,-22,-9,-10,-20,-7,-1,1,-7
8880,8,11,8,45,3,0,-1,0
8885,18,-2,-10,8,-4,-3,-1,1
8890,14,1,6,-37,-6,-3,-3,24
8895,-28,-3,-7,27,8,-2,1,-10
8900,-2,-4,4,9,3,-2,-5,-17
8905,-69,-15,-9,14,-4,-4,2,21
8910,22,18,2,14,5,3,-1,-1
8915,6,12,4,-23,-1,2,0,-2
8920,-4,-1,-8,-27,-2,-2,-1,5
8925,23,7,10,36,7,0,-2,-9
8930,-6,-12,-12,-66,-8,-1,-2,-10
8935,-48,-12,18,105,9,0,-4,22
8940,10,-2,-11,-15,-2,2,2,-20
8945,12,7,4,-38,-12,-3,-3,-9
8950,-36,-10,-14,44,8,4,-2,-7
8955,47,-10,10,17,0,-9,-2,14
8960,-14,-7,-6,-13,1,3,0,3
8965,-4,-17,-2,18,-5,0,1,-1
8970,7,12,-7,-54,-6,0,-2,-3
8975,27,1,-3,-21,-2,-3,-2,-7
8980,-17,1,7,22,10,2,-3,2
8985,23,-2,0,-6,0,-1,-1,-5
8990,-43,-14,0,12,3,0,-1,-5
8995,-18,19,-6,4,-5,1,1,-9
9000,13,-4,-3,-46,0,-1,0,-1
9005,6,16,-6,-19,-1,2,0,-1
9010,-4,-15,2,0,-1,-4,-1,-1
9015,-14,3,-3,38,1,-4,-1,-3
9020,43,-5,1,-42,1,-3,-2,-8
9025,-56,-2,-2,2,0,2,3,15
9030,-3,-5,5,7,2,-3,-2,-22
9035,5,-2,-1,-10,4,5,2,26
9040,36,1,-5,-5,-24,-6,-6,-8
9045,-41,-18,12,-8,14,-3,-2,16
9050,36,2,-8,-13,-8,0,1,6
9055,-16,8,5,-17,7,1,0,-16
9060,-16,0,9,45,1,4,3,-1
9065,-9,-11,-16,-11,-2,-5,-2,-8
9070,-13,5,5,2,-1,-2,0,12
9075,4,2,-5,-19,-5,0,1,-6
9080,0,-4,1,-12,3,-2,-1,5
9085,-23,4,-3,-11,-6,0,-1,-7
9090,-37,3,10,16,3,-1,-1,-3
9095,15,-9,-11,-35,-6,-4,-5,-6
9100,5,16,11,40,12,2,3,10
9105,14,-4,-13,-24,-7,-4,-1,1
9110,17,1,0,-17,-2,0,-2,-4
9115,36,2,10,28,4,3,1,-9
9120,-107,-11,-7,-20,-4,-3,-3,-15
9125,87,13,6,17,3,1,5,8
9130,-12,-14,-1,10,6,-1,0,0
9135,6,-3,-4,12,-8,-3,-2,-13
9140,13,9,-6,9,6,4,4,5
9145,-15,-28,6,-3,-11,-5,-5,-9
9150,-30,8,9,-46,3,-2,-1,-2
9155,1,1,4,64,0,0,1,5
9160,7,-8,-14,-13,-1,-1,2,-2
9165,-5,8,2,4,5,1,-1,2
9170,22,2,-1,22,-9,-3,-1,2
9175,-18,-9,-4,-25,1,-1,-1,-4
9180,-23,7,-8,-19,4,0,3,14
9185,17,1,4,33,-3,-4,-3,-5
9190,-8,9,-2,11,0,0,-1,1
9195,0,0,-4,-54,0,-3,-5,-12
9200,12,0,3,7,-1,-1,0,24
9205,-10,0,-7,3,4,4,5,-4
9210,0,0,-4,35,3,0,0,-6
9215,-12,-7,-5,-32,-4,-2,0,3
9220,36,9,15,25,1,-2,-4,-6
9225,-26,16,-11,22,-2,-1,-2,-5
9230,22,-3,-2,-10,-5,-4,0,7
9235,-8,-3,-9,10,1,0,1,-2
9240,12,4,-6,19,-3,0,-1,-3
9245,-46,-25,12,-76,-8,0,-3,3
9250,15,1,7,70,2,-4,1,-4
9255,5,0,-2,-40,-2,2,0,-3
9260,25,-8,2,43,2,0,-2,5
9265,16,5,4,-62,-3,1,4,11
9270,-1,-5,-9,-35,-6,-3,-4,-1
9275,-9,-6,1,7,-1,0,1,4
9280,-16,0,-2,4,0,1,-2,-18
9285,26,6,1,27,1,2,2,18
9290,0,-7,-1,-66,-6,-1,-1,-2
9295,9,-3,-9,25,1,-4,-3,3
9300,-45,-10,-3,-18,-4,-1,-5,-21
9305,-2,1,4,32,6,3,2,-4
9310,0,1,-2,-22,-5,1,-1,2
9315,-4,0,-1,-6,5,1,2,2
9320,5,-11,5,9,-8,-7,-2,1
9325,-7,2,-4,-31,-1,-1,0,-6
9330,-7,-6,-3,42,5,3,-3,1
9335,-54,-27,-10,-80,-6,-3,-3,-13
9340,-1,5,5,13,2,5,8,24
9345,21,5,2,35,5,-4,-4,-7
9350,9,-5,3,4,0,-1,0,-7
9355,2,8,8,22,1,-2,-1,2
9360,-11,-6,-16,-48,-7,-3,-4,-9
9365,-4,-2,-2,10,8,3,0,-1
9370,-5,2,-9,-7,-14,-5,-1,4
9375,9,2,9,29,7,1,-1,-2
9380,1,3,-4,-3,3,2,-1,2
9385,6,0,-3,12,-1,-4,3,-3
9390,10,-3,-7,3,1,-1,-4,-13
9395,14,6,1,4,-5,2,1,19
9400,8,-2,5,4,-1,-1,0,2
9405,-7,-4,-2,-18,-1,-3,-5,-13
9410,-19,-3,-4,-26,-2,-1,0,2
9415,-10,11,2,2,-2,-1,0,-6
9420,-30,-2,1,44,8,3,2,-5
9425,28,13,3,-64,-8,-4,-4,-2
9430,11,-10,15,41,11,2,0,4
9435,-24,-7,-11,-17,-7,1,-3,-3
9440,10,1,2,10,5,0,0,0
9445,-7,1,-5,13,-4,-1,-1,-8
9450,22,-5,5,7,0,-1,-1,2
9455,9,3,2,8,3,1,-1,3
9460,2,-2,2,-10,-1,0,7,-2
9465,-4,-9,-11,-4,-5,0,-2,4
9470,4,4,4,-4,1,-1,-1,-19
9475,-6,-2,-6,38,6,-2,-3,11
9480,34,-6,-8,-37,-13,-5,-4,16
9485,-3,2,1,-8,2,2,-2,-7
9490,-17,0,2,38,5,-1,2,3
9495,19,3,3,13,-2,0,0,-7
9500,-9,-2,-6,-9,7,-2,-3,-8
9505,-2,-1,2,-19,-13,-2,0,7
9510,1,1,12,49,7,-2,-4,1
9515,3,-4,-1,18,-2,1,3,-1
9520,-8,-2,-6,-10,-1,-2,-1,-7
9525,-2,-2,-5,0,1,0,-2,-1
9530,-8,6,-8,-2,-2,-1,1,3
9535,-10,3,15,11,1,-2,-2,-8
9540,10,3,-5,19,-1,4,3,-3
9545,61,10,-1,20,2,1,4,9
9550,-44,-3,-2,-51,-7,-1,-5,-3
9555,13,0,4,-1,6,-1,6,-18
9560,-16,-1,7,7,-1,-2,-5,36
9565,-9,4,2,11,1,-1,4,-18
9570,34,-1,-3,-23,1,4,0,12
9575,4,0,-7,-13,-18,-7,-4,1
9580,-9,-5,7,3,6,0,1,-10
9585,-9,-4,1,27,3,0,-2,-10
9590,-16,-7,-16,-79,-5,-2,0,4
9595,-5,-1,-5,8,3,0,-5,-5
9600,18,1,3,-31,-3,-2,0,-10
9605,2,-4,3,-6,-4,0,-1,17
9610,-26,1,-5,16,6,1,1,-14
9615,16,-2,0,5,-3,0,2,16
9620,-41,-2,-7,22,-3,-3,-1,-13
9625,6,6,-1,-69,-2,-2,-4,1
9630,8,-2,-1,9,0,-1,0,-4
9635,-4,1,-10,9,0,-2,-1,13
9640,-4,-4,-3,-14,-6,-1,1,-1
9645,9,4,7,22,7,4,2,-8
9650,-16,1,-3,-11,-6,-2,0,11
9655,15,4,5,11,-2,0,0,12
9660,44,1,-2,1,6,1,-5,-23
9665,-24,-6,-3,-3,-2,-1,4,34
9670,8,6,-8,1,0,-1,-5,-5
9675,-17,6,9,10,3,1,-2,-13
9680,-37,6,-4,-20,-6,-2,-2,-5
9685,-3,-6,2,13,2,1,0,1
9690,18,1,6,41,0,2,3,3
9695,-14,-11,-19,-47,-9,-9,-4,0
9700,14,4,7,22,0,1,-2,-13
9705,-3,9,-8,20,-4,-2,-4,3
9710,-40,-32,9,27,7,1,1,17
9715,15,3,5,10,3,2,1,-6
9720,1,-7,-7,-59,0,-2,1,4
9725,-13,-6,-5,36,1,-3,-3,-9
9730,15,5,-1,-59,-12,-4,1,2
9735,-16,-1,-1,-18,0,-2,-3,-9
9740,12,-7,-9,15,6,0,0,5
9745,22,0,2,-3,-1,0,0,0
9750,-26,4,-4,-3,2,1,-7,-15
9755,20,0,-3,-21,-2,2,5,2
9760,-6,6,-1,6,2,-1,-2,-1
9765,-3,-5,0,-26,-1,-1,-2,-4
9770,12,8,4,9,1,-4,-4,-16
9775,16,17,4,14,1,2,0,19
9780,13,-20,4,0,-6,2,2,-2
9785,-20,-3,-3,9,1,-1,-2,-4
9790,9,-2,-2,-28,-2,-1,0,-6
9795,3,4,-5,17,-2,1,1,-1
9800,17,4,7,0,0,-3,-1,-7
9805,-48,-9,0,5,0,-1,-5,-10
9810,13,4,-15,8,-7,-1,3,3
9815,-4,-16,3,8,5,-3,-4,-10
9820,0,6,2,8,-4,2,1,12
9825,-37,-7,0,30,0,-1,1,-5
9830,9,4,2,-18,-2,3,2,4
9835,12,-2,-3,-11,3,-2,-4,4
9840,1,7,5,66,-4,-1,3,6
9845,8,1,-5,-15,1,-4,-2,-24
9850,9,3,1,2,-1,2,0,29
9855,-30,-18,3,16,1,-2,-5,7
9860,7,-13,-3,-52,-7,-1,-3,0
9865,35,3,3,9,-4,0,1,10
9870,-3,1,-3,25,3,-2,1,4
9875,-10,2,1,-15,-4,2,-1,-15
9880,-18,-4,3,18,2,-3,-1,-6
9885,-15,-7,-7,-51,-12,-1,-1,5
9890,22,0,8,12,-1,-3,-3,-7
9895,-7,5,3,2,-3,1,1,-2
9900,-16,-4,-14,-33,-3,-2,-2,2
9905,53,15,11,15,-2,-1,-1,-1
9910,-7,-10,11,-32,-1,-3,-1,-6
9915,14,-7,-29,-7,-7,-3,1,-18
9920,-13,20,6,-3,-2,-2,-4,9
9925,21,11,2,-2,4,3,-1,15
9930,-4,-7,-2,17,1,0,0,-4
9935,-13,-3,5,0,-2,1,1,-13
9940,13,-3,-3,-19,-1,-1,1,17
9945,-5,-2,-10,13,-7,-5,-3,4
9950,-16,-17,-4,1,4,-2,2,-4
9955,-7,0,7,-13,0,-1,-6,-14
9960,-6,3,1,28,3,-1,3,8
9965,0,0,10,2,6,1,1,12
9970,5,-3,-21,-15,-7,-4,-3,-12
9975,3,-2,7,23,2,2,2,-14
9980,11,2,1,16,6,4,1,17
9985,-36,-6,8,-27,-10,-7,-5,-8
9990,5,12,1,14,-2,-2,-2,-5
9995,1,-6,-11,-14,-2,-1,-3,17
10000,13,9,4,-1,5,5,2,-20
10005,12,-9,-13,-4,-4,1,2,-2
10010,12,-5,11,-26,-10,-6,-1,3
10015,-9,-4,4,24,5,0,-2,10
10020,-46,-8,-22,-10,-5,-4,-6,-12
10025,7,-5,-5,9,8,0,-1,-3
10030,-15,12,-2,-17,-2,3,-2,-12
10035,23,0,7,13,0,-1,2,20
10040,3,-6,3,6,-2,-2,1,-10
10045,15,12,-8,7,0,-1,-1,0
10050,8,-12,1,9,4,2,-2,2
10055,-21,-2,-6,-11,2,-1,0,-11
10060,18,-2,-1,-20,-3,-2,-4,29
10065,2,6,9,-12,-1,-1,-1,-18
10070,11,5,-2,16,3,4,0,-3
10075,1,3,1,-7,-2,2,0,6
10080,7,-10,-9,-24,-8,-2,-2,-11
10085,-3,-2,5,51,2,-5,-3,-5
10090,11,20,-2,-7,4,2,-1,1
10095,-3,-9,3,15,-9,-4,-2,-2
10100,-5,2,0,-38,-8,-3,2,-12
10105,-25,18,-2,-1,6,4,2,2
10110,45,-20,-7,-5,2,1,-2,-10
10115,-70,6,8,-13,1,-4,-3,22
10120,43,1,-4,-14,-4,-2,0,-6
10125,-11,-6,-3,41,1,-2,-4,-4
10130,1,5,-4,14,-9,-2,0,2
10135,1,-7,-4,-68,2,-2,-2,-9
10140,-12,-10,13,28,-5,-1,-4,0
10145,-17,-15,-9,-2,4,5,4,-6
10150,-12,13,-1,2,1,0,1,0
10155,14,-2,-6,6,-2,1,2,8
10160,-21,4,9,-8,-2,-4,-4,-6
10165,47,-1,1,12,-4,-3,-4,-26
10170,-16,-3,-4,0,1,2,4,60
10175,25,1,6,37,-5,-2,1,3
10180,12,3,-6,-18,6,4,2,-1
10185,-7,-5,-1,-74,-10,-6,-2,4
10190,-11,8,4,34,-4,-7,-4,-12
10195,-4,4,6,-21,7,3,-2,-7
10200,34,-1,-16,-4,-7,2,1,8
10205,26,1,29,87,14,-5,-5,-3
10210,-7,0,-9,24,-7,2,0,3
10215,23,-7,-11,-59,-7,-1,2,0
10220,-39,-1,-1,16,9,3,-1,-19
10225,13,-6,-14,-16,-9,-2,-1,9
10230,17,-1,14,5,6,2,3,-4
10235,14,-4,-17,-1,-8,-5,-3,-8
10240,-37,-5,17,27,3,-3,-1,3
10245,48,4,-11,10,8,3,2,-7
10250,-8,-10,6,-33,-21,-7,-6,-12
10255,9,0,-7,8,0,1,4,8
10260,7,11,12,38,5,0,-1,5
10265,-59,-25,-4,-85,-9,-1,-2,9
10270,-5,18,7,15,12,2,-1,-12
10275,6,14,1,22,-4,0,-1,-7
10280,-24,-12,-3,26,1,-2,-1,-2
10285,-12,5,-4,-46,0,7,4,-4
10290,-20,1,12,-2,-2,-5,-2,2
10295,-4,-5,-12,29,4,0,-4,-7
10300,-30,1,-5,13,2,-4,-3,-6
10305,-37,-15,2,12,4,4,3,-4
10310,14,13,-20,-107,-6,0,3,15
10315,1,-6,23,82,8,-2,-4,-4
10320,41,11,3,-10,-4,-2,-3,0
10325,-6,6,-2,6,0,0,-1,-9
10330,-5,-9,-9,-5,-4,0,3,23
10335,32,-17,-4,-16,-1,-2,-4,-4
10340,-55,-6,-6,11,4,1,6,-5
10345,28,7,4,5,-10,-5,-2,19
10350,-6,-8,-4,7,6,0,-3,-22
10355,-8,-6,0,-30,-1,2,0,4
10360,-2,17,12,12,0,-3,-2,-34
10365,15,2,-15,59,-1,-3,-4,31
10370,-32,-6,1,-31,10,3,0,-11
10375,6,11,5,9,0,0,1,3
10380,19,-15,-6,-76,-22,-8,-6,-4
10385,-33,5,7,28,6,4,3,-9
10390,6,-3,-4,34,0,-1,0,4
10395,-55,-13,-4,-44,2,2,3,-1
10400,20,-2,-3,17,3,-3,-7,3
10405,-58,-8,-13,-18,-10,-3,8,8
10410,16,2,16,39,3,0,-1,-8
10415,30,1,-6,-36,-1,1,1,4
10420,13,1,-9,15,3,4,0,13
10425,-16,-5,6,-69,1,-2,-7,-25
10430,38,1,3,20,-4,-3,-4,-18
10435,-14,9,1,13,4,-1,2,14
10440,-2,-4,-9,-11,-2,-1,-2,-4
10445,27,3,6,20,-1,1,-3,-13
10450,-19,-10,-14,-53,1,-1,2,28
10455,37,15,17,83,0,-4,-4,-14
10460,-44,-23,8,-57,-1,1,2,11
10465,-15,-18,-38,-43,-10,-7,-7,-12
10470,10,3,11,-2,11,6,1,-1
10475,19,2,-9,-34,-15,-2,1,0
10480,38,-8,4,35,8,0,-6,-8
10485,-5,11,7,28,-5,-4,-1,8
10490,-16,-4,-6,-43,-7,1,0,-3
10495,4,1,9,16,6,-1,-3,-3
10500,-12,-1,-10,1,7,0,1,-11
10505,14,-14,6,-9,-10,-1,1,25
10510,15,3,-12,24,-4,-7,-3,-20
10515,-22,10,5,-3,5,4,1,-2
10520,0,4,3,8,-1,-1,0,8
10525,1,0,7,18,8,-1,-4,-35
10530,10,4,-9,12,-9,-4,-3,54
10535,-58,-28,-5,-19,2,1,0,-14
10540,33,-5,-13,-27,-10,-2,3,0
10545,-12,17,15,58,5,-2,-4,-6
10550,17,9,7,-28,-4,2,3,-21
10555,1,-8,-14,-39,-5,-6,-3,-5
10560,10,8,3,19,2,1,2,16
10565,-25,-3,9,16,7,5,3,-5
10570,19,-6,10,55,-3,-2,0,-9
10575,5,-10,-15,-14,-9,-4,-4,13
10580,-17,-1,1,-38,-3,2,1,-13
10585,14,9,19,39,0,-2,2,13
10590,-25,-18,-27,-16,2,-1,-3,-4
10595,23,10,0,-11,-2,-1,-2,-7
10600,-15,-19,7,39,1,0,-1,-15
10605,17,10,-3,-46,-5,3,0,34
10610,24,-4,8,19,5,2,-1,-2
10615,-88,-20,-17,-2,-6,-8,-7,-32
10620,43,14,3,0,3,-1,3,63
10625,-1,-2,-5,-9,3,2,0,-6
10630,-18,-13,-3,6,0,-1,-5,-34
10635,18,14,4,-22,2,2,-1,32
10640,-16,1,9,52,8,1,-4,-14
10645,42,-26,-18,-58,-23,-7,-1,3
10650,4,18,13,48,15,4,2,1
10655,20,-18,-8,7,-9,0,2,-5
10660,-23,6,-3,-39,0,-2,-2,0
10665,-9,14,5,20,10,2,-1,-12
10670,-2,2,0,16,-4,-4,-4,21
10675,46,8,12,-6,-3,1,6,0
10680,18,4,17,47,6,1,0,-7
10685,-28,3,-16,-10,2,1,-2,-5
10690,-35,-19,-10,-35,3,-2,-5,-21
10695,-9,5,-3,26,-2,0,2,6
10700,32,7,-5,-57,-7,-4,-7,24
10705,-12,3,19,39,1,1,3,-13
10710,-3,0,-6,-9,-5,-1,-2,-15
10715,15,-5,3,10,0,1,-1,17
10720,-27,-7,-8,-15,-1,0,1,-12
10725,37,10,-16,-25,-6,-2,-2,2
10730,-57,-24,-7,-3,-6,-5,-4,-10
10735,-15,7,-1,-24,9,2,-4,-16
10740,16,14,20,39,-6,1,5,-1
10745,35,-1,-23,-2,0,-3,-6,12
10750,24,3,18,10,3,-4,-1,-11
10755,1,-5,-15,-35,0,0,2,8
10760,-36,1,-16,7,-5,-2,-5,-5
10765,5,-4,7,8,9,3,3,-1
10770,-15,-4,7,-3,-10,-3,-4,1
10775,-25,5,13,70,3,0,-4,-2
10780,-2,-7,-14,-50,-3,-1,4,-8
10785,-16,-1,14,23,5,0,-2,-25
10790,1,31,-9,-28,-13,-3,2,43
10795,-44,-18,4,26,10,3,1,-23
10800,12,9,-4,3,0,0,0,-3
10805,-22,-9,-2,-4,0,-1,-3,-8
10810,6,3,-2,-26,-2,0,1,2
10815,43,6,-4,-30,-2,-2,1,2
10820,-83,2,7,44,5,0,-2,-5
10825,36,-5,2,-1,0,-1,3,14
10830,0,6,-10,-3,4,1,3,17
10835,0,4,5,49,1,-2,0,-2
10840,3,-16,-11,-87,-8,-7,-4,-19
10845,-7,4,18,71,4,-2,-7,19
10850,40,-3,-17,9,-1,-1,3,17
10855,-44,-5,-1,-29,2,0,-3,-6
10860,33,-3,1,22,-2,1,0,-1
10865,-13,-3,-7,-7,-11,-4,-1,-8
10870,-11,2,6,7,6,2,-2,-20
10875,44,15,4,-19,-3,-1,-1,11
10880,11,-9,-13,-3,-5,-2,3,-3
10885,-14,1,-1,-27,5,1,1,10
10890,48,-3,4,26,6,2,1,-10
10895,-12,-8,-7,36,3,-1,-6,-38
10900,51,9,11,-33,-13,-2,-2,37
10905,-8,-4,-6,4,6,2,0,-22
10910,-26,8,0,-42,-10,1,2,0
10915,9,0,3,23,8,-3,-2,-7
10920,32,10,11,16,7,1,-3,-21
10925,-46,-28,-19,-20,-4,-3,2,27
10930,-3,2,0,-15,-1,-2,-3,-8
10935,13,-12,5,-45,-5,-2,5,8
10940,12,5,12,-11,-5,-4,-4,-2
10945,-42,11,7,48,8,1,0,-7
10950,-15,-4,4,-53,-7,-2,-5,22
10955,-25,-5,-15,13,-6,0,2,8
10960,21,-9,3,-18,0,0,-3,-27
10965,20,18,3,-8,4,3,3,30
10970,-34,-31,-9,10,-9,-6,0,-12
10975,3,7,9,0,-8,-4,-1,-11
10980,2,4,-1,40,5,0,-2,30
10985,11,10,5,-88,-11,-5,-8,-28
10990,0,-15,-8,39,6,0,3,19
10995,27,16,9,-5,-4,2,2,24
11000,-30,-4,-11,36,5,2,4,-1
11005,-14,-18,-5,-5,-3,-5,-3,-6
11010,4,8,9,14,4,2,1,-2
11015,17,-10,-3,-12,-3,-2,-3,-10
11020,-20,-1,-5,-10,4,1,-1,-6
11025,6,1,6,-18,-1,-1,1,15
11030,-30,12,5,19,-3,-1,-3,-17
11035,-2,1,-11,-60,-5,3,1,8
11040,-20,-12,-8,44,-1,-7,-1,-11
11045,19,1,-7,-2,-4,-2,0,0
11050,0,5,0,9,6,1,-5,-22
11055,-8,-9,-20,-42,-9,-4,1,28
11060,25,-14,6,29,11,3,4,5
11065,8,9,-5,-75,-8,2,2,-15
11070,10,-16,5,63,-5,-5,-6,-5
11075,-6,8,2,9,3,4,3,-7
11080,-15,-7,-7,-10,-1,0,-5,-9
11085,17,-1,-8,15,-2,1,-1,-3
11090,17,8,2,-42,1,-5,2,-37
11095,20,-3,8,35,9,2,5,60
11100,5,14,0,-2,-6,1,-3,-8
11105,15,12,-5,1,5,4,-1,3
11110,-6,-1,0,12,-1,0,-3,-18
11115,-30,0,5,13,-9,-7,-4,-8
11120,3,-2,6,19,-2,1,3,10
11125,-52,20,12,-15,6,0,-2,-6
11130,33,-13,-34,55,-8,-7,-6,9
11135,-16,14,4,-7,5,2,-1,-6
11140,-27,-5,-5,-43,-3,1,2,-4
11145,10,-7,15,40,5,2,-1,-10
11150,54,31,9,15,-3,0,4,10
11155,-62,-53,0,37,-5,-11,-11,-11
11160,20,12,-11,-95,-10,-5,-1,3
11165,5,-10,-7,28,2,-2,3,2
11170,-4,8,10,-6,13,6,5,12
11175,14,7,-5,33,-11,-5,-7,-26
11180,-11,-11,-3,-27,-1,0,-1,18
11185,6,-3,2,11,-2,-4,3,16
11190,-38,3,4,-28,-2,-2,-5,-2
11195,-30,-11,-21,-19,3,3,-2,-13
11200,-29,5,1,37,2,0,-2,-30
11205,49,13,8,2,-1,3,2,38
11210,-16,-13,0,-33,-8,-7,-5,38
11215,20,-6,6,51,18,4,7,3
11220,-6,10,10,-24,-5,-3,-7,-13
11225,-33,-23,-11,-38,-5,-4,1,-15
11230,-25,-6,-4,8,5,6,4,-7
11235,31,16,-8,-51,2,1,-1,3
11240,-5,-7,1,14,5,0,-2,7
11245,42,-1,5,5,-15,-4,-5,-6
11250,-87,8,16,1,5,-1,2,-16
11255,14,13,-3,9,3,6,8,3
11260,-3,0,-7,13,0,-1,1,0
11265,-2,-4,-8,-1,4,-3,-5,-9
11270,3,-5,-2,-11,5,4,-1,-18
11275,-11,4,-2,-12,-18,-6,1,28
11280,3,-2,8,30,10,-1,-3,-1
11285,-16,-5,6,-9,-4,-2,-3,-12
11290,40,4,-8,-13,0,2,2,6
11295,-15,0,2,3,12,1,-2,-20
11300,-16,-10,-9,-64,-37,-8,-6,-2
11305,11,-12,7,90,13,-1,-2,12
11310,-11,10,9,-10,1,0,-6,-21
11315,28,-3,-14,5,-3,0,1,-7
11320,-12,2,9,10,7,0,1,21
11325,14,2,-10,-6,-4,-2,-2,-17
11330,3,-38,-4,-14,-2,-3,-4,1
11335,-22,1,-1,-56,-15,-2,-1,13
11340,-25,3,-2,68,16,-3,0,-12
11345,-6,-7,-10,-10,-4,3,-2,3
11350,11,-6,1,4,4,-1,6,15
11355,4,5,12,11,0,-2,-7,-7
11360,4,-4,-6,7,2,0,3,-16
11365,-67,-2,-1,-37,-10,-4,-2,-6
11370,48,27,3,13,-1,4,3,2
11375,-39,3,-3,-7,-9,0,-4,-19
11380,-12,0,-2,-62,-2,0,-2,-10
11385,-7,-6,-3,41,7,0,0,-9
11390,-30,-4,1,-28,-6,-4,-9,-27
11395,81,8,-19,-15,-4,0,8,13
11400,-11,2,4,42,8,-2,-6,-8
11405,-11,-2,1,-2,-2,0,2,-6
11410,-8,-12,-17,-38,-3,1,-1,-4
11415,44,3,31,23,4,-3,-4,-18
11420,5,0,-11,-10,-7,2,0,14
11425,0,-23,2,17,0,-5,-4,-3
11430,18,17,-8,-21,7,3,1,11
11435,-21,-25,4,10,-11,-5,-2,-6
11440,3,6,-13,7,2,3,1,18
11445,25,19,-2,-14,0,-2,-1,32
11450,54,-8,3,-10,-19,-5,4,23
11455,-11,5,6,10,10,2,-1,-24
11460,-80,4,3,19,-8,-7,-6,-9
11465,16,3,-7,-73,-5,4,6,2
11470,-41,-18,0,17,5,-5,-7,4
11475,20,10,7,22,4,-2,-3,9
11480,20,-11,0,-11,3,5,0,-17
11485,-10,11,0,-16,-6,-4,-1,6
11490,-28,-22,-9,29,3,0,2,10
11495,-9,-2,-7,-28,1,0,-2,-7
11500,25,-1,5,-35,-1,2,2,14
11505,-32,-11,-26,0,1,-6,-4,-14
11510,93,6,21,37,-4,1,2,-4
11515,-40,-7,5,6,8,-1,0,32
11520,45,16,-9,2,-4,0,7,57
11525,7,3,-7,-2,1,4,5,-4
11530,54,7,-6,-40,4,-4,-8,-26
11535,-48,-17,8,20,-4,0,-1,13
11540,20,-2,-3,0,0,-6,2,-42
11545,-5,-12,5,19,2,3,1,17
11550,-22,13,2,14,7,6,1,3
11555,35,8,-9,-7,3,1,2,0
11560,-15,-18,-4,-2,-6,-4,-6,-15
11565,-12,15,9,45,-10,-1,4,-14
11570,11,-2,5,-12,0,-5,-8,-7
11575,28,15,-11,2,1,1,2,11
11580,24,-8,5,13,8,2,-2,12
11585,18,18,7,-22,-10,-5,-10,-23
11590,2,-6,-7,-34,-12,-3,2,18
11595,4,14,3,25,6,1,-1,-26
11600,-7,3,9,-35,0,2,-2,27
11605,-9,8,-1,29,8,2,3,4
11610,8,-5,3,30,-5,-3,-2,-5
11615,9,-22,-15,-31,1,-5,-5,-14
11620,-27,11,13,35,-8,-1,2,-1
11625,13,-2,17,-48,-4,-1,-4,-7
11630,-15,-7,-27,8,-1,1,8,19
11635,-8,3,8,10,3,-1,-5,-3
11640,21,-12,-8,19,-1,2,0,-4
11645,-31,-5,-7,19,1,-3,-5,-13
11650,28,13,6,-29,-12,-5,10,8
11655,-50,6,-12,-27,-1,2,0,-9
11660,3,1,9,29,-14,-5,-7,16
11665,19,0,5,34,19,6,0,-4
11670,-50,-5,-8,-68,-39,-7,-5,-28
11675,31,2,-3,24,14,3,2,-2
11680,-1,3,-14,7,-4,-3,4,-19
11685,67,11,12,11,10,2,-5,14
11690,-29,-18,2,70,7,2,-2,-8
11695,-33,-6,7,-49,-9,-6,-2,0
11700,-13,-1,-10,1,-2,-2,-8,-15
11705,18,-7,-5,-35,-4,0,3,-21
11710,-30,16,-8,36,19,5,-1,11
11715,52,2,14,96,-26,-6,-2,-12
11720,11,7,4,-97,2,-2,9,1
11725,-29,-8,-16,10,-6,-1,-3,3
11730,-13,-6,-1,2,9,0,-2,-10
11735,-1,-13,-11,-12,9,3,-5,3
11740,-9,15,20,59,0,-1,-9,-10
11745,-90,-38,-9,-39,2,-5,20,1
11750,-8,-10,-10,-17,-1,0,-2,24
11755,20,6,3,-12,8,4,3,5
11760,13,-7,-3,39,16,2,-8,-8
11765,48,-12,-5,-33,-11,-3,-9,-7
11770,22,24,35,75,9,-4,13,42
11775,-73,-11,-38,-20,8,0,-7,-29
11780,24,4,2,-32,-10,-4,5,16
11785,35,-24,-2,11,4,-2,-11,-1
11790,42,10,0,73,11,0,-7,-20
11795,-29,-36,7,-87,-25,-7,14,8
11800,10,-4,0,24,24,8,-2,-1
11805,-12,12,-7,6,-35,-14,-1,-1
11810,3,-12,4,-16,8,3,-12,-19
11815,-6,8,-8,-7,4,6,-2,-2
11820,-8,-1,-28,2,16,3,11,13
11825,-1,-2,8,-33,-25,-5,-2,6
11830,-18,10,0,-11,-2,-2,-9,-9
11835,-1,-7,8,25,-3,-5,-1,-7
11840,-26,5,6,-12,-4,1,1,1
11845,6,3,-9,-6,1,2,-6,0
11850,2,9,-18,-12,-3,-3,5,1
11855,17,11,13,-1,-6,-2,-4,5
11860,2,-3,10,70,-2,-2,-5,-9
11865,-21,14,-9,-87,-21,-3,4,-1
11870,-48,-34,2,66,8,-1,-1,-3
11875,-6,5,1,30,-3,-5,-1,11
11880,7,-3,13,-15,-20,-4,-4,-11
11885,32,13,0,0,20,7,4,12
11890,-71,-17,-13,-53,0,-4,-11,-11
11895,2,37,12,-17,-2,-2,16,-4
11900,-24,1,1,67,-11,-8,-3,21
11905,0,1,-1,5,12,3,-3,4
11910,7,0,2,-15,0,3,1,0
11915,23,-17,-15,8,8,2,-12,-11
11920,34,10,1,-18,-14,-3,9,12
11925,-102,-22,-2,11,6,-1,1,6
11930,55,-13,2,18,0,-3,1,0
11935,-10,1,6,2,1,2,3,17
11940,26,-6,-11,-43,0,3,-6,-17
11945,-36,-1,8,44,5,1,-7,-9
11950,11,6,1,-56,-8,4,15,20
11955,-17,-7,-17,30,-11,-5,-10,-5
11960,3,-9,7,-71,-4,-8,-4,-9
11965,10,9,8,79,5,-5,-7,-5
11970,-9,2,-7,9,5,3,-3,-10
11975,21,-1,24,-18,-6,3,8,8
11980,-22,17,-26,18,3,-5,-8,2
11985,-5,2,-3,-5,7,0,0,-10
11990,37,16,13,27,-14,-4,-10,-6
11995,45,-18,-5,26,8,1,9,9
12000,-19,-9,-1,-73,-4,3,0,-13
12005,40,0,9,-16,0,-2,-7,13
12010,72,12,-7,9,-1,2,7,-2
12015,-63,6,14,28,20,2,-9,13
12020,4,-16,-16,-43,-26,-2,-6,-12
12025,12,5,2,-5,5,4,18,11
12030,-36,-22,7,-17,-1,-1,2,-8
12035,-51,23,-10,32,9,-5,-7,5
12040,40,-10,16,50,8,7,11,2
12045,-37,7,-8,-26,-8,0,-5,20
12050,-4,-8,-5,-40,-11,-9,-8,-18
12055,14,-6,-17,-10,-9,-4,0,-4
12060,-43,4,-12,-5,2,-1,1,2
12065,13,6,7,-25,1,0,0,-14
12070,22,-7,10,31,2,0,0,10
12075,10,-14,-9,-34,-8,-4,-5,-11
12080,13,11,9,17,4,-2,8,18
12085,21,-9,2,26,1,-1,-5,0
12090,-43,1,-18,-5,0,-2,-3,2
12095,27,3,15,-68,-16,-5,-13,-19
12100,-21,-5,7,30,7,-2,0,-4
12105,8,-6,-14,21,16,7,24,10
12110,-17,11,21,-30,-10,-4,-3,6
12115,30,7,-41,-6,-6,-1,-2,-9
12120,-2,-1,28,21,10,-2,-12,-13
12125,-32,7,-3,27,-1,-2,-6,18
12130,2,-10,4,15,14,4,8,-10
12135,-3,8,11,-16,-11,1,8,-1
12140,-30,-24,-27,17,-5,-7,-10,-26
12145,13,16,12,-18,-1,-4,0,8
12150,17,-4,-14,12,7,-2,-7,-19
12155,-59,-32,12,-34,-2,-1,-4,-1
12160,65,20,-10,6,8,4,2,-7
12165,-22,10,22,23,-6,0,-3,-11
12170,-12,-8,-36,-29,-10,-7,-1,6
12175,18,5,-10,9,15,3,0,-4
12180,-3,-11,2,-22,-24,-2,-4,14
12185,-1,-8,5,41,17,3,-1,-21
12190,47,36,10,-40,-10,4,1,0
12195,-8,-14,1,53,6,-5,0,5
12200,-17,0,2,-20,4,0,0,-5
12205,25,3,4,25,3,1,-1,0
12210,-13,-4,-14,-22,-13,-6,-5,-7
12215,7,19,15,33,-1,-1,2,-8
12220,2,-14,-1,3,5,1,-6,-5
12225,-28,-5,-12,-40,-7,-2,6,1
12230,-4,-5,-8,0,5,4,0,20
12235,19,-5,4,-17,-4,-3,-5,-4
12240,7,2,15,22,4,3,-1,-2
12245,-35,-21,-13,22,-1,-4,-6,-14
12250,8,3,-4,-33,-22,-6,-8,-3
12255,-58,6,26,41,11,2,-4,6
12260,-17,-4,-51,-63,-6,-3,15,11
12265,58,5,19,-1,-6,-5,-13,-6
12270,-26,-6,-10,22,6,4,6,1
12275,65,-1,6,-23,1,-3,-1,9
12280,-27,8,11,22,7,4,1,24
12285,16,-5,-14,-23,0,1,-4,-4
12290,-48,7,-4,-12,-24,-8,3,-18
12295,54,18,-1,-8,3,4,4,3
12300,39,3,4,12,1,-2,-4,9
12305,-35,-6,-5,-4,-2,-3,2,2
12310,-16,-8,3,17,15,5,-1,0
12315,-10,-1,-5,-11,-11,-5,-7,2
12320,-9,1,15,17,5,1,3,-7
12325,64,-12,-29,-21,-3,-4,1,5
12330,-12,4,5,-8,4,3,3,-3
12335,-72,-41,-4,31,3,0,2,-5
12340,-1,3,-7,-19,7,-1,-5,-10
12345,30,7,8,10,-3,-2,-6,-7
12350,-1,-4,3,-31,1,0,0,3
12355,29,15,-17,-38,4,3,-1,16
12360,-11,-32,-7,29,-5,-1,15,-13
12365,-33,38,0,9,-8,-6,-7,-8
12370,-14,-4,3,-14,10,1,-3,12
12375,2,0,6,20,-14,-3,3,-1
12380,5,-4,-4,2,2,4,-3,-4
12385,29,7,2,9,-3,-3,-6,-27
12390,35,24,-5,17,-3,-3,-8,7
12395,9,-5,16,-16,9,1,19,46
12400,-15,18,-6,4,-1,-3,-9,-6
12405,-17,-19,-9,41,-7,-5,-3,-6
12410,-1,19,24,2,12,0,-10,-11
12415,8,-6,-4,-3,-8,-2,-6,-17
12420,7,-9,7,-19,-7,-1,-1,-3
12425,12,4,-11,-39,0,3,4,31
12430,-9,-20,20,101,20,0,4,1
12435,-5,8,-9,16,-1,4,1,-17
12440,-6,-4,-11,-33,-1,-5,1,26
12445,-9,-3,9,-28,5,4,-4,-12
12450,3,-5,-6,15,-12,-5,2,8
12455,5,6,-9,-80,-11,-3,-2,0
12460,-3,16,16,31,12,2,-8,-15
12465,25,-22,-18,-24,-4,3,11,8
12470,9,6,13,32,-11,-6,-1,-5
12475,6,-1,-1,10,-2,-2,-4,-12
12480,-1,7,-1,20,4,-1,-2,-3
12485,24,-15,-3,-17,-3,-2,-3,3
12490,-50,-9,5,11,16,4,-4,-1
12495,26,-15,-6,-46,-13,-6,6,-27
12500,-49,21,14,24,10,3,2,11
12505,-22,10,-4,-7,-1,1,1,-1
12510,5,0,4,46,6,-3,-5,-8
12515,8,-6,-3,24,5,0,-11,12
12520,2,-1,-5,-39,-13,-2,3,-1
12525,2,-1,-3,24,0,1,-5,-19
12530,71,1,-3,-110,-11,1,13,6
12535,-76,8,-1,71,12,1,-1,-2
12540,30,-6,-2,49,-11,-3,-3,-8
12545,-25,-3,11,-25,-4,-1,-1,14
12550,-9,-7,-22,-30,-4,-2,-3,-20
12555,25,9,-7,-7,2,-2,-2,3
12560,34,-7,-9,-8,7,-1,-5,15
12565,-43,18,20,10,-21,-6,8,-23
12570,-9,-13,-7,18,16,10,4,-4
12575,29,3,-1,-17,-6,-6,3,34
12580,-35,-5,14,10,4,1,-10,-9
12585,20,-17,-32,-19,-3,-4,0,2
12590,-19,4,4,21,-5,-1,0,-4
12595,11,14,-12,-46,-3,2,2,-2
12600,11,2,-3,-58,-20,-7,3,-8
12605,18,1,15,36,7,-1,-2,-2
12610,-57,1,-1,-11,-8,-1,1,15
12615,35,2,0,24,6,2,-1,-10
12620,-4,-5,4,-1,0,0,0,2
12625,-7,-2,-3,-27,-5,-2,-4,6
12630,-5,-6,-12,6,-1,-4,-15,-4
12635,-10,2,18,38,10,10,13,-1
12640,-17,-8,-19,-39,-24,-8,-5,-18
12645,34,7,16,13,2,3,4,0
12650,-42,-24,-9,-8,-2,-3,2,18
12655,-9,4,6,18,5,-1,3,-10
12660,5,-3,-30,-28,-4,-4,-3,-10
12665,-2,-3,12,3,6,0,-56,-5
12670,5,4,0,17,4,0,46,16
12675,0,-20,-18,-81,-11,-7,-13,-9
12680,-12,-1,21,89,8,1,-6,5
12685,-9,3,-10,-37,-5,-1,6,3
12690,21,3,12,15,0,1,-18,-20
12695,-32,2,-6,-10,-1,3,2,2
12700,-9,-7,-2,2,-3,-1,11,6
12705,-4,11,17,29,1,-5,7,6
12710,11,-7,-25,-35,-4,-2,-16,-2
12715,-16,1,2,25,-3,-1,-6,-14
12720,37,-18,22,-32,11,4,12,-3
12725,46,44,-11,48,-2,-4,2,5
12730,-24,-11,2,64,14,0,-12,4
12735,5,1,7,14,-3,-2,-4,7
12740,12,11,-9,-14,-3,4,-3,-9
12745,-63,-28,9,37,12,1,11,-6
12750,53,11,-7,-24,-13,-1,5,23
12755,12,6,-15,-32,-9,-4,-11,-7
12760,9,1,14,33,5,8,8,-3
12765,-11,-4,-13,-49,-4,1,0,3
12770,-33,-4,-4,-13,-2,-6,-10,-8
12775,10,-18,8,22,0,1,3,3
12780,-2,15,-8,9,3,-5,-5,7
12785,-22,-8,1,-30,-11,-3,0,-8
12790,17,1,16,-2,13,6,3,4
12795,15,-6,-3,9,-4,0,-1,-1
12800,3,-3,-5,0,3,-2,-5,-5
12805,1,-14,-12,-1,2,1,1,14
12810,20,3,-2,-8,-11,-3,9,-6
12815,-20,4,2,3,0,1,-5,-6
12820,-10,2,7,15,-2,-2,-9,-5
12825,-20,9,6,-7,4,-1,8,3
12830,29,-33,-15,-28,-7,-2,3,12
12835,-24,9,1,22,2,-5,-4,0
12840,-7,2,-5,-38,-6,1,1,0
12845,7,-4,-7,35,0,2,-5,-5
12850,-88,-10,1,-24,4,2,0,-19
12855,78,41,21,23,-17,-9,-5,2
12860,-19,-17,-18,-16,4,2,2,6
12865,-8,-7,-8,-19,1,0,4,2
12870,4,13,-3,-30,3,1,-3,-8
12875,-43,-13,10,104,14,1,-1,-2
12880,23,11,-2,-110,-39,-18,-9,-13
12885,6,-6,-6,39,2,2,4,12
12890,10,-1,-1,10,2,1,-1,2
12895,-16,7,-11,-37,-3,2,1,1
12900,-5,7,10,44,10,-1,2,-2
12905,6,-13,1,-20,-3,0,0,-14
12910,-11,4,-3,-5,-11,-7,-12,10
12915,24,2,-5,-32,-2,4,8,-5
12920,-12,-11,2,17,5,2,8,21
12925,55,13,10,-11,4,-2,-3,2
12930,8,2,-15,22,4,1,-1,-3
12935,9,-4,5,-14,-9,-3,-6,-18
12940,-9,-8,3,15,3,2,-3,6
12945,-15,-9,6,-33,3,1,4,4
12950,34,9,-13,-5,-7,-2,-2,-9
12955,-27,-23,-8,36,3,-1,0,7
12960,34,6,7,-27,7,2,-2,-1
12965,-36,-11,8,-15,-6,-4,-5,-8
12970,-3,7,-10,-7,-5,-4,-4,-3
12975,-5,-6,-3,-2,10,2,2,1
12980,11,12,-15,-12,0,6,4,4
12985,-41,-4,12,48,-4,-9,-7,-25
12990,32,-4,-1,-31,-8,-1,2,13
12995,-4,-2,5,15,4,1,-2,25
13000,4,3,1,6,9,0,-4,-6
13005,-41,-6,-19,8,1,2,-3,2
13010,-6,2,11,16,-5,-4,-1,-7
13015,-4,-20,-2,-12,0,0,-4,-17
13020,-23,28,16,7,-7,1,4,16
13025,27,-16,-41,48,10,-1,4,26
13030,-16,1,17,-20,1,1,-2,-13
13035,4,-4,-16,33,-6,-7,-4,3
13040,-14,-7,7,15,1,-1,-4,-21
13045,33,11,3,11,0,2,3,-2
13050,-22,-1,15,-13,8,4,2,10
13055,-55,-5,-22,-15,-2,-2,-8,-17
13060,40,-2,-6,15,-10,-6,3,7
13065,-62,-8,-2,-9,3,3,3,-8
13070,14,-2,4,21,5,1,-3,10
13075,-22,-12,3,-27,-3,-2,-1,0
13080,-4,1,3,28,9,0,-11,-5
13085,-37,-32,-19,-46,-19,-8,5,-27
13090,64,17,2,23,0,-4,-2,-19
13095,-22,10,6,-18,6,4,4,30
13100,-10,-8,-10,-4,0,-5,0,4
13105,-25,3,17,38,21,1,-25,-23
13110,-45,4,-15,-46,-16,-2,19,-19
13115,101,7,6,-4,7,-1,2,10
13120,-83,-15,-21,-29,-8,-2,-8,-16
13125,26,17,9,3,-3,4,2,9
13130,0,2,19,107,19,5,-1,3
13135,30,-10,-6,-105,-31,-9,-7,-4
13140,6,13,-3,76,11,3,6,10
13145,27,3,1,35,-1,-1,1,0
13150,-8,-5,-6,-20,0,-1,-7,12
13155,-52,-27,-8,0,2,-1,-2,-25
13160,53,33,25,-18,-4,1,4,9
13165,39,-11,-7,-37,-14,-2,6,15
13170,-20,4,9,32,10,-2,-12,-11
13175,-1,4,2,11,-1,1,3,5
13180,9,-17,-16,-29,10,0,7,-15
13185,-13,24,6,16,-13,-4,4,-13
13190,-17,-31,-18,-63,-10,-2,-9,-6
13195,49,22,17,25,5,6,9,1
13200,21,-5,14,-9,9,3,-4,9
13205,-21,-16,-4,-47,-9,-10,-9,-16
13210,-49,-12,-21,72,5,-1,-5,-1
13215,57,39,9,-31,-2,4,7,10
13220,-69,-62,5,80,4,5,8,-9
13225,48,17,3,-12,7,3,2,17
13230,-13,7,18,-47,-11,-5,-3,9
13235,17,-23,-9,36,-6,-6,-16,4
13240,-29,33,5,21,-5,-4,-8,-27
13245,33,1,10,16,1,4,15,26
13250,-50,-17,-23,19,-8,-8,-4,-2
13255,12,8,-6,-27,7,3,2,-9
13260,-5,8,2,-24,-9,-5,-14,-5
13265,42,20,-1,0,4,0,-2,7
13270,16,-3,1,-43,-9,4,10,5
13275,52,7,1,62,18,1,7,-20
13280,-11,40,-19,-76,-26,-10,-28,-7
13285,13,-65,6,75,16,3,27,34
13290,12,9,14,-17,-7,-2,-1,-3
13295,-24,-20,-27,18,0,-4,-7,-4
13300,-9,24,10,32,5,6,5,7
13305,-72,-21,-5,-12,1,-3,-23,-13
13310,28,0,-1,30,-16,-7,9,8
13315,-50,-9,19,32,9,-3,-8,-9
13320,12,-16,1,40,15,7,24,9
13325,-22,1,-34,-91,-2,-3,1,-4
13330,-3,2,20,3,-7,2,-4,4
13335,-24,3,19,15,3,2,-26,1
13340,24,-7,-22,-10,-2,-6,32,16
13345,23,-11,-13,4,-2,-3,-2,6
13350,20,13,-3,-6,12,2,-19,-4
13355,20,14,1,-65,-21,-4,5,4
13360,45,-23,18,-15,-6,2,6,-1
13365,-52,19,-19,-7,1,-3,6,-14
13370,61,7,0,-28,-5,-3,-3,5
13375,-20,3,11,23,9,3,0,-2
13380,2,-11,-6,-46,-17,-6,-13,4
13385,-2,18,-20,-19,6,1,-7,-15
13390,-7,1,18,45,0,-2,-2,-8
13395,-35,-6,-13,-15,-2,0,8,-4
13400,-5,-4,4,31,1,-1,-7,1
13405,16,6,10,-34,-1,3,-2,6
13410,-4,-3,-7,4,4,0,5,-8
13415,-7,-6,-10,-31,-5,0,4,5
13420,1,2,21,-1,11,-1,-5,5
13425,6,2,-5,11,-14,-9,-12,-9
13430,4,-5,-8,-9,0,0,-1,-1
13435,-17,0,-4,-13,2,1,5,3
13440,-10,-3,4,42,2,-1,-11,-6
13445,16,-2,17,-27,0,-4,4,-3
13450,15,-4,6,38,2,0,-7,0
13455,-26,-3,-13,1,-3,-1,2,1
13460,-29,-10,-3,-7,8,1,-11,-7
13465,20,-7,6,13,-6,3,4,1
13470,11,1,-1,-2,6,1,3,0
13475,-5,1,1,4,-4,-3,-2,-4
13480,9,-5,-7,-4,-5,-3,-4,1
13485,-4,3,7,-1,0,-1,-5,-6
13490,-2,12,-14,-9,-3,-2,0,3
13495,25,2,7,6,-3,-1,0,-5
13500,1,-1,-5,-18,-4,-2,3,15
13505,-4,4,7,13,-1,-1,-5,-2
13510,-1,0,6,-14,6,2,4,-1
13515,-5,-4,0,24,-2,-2,-2,-1
13520,3,-3,-16,-34,-6,-1,4,-2
13525,6,11,8,13,1,0,-2,1
13530,-9,-11,-13,-6,0,0,0,0
13535,-10,-6,1,-1,-1,-1,-1,-2
13540,-5,-5,-1,5,-3,-1,-1,-6
13545,-6,0,2,-8,0,1,-4,0
13550,-3,-2,-7,-22,-2,-3,0,-4
13555,-6,2,-1,5,0,1,0,3
13560,8,5,1,25,14,2,1,0
13565,0,1,-5,-54,-22,-4,-4,-3
13570,-5,-3,7,10,-10,-5,-2,-1
13575,-5,-5,-10,-15,-1,-4,-1,3
13580,-3,-1,-1,9,-2,1,-1,2
13585,-6,-5,-4,-10,2,0,-1,-19
13590,-6,11,14,46,4,5,13,33
13595,-2,-14,-17,-95,-12,-5,-7,-9
13600,3,4,9,42,4,1,0,7
13605,15,6,-5,19,5,0,-6,-11
13610,-31,-27,-12,-6,10,-1,-12,-27
13615,-30,-18,27,1,-7,-3,10,-12
13620,47,-7,-18,39,1,-2,6,21
13625,23,-3,-7,-11,1,1,0,-4
13630,-6,-4,-9,-20,-1,-1,-4,-13
13635,67,28,9,9,2,0,-5,-28
13640,-76,-9,-47,-94,-26,-9,-8,-14
13645,-70,2,3,55,18,1,3,8
13650,17,-4,-3,22,-6,-3,-3,-2
13655,-2,10,12,34,8,1,0,-4
13660,12,27,15,42,4,0,-4,-5
13665,23,11,1,-23,-9,1,2,23
13670,-23,-8,-22,-66,-14,-4,-1,-7
13675,-5,-4,11,108,10,0,-3,2
13680,110,30,13,-5,1,-1,-4,9
13685,-76,-28,2,-27,4,3,5,-23
13690,70,34,4,-28,-9,-4,2,4
13695,-4,-7,-13,18,6,3,2,10
13700,-26,-17,4,0,-2,-6,-10,-28
13705,35,10,7,-2,-9,-2,-6,-14
13710,-7,0,15,-6,14,4,9,31
13715,1,-13,-12,-40,-3,-1,0,-1
13720,9,1,-7,-14,-14,-3,-6,15
13725,-1,-28,-1,-27,-3,-4,18,10
13730,-22,-9,-12,45,-2,2,-3,-7
13735,28,-4,5,-18,-8,-1,-9,11
13740,-49,-17,-9,31,15,3,2,-38
13745,36,14,0,-39,-8,-4,-16,31
13750,24,-18,3,74,18,-1,3,-12
13755,-71,6,3,-71,-32,-8,-4,-14
13760,33,-8,-16,5,14,6,6,21
13765,-5,-18,-17,-6,-7,-2,-4,-23
13770,2,56,8,-46,-2,3,-1,-33
13775,-10,-30,-6,73,3,-3,4,20
13780,-22,-8,10,5,6,-4,-1,-7
13785,-16,1,-12,1,10,0,-12,8
13790,100,-28,5,13,-12,-8,-3,-37
13795,9,43,8,-37,7,11,15,22
13800,-14,-11,-16,-11,-14,-6,0,-6
13805,57,16,4,-10,10,5,3,36
13810,-116,2,7,-13,-5,-6,-13,2
13815,38,-7,-17,8,11,2,-7,-30
13820,-46,11,15,-27,-5,2,8,3
13825,-20,-24,-10,42,-1,-4,-7,-42
13830,7,-2,-7,-13,2,0,0,16
13835,-29,-10,2,-17,-15,-10,-9,-25
13840,-27,-1,17,-11,2,6,4,13
13845,79,30,0,39,6,4,9,-5
13850,17,26,15,-13,-3,3,0,18
13855,-33,18,-7,37,-5,-11,-4,-6
13860,38,-14,-7,-38,-17,-3,-11,-16
13865,-7,2,15,107,22,-2,-4,-1
13870,-29,-3,7,-10,-18,1,8,4
13875,1,15,-24,-71,3,4,4,24
13880,33,-26,46,113,14,-5,-4,-7
13885,-54,12,6,75,3,-3,-2,4
13890,-18,-26,-37,-30,10,3,0,1
13895,-10,-15,9,14,11,1,-1,-12
13900,-2,21,12,-93,-29,-6,4,27
13905,-33,-51,-35,24,3,-5,-5,-19
13910,31,9,22,61,14,1,-6,6
13915,-9,-6,-6,-1,3,3,0,-16
13920,43,1,-3,3,10,4,-11,-9
13925,36,22,7,-80,-20,-7,8,2
13930,-40,-45,-15,-15,-1,-3,3,-26
13935,41,-15,-10,4,-7,-2,0,2
13940,-31,11,-7,23,9,1,-6,27
13945,40,-17,0,-38,-11,-4,0,-12
13950,-27,-4,-8,28,5,-1,-10,-17
13955,-15,4,15,-18,5,3,8,22
13960,-8,-5,-2,50,-3,-6,-2,-18
13965,-30,-8,-21,-54,1,2,-10,-3
13970,31,7,18,34,0,-2,8,21
13975,-41,-4,8,37,10,1,-7,2
13980,-18,11,-41,-4,-8,-1,3,5
13985,-21,15,18,-30,-7,-3,1,3
13990,-3,-2,-15,-16,5,1,-1,8
13995,26,7,-2,8,-3,-4,-1,5
14000,-18,-10,-19,-88,-4,-4,-2,-17
14005,-5,21,22,15,7,6,5,13
14010,20,23,-6,-29,-11,-4,0,7
14015,-4,-9,12,35,3,1,-4,4
14020,6,-5,-5,-5,8,0,0,-9
14025,-38,2,8,7,-11,2,11,-14
14030,91,23,9,10,4,2,-9,28
14035,-82,1,-2,-40,-14,-1,21,13
14040,64,22,0,8,5,-3,0,12
14045,13,10,9,39,8,1,-6,0
14050,-12,-29,-9,-20,-6,-9,-9,-28
14055,60,23,18,36,2,1,-6,4
14060,-31,11,-1,-15,-10,0,1,-7
14065,19,-26,-9,21,-6,-5,0,7
14070,-17,8,0,-8,5,5,6,2
14075,16,3,-5,15,-5,-5,-8,2
14080,-16,2,23,-27,6,4,7,-2
14085,8,4,0,27,4,-1,-6,4
14090,-29,0,9,13,3,3,3,6
14095,-8,-21,-19,-86,-12,-2,0,-17
14100,-57,-11,-3,16,-1,2,0,3
14105,-66,-14,7,2,10,-1,-5,-2
14110,13,2,-10,-1,-4,-4,5,8
14115,30,4,-4,-16,-15,-3,-7,-21
14120,-29,-28,3,29,1,0,4,-9
14125,-19,14,3,-15,2,1,0,15
14130,-9,-30,-6,-79,-11,-4,0,11
14135,-42,-6,6,25,4,-3,-5,-26
14140,25,-19,-1,1,6,0,-8,-20
14145,32,11,-3,-1,-4,-2,-1,1
14150,-7,-13,2,30,5,0,0,-6
14155,-23,5,-9,9,9,3,1,-2
14160,44,7,-3,-44,-23,-6,-7,-1
14165,-21,-1,6,-4,4,0,2,-5
14170,9,16,-4,30,1,2,-1,-8
14175,4,-2,15,7,-7,-3,-3,12
14180,-8,6,-5,51,5,2,2,0
14185,46,5,-9,-61,-7,2,0,13
14190,22,-21,-6,23,-6,1,-2,-10
14195,-49,25,-10,10,6,-4,-4,6
14200,-14,-12,9,-10,4,2,3,11
14205,5,-7,-17,3,-10,-2,-1,-3
14210,2,0,5,-7,4,2,3,-6
14215,18,-8,-3,-13,5,6,-1,1
14220,58,29,4,5,1,-1,13,70
14225,-53,-1,-5,-19,-15,-6,-7,-20
14230,-23,-2,-1,-67,-1,-2,-4,-1
14235,31,-9,3,36,1,-2,-1,-3
14240,21,22,4,0,1,1,-3,-43
14245,8,5,3,2,1,1,0,53
14250,24,18,-4,-2,-1,3,9,18
14255,39,-17,7,-14,-2,-3,-1,-6
14260,-14,-2,1,49,10,0,-1,-3
14265,15,0,-6,-94,-15,-2,-1,-14
14270,-43,-14,8,72,8,-2,-2,-11
14275,-71,-11,-6,16,12,3,0,-2
14280,-9,-7,-4,-82,-15,-1,2,-9
14285,-48,5,13,56,5,-3,-6,-2
14290,15,3,-13,-12,-1,-2,-7,-7
14295,38,3,3,19,6,6,9,16
14300,-107,-11,-20,-30,-8,-2,-6,-8
14305,14,8,2,18,-1,1,3,-13
14310,-19,2,0,55,6,-1,-2,3
14315,3,1,-10,-88,-6,-5,-5,-9
14320,-13,-9,9,-18,-17,-6,-2,1
14325,9,-2,-7,28,10,2,-1,-9
14330,15,-10,-2,-4,-5,-2,1,-4
14335,-24,0,-5,-5,1,-2,-4,-19
14340,11,3,13,25,9,4,-1,1
14345,2,-34,-31,-20,-5,-3,-3,-27
14350,-12,-22,-3,-75,-10,-2,-1,13
14355,22,25,8,67,8,1,-7,-3
14360,52,-16,-21,-93,-18,-5,0,-52
14365,-46,-26,7,86,15,-5,8,97
14370,-14,7,-4,0,1,4,3,-23
14375,27,4,-14,32,-9,-4,-4,17
14380,8,-5,-4,43,6,1,-6,-1
14385,24,8,37,0,2,-2,-5,-17
14390,3,9,9,6,-1,2,3,15
14395,-19,-40,-45,-49,-26,-8,-7,6
14400,21,16,23,31,12,2,1,6
14405,-2,4,7,5,-3,-2,-1,-23
14410,-15,9,4,23,3,-2,-2,1
14415,14,7,3,-19,-2,3,-2,-28
14420,-32,-12,-24,-38,-6,-2,4,55
14425,37,17,9,34,11,3,5,-4
14430,4,16,-2,27,7,-2,-7,-10
14435,37,17,12,0,-2,3,14,20
14440,29,4,21,26,11,1,-8,-7
14445,-76,-8,-43,18,-1,2,12,7
14450,-2,-8,5,-81,-10,-1,-1,-2
14455,35,7,2,-6,1,-1,-2,8
14460,-50,3,18,31,11,3,-2,-18
14465,0,-14,-15,22,-4,-3,-10,-3
14470,49,14,1,-3,-3,3,4,13
14475,-41,10,0,0,5,-2,-2,-7
14480,-6,-12,-17,-11,0,-3,4,8
14485,29,3,16,22,-8,-1,-4,-15
14490,-64,-16,-33,-67,-1,-5,-6,-10
14495,-30,-12,32,19,-4,2,-1,-1
14500,24,-8,-28,-8,6,-4,-3,-4
14505,-27,2,2,-27,-4,0,-4,-25
14510,12,-3,2,37,0,0,-1,5
14515,11,0,-11,2,1,-1,-1,5
14520,25,2,3,1,1,0,-3,-14
14525,-20,-7,-8,-64,-14,-5,-3,-4
14530,-18,-6,8,40,8,-5,-5,11
14535,-15,-7,-3,-10,-3,-1,-2,-3
14540,0,4,11,0,0,0,4,7
14545,26,1,-10,-1,6,1,-4,-3
14550,6,-3,-5,25,-6,0,-5,-6
14555,3,9,-2,-32,2,-3,1,5
14560,-22,-19,-5,7,-12,-1,-1,-5
14565,74,47,8,8,0,-1,2,-12
14570,-41,-23,-4,-34,2,-1,-2,7
14575,23,3,14,16,-4,2,-1,19
14580,-2,-1,-28,5,-4,-1,1,-7
14585,10,-3,3,-42,0,2,3,1
14590,-7,19,12,37,-4,-4,-4,-6
14595,67,-6,-19,-19,6,-1,1,-11
14600,12,-16,1,11,-9,-10,-6,23
14605,-9,-11,-1,1,-2,3,-1,-9
14610,8,9,9,4,10,6,1,1
14615,-28,-11,1,26,0,-1,0,-2
14620,9,15,4,-1,1,0,-1,-3
14625,14,-8,-3,-3,3,-1,-4,-20
14630,-71,-4,8,-9,-2,5,9,52
14635,-37,8,1,-22,-3,-6,-4,-6
14640,16,6,6,8,5,-1,0,-1
14645,2,-4,5,10,0,3,0,11
14650,21,6,-1,-9,-2,-3,-2,-34
14655,8,-1,-1,11,-1,1,0,51
14660,-31,5,3,15,9,1,-1,-3
14665,-62,-18,-7,-27,-14,1,-8,-27
14670,106,34,10,-30,-2,-6,19,74
14675,-7,-38,-28,56,-5,-7,-9,-22
14680,-23,7,19,12,-2,3,2,-15
14685,-4,-8,-10,-1,3,-4,-6,4
14690,15,-10,-10,-27,-8,-2,-4,-30
14695,8,8,8,33,3,-1,-2,-14
14700,9,2,-4,-23,0,2,1,33
14705,23,6,8,15,-3,0,1,2
14710,-11,-3,-18,-24,-4,-1,-7,-9
14715,48,16,27,49,28,9,10,-10
14720,-15,-47,-10,-24,-38,-8,1,-18
14725,9,8,3,-19,-2,-11,-11,14
14730,-37,-18,-4,23,6,1,-1,-22
14735,-8,5,-3,-27,7,6,3,-2
14740,8,15,10,36,15,5,1,11
14745,27,0,5,3,-3,-2,4,8
14750,-7,-4,-3,6,-6,-5,-5,-15
14755,-52,-36,1,-25,-8,-5,-11,-7
14760,15,5,-7,2,12,5,17,2
14765,-19,-7,-3,-1,-10,-1,4,-1
14770,14,-1,-12,-26,-6,-5,-9,-26
14775,38,3,13,61,6,-2,-3,26
14780,46,3,-17,27,-2,-8,-9,-31
14785,-23,-27,-3,-43,-2,1,1,27
14790,18,24,12,-31,-3,5,3,-13
14795,-22,-9,15,39,1,1,0,-9
14800,-13,-11,-6,-22,3,-1,-1,-5
14805,32,14,-5,51,4,-2,-1,9
14810,-18,-29,0,26,0,-5,-9,-47
14815,10,15,-17,-95,-11,-5,4,0
14820,-56,-5,15,35,18,4,-3,-18
14825,-13,12,-6,9,-7,3,3,17
14830,-35,-9,8,19,-2,-1,-4,-2
14835,15,-8,-13,1,3,-1,-2,-6
14840,-41,14,3,-7,-12,-4,3,10
14845,37,-8,7,11,11,3,-1,-26
14850,-13,-9,-11,-16,-6,-7,-6,21
14855,-4,8,11,20,-6,5,6,3
14860,50,14,4,-6,-1,0,-3,10
14865,-29,-4,-10,-34,6,-3,-2,-11
14870,0,1,-11,13,-1,0,0,0
14875,2,5,-2,-79,-15,-4,-5,0
14880,-14,1,-5,-3,3,0,-6,-5
14885,17,-6,14,33,9,3,6,-2
14890,-1,4,-7,-88,-13,-4,1,-2
14895,-73,-10,2,78,8,-5,-6,12
14900,63,15,-14,-38,-4,2,-1,-6
14905,3,-6,15,-3,12,0,0,9
14910,28,1,-4,30,-4,-1,-2,-4
14915,-31,8,-3,-53,-12,-2,1,-6
14920,-60,-48,-4,12,3,-3,-4,-8
14925,-26,6,-10,-23,0,3,6,18
14930,-11,-4,10,75,11,2,0,-6
14935,41,7,-4,-15,0,-2,-2,-6
14940,-31,-11,-5,-14,-2,-2,-2,6
14945,12,31,1,-7,-12,-5,-9,-40
14950,17,-19,-2,-58,0,0,6,33
14955,-35,-14,-11,32,2,-3,-1,-22
14960,55,25,2,-4,-4,-1,-1,-3
14965,-62,-10,-14,-28,2,-1,0,-4
14970,17,19,31,97,9,-1,-3,-3
14975,-3,-2,-19,-33,-10,0,2,-5
14980,-12,3,-7,-22,8,1,-4,0
14985,31,-3,-13,-38,-24,-5,1,7
14990,-2,3,6,-5,13,2,7,25
14995,-28,-7,-9,-48,-3,-5,-6,-3
15000,-14,8,4,38,1,-2,-3,-5
15005,11,-1,-14,6,6,5,-1,8
15010,-8,2,10,33,0,2,-3,-36
15015,30,-4,-14,-59,-8,-5,2,14
15020,-66,10,-1,-38,-2,-3,-6,-23
15025,22,6,-9,16,-2,-2,1,34
15030,8,-3,-15,-31,-4,-1,-3,-16
15035,8,1,3,32,5,4,1,-1
15040,33,11,7,14,-3,-4,-7,-3
15045,16,-3,15,27,-2,-5,-6,-14
15050,-57,4,-10,34,-7,-2,5,2
15055,-6,-11,-3,-11,-5,-1,-1,12
15060,-38,-7,-5,-18,1,3,4,2
15065,2,0,21,46,4,-3,-3,-9
15070,14,-5,-17,-32,-7,-3,-4,-4
15075,3,13,13,-4,5,4,3,30
15080,19,-6,0,-35,-5,0,3,10
15085,6,-16,-4,-19,4,4,-1,-10
15090,-44,-26,-17,19,-3,-13,-10,-10
15095,34,-1,1,43,6,-1,-2,12
15100,34,12,5,-14,-7,-1,3,-10
15105,-22,17,5,-22,5,3,0,-5
15110,13,-7,-9,-11,6,6,5,-4
15115,2,5,7,6,-3,-1,0,-18
15120,-3,0,5,10,0,-1,0,18
15125,11,-4,0,15,-4,1,-1,2
15130,20,11,1,-21,-6,-2,-4,10
15135,-27,-1,-23,-7,3,0,-1,-39
15140,113,19,27,42,-3,-3,-4,4
15145,-100,-34,-14,-30,-16,-8,0,-10
15150,70,9,10,-21,7,2,-3,53
15155,0,12,-1,22,10,3,8,-5
15160,-9,-23,-12,-28,-5,3,-1,-22
15165,20,5,-2,2,-1,-1,-3,20
15170,-27,5,1,6,0,-1,-2,-11
15175,16,2,9,-22,-12,-5,-5,-8
15180,-22,0,-8,48,12,-2,-2,-19
15185,28,14,13,-63,-6,1,4,22
15190,53,8,2,-51,-6,-5,-1,-18
15195,-19,-4,-7,86,4,-4,-9,-4
15200,-14,-3,19,10,5,3,1,0
15205,-6,-7,-20,-5,6,-1,-4,-15
15210,34,3,3,0,-9,1,1,-14
15215,8,8,8,-16,3,0,1,10
15220,-10,-7,-9,-12,-10,-2,0,14
15225,5,2,-6,7,0,-1,-1,-14
15230,-56,-31,9,34,10,2,-1,-1
15235,11,-9,3,-33,-12,-1,-2,17
15240,-11,9,-10,22,1,0,-1,10
15245,17,-2,-15,-53,-9,0,6,-7
15250,-58,13,19,17,24,7,-1,-12
15255,40,3,2,31,-10,-4,4,11
15260,19,12,-6,23,-10,-9,-8,3
15265,17,11,8,8,3,1,2,21
15270,-12,5,-1,-5,-2,-1,-2,-3
15275,-13,6,6,1,11,6,3,-32
15280,-3,7,-1,-41,-10,2,5,57
15285,2,-2,4,59,9,-2,-5,-20
15290,14,-7,6,38,0,-2,-1,-10
15295,13,16,13,-16,-4,0,3,35
15300,-40,-20,-24,-40,-4,-3,-5,-21
15305,3,-11,4,14,15,0,0,1
15310,-14,22,7,5,-29,-4,1,10
15315,4,4,-21,-52,-2,-2,-3,-7
15320,46,-8,2,16,5,6,6,-3
15325,-13,-2,10,8,4,0,2,2
15330,-65,-12,-22,-16,-11,-4,0,-21
15335,-14,29,30,52,9,-4,-3,49
15340,7,-2,-3,33,7,2,1,-6
15345,5,5,-6,-13,-7,-4,-8,-7
15350,30,-3,-3,15,4,4,3,3
15355,-9,-8,-7,-34,-3,-3,0,-12
15360,-58,-6,1,-37,0,-3,-1,-30
15365,87,8,-3,13,-5,-2,-2,8
15370,17,-15,-10,-23,-5,-3,-5,-2
15375,-2,1,5,33,1,4,-3,-30
15380,-1,2,1,-3,1,1,3,18
15385,-1,-2,8,13,1,0,4,-11
15390,43,9,-17,-21,0,0,-3,12
15395,-13,-9,1,-23,-20,-1,-3,-23
15400,-5,-2,8,67,13,-3,-2,11
15405,-13,-16,-8,29,-7,-4,-7,-23
15410,4,32,15,-61,4,1,1,42
15415,41,26,-4,52,7,5,6,11
15420,-11,-15,-7,-9,-11,-5,1,-6
15425,-2,-4,-3,36,-1,-3,-5,-18
15430,-22,-12,-28,-31,8,0,6,37
15435,32,-2,35,70,-9,-5,-5,-10
15440,32,-2,-14,-21,-5,1,-2,-12
15445,-37,-11,-15,-64,-13,-7,1,26
15450,7,-8,2,31,6,3,0,-24
15455,-30,-19,-15,-57,-1,-1,-1,2
15460,1,0,11,41,1,-2,1,5
15465,-11,-2,1,-19,-2,2,-2,3
15470,27,4,4,12,0,1,-3,-14
15475,-26,-17,-11,-22,2,0,-3,5
15480,-28,6,-4,-41,-13,-2,2,-13
15485,33,34,15,-1,16,4,1,-3
15490,-22,-2,20,73,8,0,1,-8
15495,8,-23,-19,-36,-11,-7,-6,-30
15500,-22,-4,3,-16,3,2,-1,10
15505,-10,4,-2,3,0,1,1,-3
15510,15,1,6,20,3,3,0,-9
15515,-12,-13,-17,-3,1,-2,-3,8
15520,-18,4,3,-13,4,0,1,-25
15525,35,-21,-26,-94,-17,-6,5,71
15530,-80,9,3,29,-11,-5,-4,-10
15535,27,10,-4,11,12,2,4,-2
15540,33,-6,6,-19,-6,-5,-2,12
15545,-35,-8,-4,33,8,4,-1,-19
15550,41,15,-1,-34,-3,5,8,8
15555,-67,-4,-14,-43,-2,-3,-4,-15
15560,14,10,-8,43,4,-3,-4,14
15565,-26,-7,-14,-55,-9,-6,-6,-19
15570,16,0,12,46,0,-3,-3,-15
15575,-7,-6,17,3,0,3,1,4
15580,-23,-10,-6,7,5,-2,-4,-13
15585,-6,17,13,31,8,4,-2,26
15590,-69,-11,-36,-44,-18,-6,-2,-7
15595,48,7,13,16,2,-3,3,2
15600,2,-18,-3,27,2,0,-4,-20
15605,14,27,9,-9,1,3,-4,-8
15610,14,-1,7,15,2,2,-2,1
15615,-25,-1,-1,-17,-15,-2,0,-2
15620,11,7,10,11,9,3,-1,21
15625,-4,7,-20,-5,-9,1,2,-47
15630,89,-7,0,-87,-5,-2,2,44
15635,-60,-20,-4,50,4,-3,-3,-22
15640,18,-3,-5,-22,-3,-3,-1,15
15645,-14,-13,8,15,-3,1,-1,-9
15650,-17,-13,-6,17,-10,-3,0,-3
15655,95,15,2,-26,-3,-2,-3,16
15660,-34,-9,-6,-49,2,0,-1,-24
15665,7,-22,12,48,-2,-4,0,11
15670,-3,-6,-21,-12,5,0,1,-6
15675,-23,16,8,-24,1,0,-6,-19
15680,60,-7,4,36,1,3,6,-3
15685,6,5,-6,-5,7,4,6,11
15690,-32,-18,10,0,-16,-4,-9,-45
15695,-11,28,-14,1,4,1,3,32
15700,31,11,11,22,-4,-4,-1,19
15705,-37,-5,-1,-12,7,0,-4,-9
15710,12,-1,3,21,6,2,0,1
15715,-10,-6,-2,-28,-8,1,0,-10
15720,-3,1,0,21,3,0,-1,4
15725,2,3,7,13,-1,0,0,9
15730,-34,10,8,-32,7,5,1,-14
15735,50,0,2,11,-11,-9,-4,0
15740,10,20,7,64,1,-3,-3,24
15745,3,-24,-4,15,-2,1,0,-8
15750,7,3,6,14,7,4,2,-5
15755,-17,-10,-3,10,11,4,4,5
15760,-38,3,-2,-40,-10,-1,-2,-7
15765,43,3,4,17,0,-3,3,-6
15770,-10,19,6,13,1,-4,-6,22
15775,-35,-15,-17,14,8,2,3,0
15780,80,-2,-5,-52,-16,-8,-1,-27
15785,20,-14,10,5,-3,-3,-6,22
15790,29,-14,-8,16,3,-1,3,-4
15795,16,26,13,-34,6,-1,-3,13
15800,-16,-14,-13,-10,3,3,-2,-25
15805,-10,7,4,6,2,-2,-2,-11
15810,31,6,5,10,-5,-4,-3,0
15815,-1,0,1,13,-1,-1,-3,-15
15820,0,-25,-4,-7,2,1,2,-26
15825,-27,40,0,11,-2,-3,-3,29
15830,-8,-16,-13,-31,-14,-2,0,26
15835,17,1,-20,3,-17,-7,-3,3
15840,-14,-1,9,17,8,4,0,-13
15845,-18,-9,4,0,-10,-4,-5,-24
15850,10,-2,10,43,15,3,0,-4
15855,-12,-13,-11,-44,-4,2,-2,-14
15860,2,7,1,-44,-9,-2,10,25
15865,11,-7,-5,15,6,-1,-1,-3
15870,-77,3,-8,-5,-4,-1,0,-6
15875,48,3,14,28,4,2,-3,-2
15880,-37,-25,-17,-66,-6,-7,-10,-23
15885,-44,-34,-23,-1,-8,-5,3,59
15890,2,-2,-7,12,-1,-1,4,-7
15895,-5,-2,20,52,13,3,5,27
15900,-25,4,-5,-15,-10,-1,-4,-15
15905,-15,8,5,-14,6,0,-5,-57
15910,117,-12,2,7,-7,-3,-6,15
15915,-102,-76,-36,-103,-10,-9,3,32
15920,-4,23,15,45,3,1,-3,19
15925,7,1,7,27,-3,-3,-2,-6
15930,-16,1,-1,11,10,1,-3,-18
15935,33,15,11,20,2,4,-1,-20
15940,2,0,-9,-22,-3,-1,4,19
15945,-13,-12,-3,2,6,2,-1,-11
15950,-9,0,8,15,8,2,-4,-7
15955,0,19,3,-30,-10,2,2,-7
15960,-9,4,-7,102,-2,-9,-5,24
15965,18,3,16,-49,10,0,1,-5
15970,2,6,-2,4,-2,-3,-5,-1
15975,-12,5,3,-17,-9,1,-2,-34
15980,0,3,6,34,9,3,3,40
15985,20,7,-5,2,5,7,7,-2
15990,-16,-2,2,-12,-10,-5,-4,-8
15995,-14,-4,23,86,8,-2,-3,-15
16000,-56,40,-19,-51,-13,-2,-5,0
16005,3,-7,3,20,-2,2,4,2
16010,-7,1,-10,-32,-3,0,2,-4
16015,1,0,0,37,7,0,-1,-4
16020,11,-9,6,-2,2,3,-1,-8
16025,-8,0,1,3,0,-2,-7,-52
16030,-57,-38,-11,-19,-10,-4,8,89
16035,61,28,15,-12,9,1,0,3
16040,-37,-26,-29,23,-5,-4,-2,-16
16045,6,6,1,-31,0,4,2,11
16050,-3,-8,15,67,5,-2,-4,-24
16055,15,-5,-15,-18,-2,0,-4,11
16060,-1,-9,3,-4,7,2,1,-6
16065,-1,13,2,33,1,1,3,1
16070,11,11,2,-6,-1,-2,-5,-15
16075,-58,-15,5,-21,1,0,-1,15
16080,89,11,-9,-27,11,5,2,14
16085,4,-33,-16,102,-7,-6,2,-16
16090,5,8,8,-119,-21,-6,-4,25
16095,-11,-5,-13,76,14,0,-3,-27
16100,5,-12,11,-37,-7,4,3,-5
16105,-1,2,-2,6,0,-1,-4,15
16110,-4,10,-3,-12,3,2,2,-26
16115,-11,-13,0,8,3,3,0,0
16120,-2,-1,5,42,1,-1,6,29
16125,-85,11,4,-59,-6,-12,-13,-26
16130,62,7,-15,36,-6,0,8,-13
16135,-14,7,2,-11,1,-1,3,18
16140,-3,-7,8,18,3,-4,-4,2
16145,49,-2,4,-23,-1,3,0,-2
16150,-47,-8,12,28,7,3,-2,-29
16155,21,28,-3,-9,-3,1,-4,-34
16160,13,-4,3,-13,-4,1,12,73
16165,51,11,0,-5,0,0,-4,3
16170,-33,18,-19,-27,-8,-2,-2,21
16175,-3,-8,1,39,2,2,3,-24
16180,-26,-10,-7,-63,-10,-10,-11,-13
16185,-16,-4,10,14,6,6,2,5
16190,4,7,1,29,10,2,2,-5
16195,7,2,-4,-15,0,-1,-1,-1
16200,-24,-8,8,35,-4,-7,-8,-24
16205,8,-2,-11,-30,-3,-4,-1,6
16210,38,-20,-20,-14,-6,-2,-5,2
16215,-27,9,23,17,-4,-6,-2,-4
16220,2,-1,-26,-5,1,0,-5,-25
16225,26,-5,-7,-40,-7,0,2,27
16230,-1,-6,8,46,8,1,-2,-39
16235,29,-31,-6,-60,-9,-3,2,37
16240,-34,6,9,10,5,0,-1,16
16245,39,8,2,19,0,1,6,2
16250,-48,1,0,-28,-9,-4,2,10
16255,-7,-4,-5,13,-5,-2,-2,-10
16260,5,14,8,-11,8,4,-2,21
16265,-28,-28,-6,22,-5,-5,-7,-19
16270,11,11,19,-6,5,2,2,11
16275,40,3,12,-53,-4,1,-1,-6
16280,-50,-1,-33,-4,-8,0,-2,-37
16285,-11,5,8,-56,-5,0,2,1
16290,26,20,6,44,11,3,-1,-10
16295,47,4,-10,-66,-25,-7,-2,22
16300,19,-4,28,82,19,7,1,-15
16305,-33,-5,-26,-63,-20,-4,0,7
16310,-22,-4,-6,14,0,-3,-3,-8
16315,43,-1,13,34,18,5,-3,-23
16320,27,-4,-4,-56,-5,0,1,-14
16325,-103,-1,-6,23,2,-2,-1,12
16330,14,-9,-8,-61,-2,1,-3,-7
16335,-22,-7,-12,23,1,-4,-4,-9
16340,30,-4,0,-26,-5,-3,-3,1
16345,31,34,24,63,16,4,0,-14
16350,-24,-32,-13,-9,-7,-5,-3,-15
16355,-13,2,-12,-19,-8,-4,5,90
16360,-85,4,4,-1,11,5,1,-16
16365,51,3,0,40,-4,-3,-6,4
16370,-18,-2,9,28,10,2,-2,-16
16375,25,3,2,76,10,1,2,13
16380,2,-3,-7,-38,-11,-2,-2,-8
16385,-5,-1,5,-26,-11,1,4,16
16390,-13,0,2,-38,3,2,0,-16
16395,3,-6,0,36,7,-3,-4,-24
16400,8,-2,-6,-5,0,-1,-1,15
16405,10,2,18,38,3,-5,-3,-22
16410,18,3,-8,28,-7,-4,-3,15
16415,41,-25,-10,-65,-1,4,-2,-3
16420,-39,10,5,34,4,0,4,-51
16425,31,8,-14,-11,-1,0,10,68
16430,4,-3,9,-16,-2,-1,-3,5
16435,-34,5,8,45,-2,1,-2,-1
16440,16,-4,-1,-6,-6,-1,-6,-8
16445,-22,-13,-6,-5,6,-2,-1,12
16450,53,-5,-2,-7,-5,-4,4,14
16455,-29,1,-4,-41,-1,-2,-4,-39
16460,39,5,4,15,2,0,3,30
16465,-6,-16,11,25,0,-3,-6,-21
16470,-13,8,-13,49,-3,0,-7,-16
16475,0,-3,-14,-94,-2,-1,3,15
16480,-2,-4,3,96,-2,-5,-1,7
16485,8,-11,-11,-76,-15,-9,-8,-24
16490,6,3,0,-17,3,2,0,2
16495,-9,10,5,20,-3,3,10,38
16500,14,-1,3,-30,1,-2,1,-5
16505,-13,1,6,-3,4,3,-1,-16
16510,11,2,-3,-12,-4,-2,-1,-10
16515,-54,24,-7,5,-1,0,-1,6
16520,24,-5,6,-23,-3,-1,1,13
16525,-25,-8,-9,43,6,1,-2,-10
16530,-48,-5,10,-20,-5,0,0,-27
16535,-8,11,-6,26,8,1,-2,-58
16540,-28,-28,-5,-10,-16,-6,-1,56
16545,6,-56,-15,0,3,0,-1,13
16550,2,14,8,26,3,0,1,44
16555,-22,-12,-14,-2,-12,-6,-7,-28
16560,-3,-8,-2,2,-2,-1,-8,-49
16565,25,9,2,79,11,-1,-6,-37
16570,8,-3,11,-60,-20,-2,-1,60
16575,13,9,-8,3,3,-1,-3,-19
16580,12,10,12,43,8,1,-3,-20
16585,15,4,-21,-26,0,2,1,-24
16590,-5,14,-1,28,10,1,2,11
16595,23,11,6,-32,-21,-4,-2,-7
16600,26,-22,3,37,5,1,3,3
16605,-24,26,7,-88,-3,2,5,12
16610,-3,-10,-1,44,-2,-8,-7,-24
16615,-1,-15,-9,5,4,1,-1,-3
16620,14,9,-2,-35,1,-1,-2,-21
16625,9,11,14,13,-5,1,7,79
16630,-15,-4,-6,10,7,0,0,-26
16635,37,-4,12,-7,-8,-3,-4,18
16640,25,30,-5,-4,-3,-2,-1,-7
16645,-10,-11,3,-5,1,-3,-4,-2
16650,31,19,7,20,4,0,-2,-14
16655,-38,-11,6,16,4,4,6,33
16660,-2,2,-29,-107,-12,-2,-3,6
16665,-35,18,8,50,2,-3,-2,-19
16670,-29,-32,-4,61,2,-4,-5,-8
16675,26,0,12,-6,7,0,-1,-11
16680,30,15,3,9,-15,-1,0,12
16685,0,-9,-2,18,8,1,-3,8
16690,46,1,-12,10,5,0,-2,-14
16695,1,11,-2,-17,0,1,3,6
16700,-17,-5,2,10,3,0,-2,-14
16705,1,3,-15,-17,-2,-1,-4,-22
16710,6,4,10,-37,-9,2,1,8
16715,9,-15,2,28,4,-3,-4,-16
16720,-4,-6,-8,3,6,1,-1,17
16725,2,-2,-10,-36,-17,-2,4,-61
16730,10,4,-5,-42,2,-1,1,12
16735,12,2,-1,11,0,-3,-3,37
16740,-18,-15,9,32,-7,-7,-5,-34
16745,-13,1,-6,-45,-5,1,-3,-14
16750,-2,14,9,-27,9,3,4,-1
16755,-35,-11,-18,3,-26,-6,1,0
16760,-4,2,-2,3,7,0,2,8
16765,10,-1,8,-28,-1,3,1,30
16770,-3,-7,-25,-8,-7,-2,1,-1
16775,-11,-7,10,27,2,-3,-5,-6
16780,-25,1,-3,-50,-5,2,-1,-9
16785,23,-4,-12,42,-1,0,2,30
16790,-67,4,15,19,17,4,1,-25
16795,5,0,-14,15,-20,-3,-4,-30
16800,2,0,-2,-4,6,3,8,53
16805,-7,-8,11,-5,-2,-4,-7,-6
16810,50,1,-17,-26,-2,-3,-3,-26
16815,25,18,14,32,19,4,3,44
16820,-38,-12,-17,-27,-14,-9,0,-43
16825,32,1,12,-22,3,2,-1,33
16830,-80,-20,6,26,8,2,-1,-37
16835,66,27,8,5,-4,-5,-4,2
16840,14,-17,8,26,0,-1,-7,-12
16845,5,10,-2,9,5,-2,-2,-10
16850,-9,3,-16,-42,-11,-4,-2,26
16855,-10,-11,3,8,8,1,-1,-31
16860,-28,-5,-20,-1,-1,-2,-1,-19
16865,3,6,0,-28,-3,0,2,12
16870,13,-24,-16,-23,-9,-8,-8,3
16875,2,-1,13,27,2,2,0,24
16880,7,8,10,3,9,3,-1,-38
16885,-65,-14,-20,14,-2,-1,0,-14
16890,14,7,21,57,1,-1,2,18
16895,-1,-3,-10,-70,-3,2,4,-41
16900,-17,-36,-2,37,12,2,-3,2
16905,19,13,-2,5,0,1,0,-5
16910,17,4,4,-36,-4,2,-1,-3
16915,-42,-1,-6,-6,7,-2,-3,-13
16920,-15,6,13,2,-5,-3,-6,3
16925,33,-21,-4,17,-1,-2,-1,29
16930,-42,-21,-9,-32,-10,-3,-3,-45
16935,-4,2,27,71,20,3,0,18
16940,40,17,-26,-34,-6,-1,-2,78
16945,-38,3,6,3,-1,-1,1,-24
16950,15,12,2,14,-1,1,1,-1
16955,-29,-29,-13,-21,-11,-2,-4,-6
16960,38,33,23,33,7,3,6,-3
16965,-56,-4,-2,46,3,-1,-5,-43
16970,2,-10,-4,-50,-5,-1,1,60
16975,-15,6,4,12,5,3,5,24
16980,5,-2,0,24,-5,-5,-4,-18
16985,-3,24,10,-21,-1,2,-2,-20
16990,24,18,6,24,8,1,2,-3
16995,-11,-17,-25,-35,-16,-4,-6,1
17000,88,4,13,18,8,-1,4,69
17005,55,7,-5,-41,-19,-5,-3,-24
17010,11,-16,-6,39,2,-1,-3,-16
17015,34,10,3,2,2,0,0,-14
17020,-46,-1,-1,-19,3,3,0,-48
17025,0,-5,-2,5,8,2,-4,41
17030,-25,-11,-15,-75,-33,-7,-4,-8
17035,3,17,1,3,1,2,2,14
17040,-20,-5,-1,-30,5,0,-3,-25
17045,6,1,2,-9,-2,-4,1,-3
17050,11,25,10,34,4,3,-1,20
17055,-15,-15,-7,-18,1,-6,-4,-7
17060,-27,-4,7,12,-7,2,2,-4
17065,21,3,-12,-35,-5,4,1,4
17070,-7,15,24,83,11,-2,3,9
17075,-25,-17,-23,-22,-13,-4,-6,-5
17080,23,11,5,19,8,2,1,-5
17085,-11,-9,-1,-2,6,1,0,0
17090,16,2,6,-18,-3,0,0,-8
17095,5,3,9,-1,9,-1,1,0
17100,-4,-2,-9,35,2,0,-1,-22
17105,-16,-1,-16,-74,4,6,0,-35
17110,-25,-27,13,-2,-15,-12,-5,78
17115,8,11,0,-18,-3,2,15,26
17120,-3,-5,11,39,6,-1,-1,24
17125,-1,-5,-7,9,1,-1,-1,-10
17130,13,-1,-14,-29,11,5,-1,-18
17135,-9,-7,5,18,3,2,-6,-41
17140,-12,-5,-21,-60,-14,-8,-1,6
17145,73,22,18,34,-1,-2,1,-24
17150,-69,-73,-23,-41,-11,-8,-10,-63
17155,-18,18,9,69,18,5,3,46
17160,-32,-12,-22,-1,-3,-7,-10,-18
17165,28,-1,14,93,-1,1,-1,-1
17170,13,5,-12,-19,-6,-1,0,12
17175,6,-1,3,3,-1,1,-4,-18
17180,16,0,-4,-69,-5,0,3,10
17185,-44,-12,8,33,0,-1,-1,6
17190,22,20,6,25,14,6,3,-7
17195,6,-14,-1,-58,-12,-3,-4,6
17200,58,33,5,-56,-16,-5,1,18
17205,-8,-13,3,48,7,-2,0,6
17210,16,20,14,-7,-1,2,0,4
17215,11,-3,-1,43,8,0,-3,-30
17220,17,-11,-7,-36,1,3,-1,-18
17225,-39,3,-24,-42,-14,-3,-4,0
17230,48,21,9,26,7,3,1,8
17235,5,-20,-7,-4,-11,-7,3,29
17240,-15,2,3,-32,-4,3,1,2
17245,22,19,15,66,6,-5,-6,-15
17250,-9,2,-4,-7,0,-1,-2,12
17255,-9,-8,-9,-35,-3,-5,-5,-52
17260,41,0,10,80,15,4,-1,48
17265,-25,0,3,-37,-5,-1,0,-9
17270,43,-22,0,12,2,-1,1,7
17275,-27,2,-19,-2,-3,3,0,1
17280,8,10,11,-28,2,-4,-1,10
17285,-13,-16,-1,-17,-8,-5,-8,-8
17290,2,11,5,41,4,6,4,-5
17295,-8,-2,-9,-22,-9,-3,-4,3
17300,-3,-8,-3,36,8,-1,-2,-19
17305,-14,1,9,-31,-12,-3,1,19
17310,-37,13,-23,-37,2,2,3,1
17315,27,-12,4,11,1,-1,-1,-27
17320,15,23,10,53,1,-1,-4,57
17325,10,-1,-1,-18,-4,-1,8,0
17330,-24,13,3,8,0,0,-2,-24
17335,-5,6,3,-12,3,2,-4,30
17340,-28,-16,-20,-16,-2,2,5,-23
17345,-34,-10,0,4,0,-3,-3,-16
17350,81,0,19,39,10,0,1,25
17355,-50,-11,2,25,-6,-2,2,-18
17360,-31,-5,-2,-12,-4,-2,-1,-15
17365,6,-4,-8,30,11,0,0,8
17370,-9,-13,-6,-23,-12,-3,-1,-18
17375,11,8,15,-14,8,1,0,9
17380,-66,9,-1,31,-5,-6,-5,-48
17385,25,-10,5,-31,-1,2,4,29
17390,0,7,-10,-14,-5,-4,-1,38
17395,9,7,1,9,12,-1,1,-1
17400,-17,-8,-10,-47,-16,2,-2,-26
17405,11,3,0,20,5,-2,-3,-2
17410,-40,2,12,19,9,-2,-7,-43
17415,50,-5,-12,3,-6,0,5,59
17420,-39,-40,-4,-6,5,1,1,-7
17425,1,4,-6,-18,-5,-1,-2,15
17430,-5,-2,-1,9,3,0,1,-6
17435,-9,2,12,28,3,-1,-3,-33
17440,20,10,7,-39,4,0,-2,-2
17445,-32,-17,-18,0,-18,-4,-4,-5
17450,-2,14,3,43,9,6,9,-25
17455,64,2,3,-24,-3,3,6,16
17460,8,-9,1,34,4,-1,-2,6
17465,-17,2,-6,-73,-11,-5,-5,-9
17470,-9,-14,3,55,3,-1,-4,-28
17475,-13,5,1,-39,-4,0,-1,-7
17480,-12,3,-5,-4,8,0,0,-6
17485,80,37,22,34,-1,1,1,-21
17490,46,-6,-13,-64,-30,-6,3,84
17495,-10,-7,-8,35,10,-2,-1,-4
17500,-4,17,10,-31,-11,-1,-3,-16
17505,-4,10,4,44,11,2,3,-7
17510,8,3,-2,-16,3,3,0,9
17515,-16,0,-8,-29,-7,-2,-6,-20
17520,16,4,6,9,3,-2,1,1
17525,-45,-25,26,28,12,0,-2,2
17530,-42,5,-36,-30,-11,-6,-7,-49
17535,9,-1,0,38,-5,-2,5,70
17540,9,-4,-9,-22,0,-1,-1,3
17545,18,-1,-11,-18,4,1,2,8
17550,-49,-8,12,5,8,1,-4,-12
17555,-11,12,-1,-7,-5,-3,-5,-26
17560,16,-2,0,3,-7,-2,3,11
17565,-6,-1,-1,8,10,2,2,18
17570,12,1,1,-8,-9,-4,-3,-39
17575,-17,8,-2,-18,-7,-2,-3,5
17580,26,-43,1,56,0,1,5,-3
17585,-19,30,-29,-89,2,-2,0,-2
17590,-16,-17,7,79,8,-6,-8,-9
17595,5,1,4,-2,8,3,1,-22
17600,-1,7,-2,3,-8,-1,-3,-17
17605,6,7,-5,6,4,5,4,13
17610,48,-22,-3,-58,-9,-1,-4,-2
17615,-71,35,22,14,9,-2,-6,-70
17620,-19,14,-30,-43,0,-1,0,11
17625,83,-25,-3,54,1,0,2,34
17630,-16,6,6,-7,3,1,2,24
17635,2,-24,-6,6,-3,0,-8,-25
17640,-10,17,12,3,1,-2,-3,-13
17645,-58,-4,3,-12,-2,-1,-2,-20
17650,31,12,6,-3,2,3,5,67
17655,4,6,-8,-31,-5,0,5,-3
17660,21,-2,10,12,-10,-8,-5,16
17665,-20,-21,7,13,2,-1,0,8
17670,12,-6,1,-6,7,-3,0,-32
17675,-35,5,-17,-13,-1,-1,-4,-20
17680,-35,-4,-1,-16,3,4,6,33
17685,20,16,9,74,-11,-2,-6,-50
17690,9,3,-3,-59,1,-2,0,28
17695,20,-19,-15,-31,-7,3,1,-8
17700,-8,-7,1,39,0,-2,-5,-26
17705,-11,8,5,11,-1,-1,-3,-1
17710,-5,10,4,26,3,4,6,-2
17715,11,-3,-5,-15,-3,-2,0,18
17720,-1,-7,-1,-5,-2,-6,-3,5
17725,16,-3,4,-25,-12,-5,-4,-8
17730,15,38,1,17,7,5,0,-13
17735,-5,-41,-14,39,-2,-3,-4,8
17740,8,10,18,26,6,2,1,-17
17745,-15,-8,-7,-12,5,0,-2,5
17750,-14,-2,1,1,-1,0,-2,-30
17755,5,8,5,24,3,0,4,18
17760,9,-3,-9,-11,-1,-2,-1,-8
17765,-7,-11,5,4,3,2,-1,-5
17770,20,-11,0,-34,-11,-3,2,56
17775,-28,3,-11,36,21,-3,-7,-31
17780,-38,-22,-11,-16,-20,-5,-3,13
17785,30,14,5,-5,5,4,0,3
17790,-17,0,0,-1,0,3,1,-4
17795,14,2,12,-21,-5,-2,1,9
17800,0,-2,-2,-5,3,2,-3,-10
17805,-5,-6,-5,13,4,-1,-3,-22
17810,-53,7,4,46,10,0,3,-9
17815,71,-9,-8,-97,-40,-14,-1,100
17820,-28,-20,-22,57,7,-4,-9,-31
17825,-14,-9,-5,-66,-14,-6,-2,-4
17830,13,-7,0,3,3,0,-1,-11
17835,-5,0,-2,5,9,6,1,-24
17840,9,20,21,-26,-6,3,6,17
17845,1,-32,-58,-45,-8,-18,-16,-5
17850,-27,5,5,11,-3,1,1,-11
17855,-19,-7,-1,11,3,2,3,11
17860,29,15,-1,-19,3,0,2,18
17865,-30,-6,9,18,7,1,3,-9
17870,44,-10,-1,9,-7,-3,-5,-14
17875,-18,-53,-17,-30,-5,-4,-9,-37
17880,19,-6,17,55,12,2,2,0
17885,0,6,-3,-59,-2,4,7,-2
17890,-8,-8,-13,-4,-24,-11,-8,19
17895,-7,10,18,41,11,4,0,-24
17900,-3,1,0,-22,0,2,-1,-31
17905,-5,-8,-8,32,-2,-2,1,74
17910,-14,-4,-8,-28,-2,-1,-3,-33
17915,14,20,16,64,13,4,7,6
17920,18,-3,-2,-75,-14,-8,-8,-20
17925,15,14,10,81,9,5,5,27
17930,0,-1,0,-31,-1,-4,-4,-8
17935,5,10,8,18,-5,1,0,0
17940,-15,-5,-13,-15,-4,0,0,23
17945,22,-15,-2,-8,-1,0,1,-41
17950,-7,64,5,29,6,4,7,51
17955,-34,-24,1,-30,-2,-5,-3,-19
17960,-5,3,-6,41,7,-2,0,23
17965,10,-1,7,-14,-4,-2,-5,-18
17970,-26,9,-3,25,0,3,7,3
17975,-46,6,-4,-50,1,4,5,-3
17980,7,8,-1,9,-12,-4,-4,-1
17985,-9,4,7,-14,7,-2,-1,26
17990,-46,-5,4,46,0,-5,-4,-54
17995,-8,-32,4,18,0,-3,0,24
18000,17,-6,-40,-50,-6,1,3,28
18005,-15,7,15,51,-1,5,0,-16
18010,25,-15,14,-27,-4,-3,-5,-1
18015,31,0,-17,-17,2,1,-3,-29
18020,-7,9,28,56,-9,-6,-4,-12
18025,2,-6,-33,20,-4,-3,0,10
18030,9,-10,-6,-24,5,6,0,4
18035,13,21,8,44,0,-3,-3,-12
18040,17,11,-2,-4,3,0,1,16
18045,-1,6,4,-63,-9,-3,-1,-12
18050,31,-9,9,18,7,1,2,25
18055,-23,16,-16,-7,-8,-5,-5,-27
18060,5,-8,-7,-8,4,-2,-4,-25
18065,34,-1,14,22,6,-1,4,36
18070,-10,4,-8,-29,-7,-1,-4,-13
18075,12,19,14,21,5,0,-2,-16
18080,-4,-17,-6,-6,2,0,-3,-9
18085,-73,25,-4,-17,-1,-2,-5,-21
18090,58,1,3,-9,3,2,0,-14
18095,10,18,4,-25,-17,-6,2,39
18100,17,-1,9,20,7,-1,0,-25
18105,15,3,-18,-79,-20,-5,-1,-32
18110,2,-10,8,98,18,3,1,18
18115,-60,-5,7,-44,3,0,-4,-13
18120,-30,-12,4,-2,-2,0,3,19
18125,13,0,-7,31,5,-3,-4,-9
18130,-34,-42,-21,-55,-9,-3,-4,-8
18135,50,1,6,-25,-6,3,6,30
18140,-60,-4,0,10,0,-2,-1,-2
18145,11,6,10,30,12,1,1,6
18150,-3,-9,-4,-22,-7,-2,-2,-9
18155,7,-9,-9,55,7,-4,-7,-10
18160,-1,6,6,-27,-5,-4,-2,-10
18165,-3,1,7,13,-6,-2,-2,-3
18170,-1,-14,-12,-5,4,-3,-2,8
18175,0,18,-3,5,-2,1,0,-6
18180,12,7,-3,-4,-3,1,-1,21
18185,1,-9,9,35,8,0,1,-2
18190,-2,3,-6,-38,-16,-6,-5,-20
18195,33,-3,-19,-24,-3,-2,-8,34
18200,30,-4,12,24,5,4,2,-36
18205,-54,-11,-10,-20,2,2,5,30
18210,-13,0,3,26,7,1,0,2
18215,1,-15,9,-23,-8,-4,-1,-23
18220,31,16,-10,13,8,1,0,30
18225,2,-4,15,7,2,4,-3,-21
18230,-16,-5,-21,-43,-16,-4,-4,-9
18235,-7,-20,12,36,3,-3,-6,-11
18240,-5,3,-4,-19,3,2,8,33
18245,-1,-2,-2,-9,-6,1,0,1
18250,-5,10,5,4,-1,-1,-1,-9
18255,6,0,-4,8,9,-2,-1,29
18260,-17,-7,-4,6,-2,-1,-4,-11
18265,14,8,5,-12,12,6,3,7
18270,38,12,-13,-63,-28,-3,-2,-8
18275,-45,-8,9,61,9,-8,0,29
18280,19,5,10,-35,-5,0,-1,-15
18285,10,3,-2,-5,-3,2,2,13
18290,-27,7,0,39,15,1,0,23
18295,5,7,-12,-11,-3,0,1,-13
18300,-19,-8,-5,-13,-5,-6,-3,-3
18305,-5,-3,5,9,1,0,-4,-24
18310,12,-20,11,37,13,7,3,28
18315,-35,31,-18,-109,-30,-5,4,10
18320,-69,-20,-3,23,12,-1,0,29
18325,11,-12,11,79,-2,-7,-8,-14
18330,19,5,0,-10,-2,-4,-2,-28
18335,-4,-30,-4,11,9,5,4,16
18340,30,8,-5,-21,-5,0,-3,-6
18345,-3,11,-7,-46,-10,-4,-1,0
18350,-17,-3,8,21,9,2,2,2
18355,25,0,-2,20,1,0,-5,-13
18360,3,8,3,1,-1,-1,1,-13
18365,-13,-15,-20,-64,-3,-3,-3,0
18370,4,5,6,-8,-6,-5,-2,-4
18375,4,-9,-2,39,6,4,1,-2
18380,8,-4,-2,-30,-7,-3,-2,24
18385,-35,7,15,85,15,1,0,-12
18390,16,8,-8,-57,-4,1,3,45
18395,21,10,-7,32,-1,-2,-1,-16
18400,5,-23,2,-67,-12,-5,-7,-37
18405,-20,8,-12,5,5,2,1,18
18410,-28,-9,12,80,-12,-5,-3,-57
18415,30,7,5,-34,6,-2,-3,17
18420,-45,-11,-19,22,7,2,-2,-17
18425,13,-2,-4,-63,-14,-2,-1,-9
18430,-15,-3,-3,1,4,0,-4,-30
18435,-12,3,3,16,0,2,6,13
18440,2,12,6,6,-5,-2,-2,-16
18445,25,-1,-1,14,-2,0,2,-28
18450,-5,-1,-3,-41,7,4,5,65
18455,9,4,3,7,-6,-7,-4,-19
18460,-14,7,-5,29,7,4,3,17
18465,44,-4,8,36,-2,1,2,8
18470,-52,2,-3,-50,-6,-4,-4,-18
18475,20,-2,3,-10,5,1,-3,-31
18480,9,4,-10,-28,-10,-3,2,28
18485,-4,-1,11,65,8,1,-2,25
18490,-5,16,1,26,6,0,0,-9
18495,-14,-4,-13,-66,-5,-3,-6,-14
18500,4,-2,18,20,4,2,7,5
18505,-9,-15,-17,-28,-4,-5,-3,-24
18510,8,19,17,35,5,0,0,36
18515,-18,-3,-14,-16,5,4,1,14
18520,30,12,5,61,-2,-4,-8,-22
18525,24,1,-22,-49,-3,0,0,-8
18530,-17,-20,3,22,-7,-1,0,-12
18535,-25,18,11,22,5,1,4,10
18540,13,6,12,16,-1,3,1,-1
18545,25,5,-2,-39,-4,-3,-4,12
18550,-34,-18,-21,-37,-1,-3,-4,-24
18555,53,17,4,42,1,0,3,15
18560,-24,-9,-10,-18,-14,-4,-5,2
18565,39,-26,3,-35,-6,0,0,-5
18570,-1,-3,12,-2,9,-1,2,2
18575,-15,-11,-9,11,1,2,-4,-16
18580,26,-9,3,-6,-1,-1,2,14
18585,-36,5,-3,-24,-10,-3,-1,1
18590,23,-1,-9,-9,-12,-3,-3,-6
18595,-6,-14,11,-29,1,-1,-2,-19
18600,-2,-3,-29,27,3,-2,-3,-9
18605,10,12,19,-6,-6,-5,-1,14
18610,-5,-22,7,65,11,1,-1,-2
18615,-15,1,-15,-70,-3,0,-1,-1
18620,14,9,8,-1,-1,1,2,28
18625,-17,2,-18,-16,-5,2,2,-39
18630,54,5,8,36,-9,-10,-7,37
18635,-15,-2,4,39,3,5,6,-2
18640,0,-11,-1,-17,-3,-2,-4,-37
18645,-6,3,0,-5,1,-2,3,49
18650,31,14,3,-10,-2,1,-1,-21
18655,-1,13,16,25,3,3,0,-13
18660,-13,-33,-13,-50,-2,-1,-3,-18
18665,-30,6,6,37,3,0,0,-5
18670,34,9,-6,-17,-5,1,3,16
18675,-8,-13,-4,20,-3,-5,-5,-35
18680,-7,19,-2,-21,-1,3,2,21
18685,28,0,8,43,-1,-3,-1,11
18690,6,-12,-13,-34,1,1,-2,-26
18695,7,-6,4,-9,-5,-1,-4,28
18700,-18,-4,-1,-26,5,0,-2,-42
18705,18,6,5,14,-8,-4,-2,12
18710,-25,-1,-17,33,9,0,-4,-23
18715,15,-6,5,30,0,-2,6,13
18720,1,5,6,-37,0,1,-1,10
18725,-14,-4,-1,29,9,2,-1,-8
18730,-13,-3,-2,12,-1,-1,-1,-14
18735,18,6,-2,-21,4,1,-2,5
18740,-2,-6,-9,-36,-18,-8,-3,-2
18745,-31,-33,1,35,11,4,-2,-7
18750,7,2,16,1,-1,-1,1,62
18755,-7,-10,-5,-24,-5,-2,2,8
18760,17,13,4,30,4,2,5,-24
18765,0,2,2,-8,-6,-1,-2,36
18770,9,7,-1,-13,2,4,1,-7
18775,-57,-30,-22,9,2,-5,-5,-8
18780,51,13,17,63,-3,-4,-4,-19
18785,21,11,-24,-128,-13,-3,-1,15
18790,-21,-7,2,65,14,1,-1,-23
18795,14,13,4,1,-15,-4,1,24
18800,-9,-12,-7,9,6,0,-4,-16
18805,-28,2,6,11,-1,0,0,-8
18810,23,7,-8,-73,-1,-1,-2,-9
18815,-54,-9,1,80,-14,-11,-9,-34
18820,22,8,1,20,7,3,3,37
18825,0,-2,-4,-44,-6,-5,-8,-20
18830,-13,-8,-1,-58,-20,-1,1,-8
18835,27,3,-14,-25,5,5,1,-9
18840,-27,-4,7,44,3,-2,-1,-1
18845,18,6,-6,-25,5,3,6,-2
18850,-9,21,13,86,-5,-13,-9,-39
18855,40,-6,15,-94,1,4,5,33
18860,5,1,-3,24,-2,-4,0,16
18865,-18,5,-6,-8,0,3,-2,-3
18870,-2,-7,-8,-33,-4,-2,8,-2
18875,-4,4,5,23,4,0,-3,-6
18880,-17,-7,0,-3,9,2,-1,7
18885,19,6,-7,1,-5,-3,-7,-34
18890,-35,-37,12,23,4,0,-1,52
18895,6,40,-10,-12,0,0,2,-45
18900,-1,-9,-24,-22,2,-1,-2,-10
18905,-12,-6,18,71,-19,-7,-5,-9
18910,0,2,-2,-24,4,2,-3,-17
18915,-7,-7,1,30,3,-1,1,2
18920,-2,-4,3,16,-5,0,-1,9
18925,-25,1,1,-48,11,2,2,-2
18930,6,14,-13,79,-1,-1,-1,-23
18935,7,3,16,-79,-15,-10,-6,0
18940,-35,7,21,41,11,5,5,29
18945,11,-2,-18,3,-2,-3,-1,10
18950,24,-2,-6,-32,1,3,-1,2
18955,-11,-1,-6,-20,-5,-1,-2,-6
18960,6,-7,6,3,3,0,-3,-21
18965,22,6,4,3,6,1,2,4
18970,15,16,-19,-5,-8,-1,-3,-7
18975,-20,-23,-8,36,-2,-4,-2,35
18980,28,10,4,-49,-4,2,3,29
18985,7,3,11,41,0,-3,1,2
18990,-16,-4,-3,-33,1,0,-1,-25
18995,10,-3,2,23,1,4,0,33
19000,-8,-2,-4,-11,-1,-5,-5,-25
19005,-43,-5,8,2,1,-1,3,26
19010,28,24,-7,-26,-1,1,3,17
19015,-31,5,3,1,4,1,-4,-31
19020,13,-5,-8,-15,-6,-1,4,32
19025,-64,-15,0,32,-6,-2,-4,-2
19030,29,3,4,-34,-7,-4,-6,-3
19035,28,-13,-12,29,5,-1,-1,-4
19040,-36,18,3,-1,-13,-2,-5,-42
19045,31,-1,-9,-51,7,2,4,8
19050,14,-3,7,47,-4,-6,-6,-8
19055,-20,-9,-14,-54,-3,-2,0,14
19060,-1,-7,-2,-2,-4,2,-1,-15
19065,24,5,8,12,4,0,-2,-4
19070,-32,-6,-10,-31,0,2,-1,1
19075,7,7,12,40,9,6,6,14
19080,20,-15,-20,-5,-17,-6,-5,-28
19085,-1,-4,7,-23,1,-2,1,37
19090,-18,1,9,57,10,4,6,10
19095,5,-6,-15,-67,-9,-7,-6,0
19100,-18,1,5,-3,4,4,1,35
19105,7,6,-7,11,-5,-2,-5,-21
19110,-7,2,1,-2,1,1,-1,1
19115,21,1,12,56,3,1,4,17
19120,-6,-5,-4,-74,-2,0,1,-7
19125,3,-3,2,40,1,-1,-4,-37
19130,-7,-8,-10,-25,-2,1,1,9
19135,-1,18,7,-18,-9,-2,-2,-14
19140,-7,-17,-28,-2,5,-6,-9,-36
19145,22,9,12,10,-5,4,4,35
19150,-3,-32,-11,18,7,-3,2,11
19155,-3,-7,-2,3,4,1,-1,-14
19160,3,3,4,8,-11,0,2,-5
19165,-4,-7,0,-45,15,2,-2,-19
19170,-37,-5,-6,-15,-5,-4,-5,-1
19175,1,2,0,-5,-2,2,1,-7
19180,-26,4,6,72,21,0,-7,9
19185,5,1,-4,-47,-17,-10,2,-6
19190,-12,-7,-1,-3,-7,-1,-4,-11
19195,-3,1,-5,16,9,2,-3,-42
19200,11,1,11,-17,-1,1,4,97
19205,-8,-9,-20,-27,-3,-2,-5,-38
19210,-21,-5,14,68,7,-1,2,18
19215,50,-10,1,-32,-22,-5,0,-27
19220,-59,-22,1,53,6,-2,-7,-41
19225,-40,-2,10,-5,-2,5,1,30
19230,45,-3,-22,20,3,-3,0,5
19235,3,-17,-9,-7,1,2,4,40
19240,17,12,12,-3,1,2,4,-4
19245,-47,-5,-17,-8,-5,-7,-5,28
19250,-45,1,15,-17,-1,-4,-4,-41
19255,-8,15,-8,-3,-18,-3,-5,15
19260,15,3,3,49,10,-1,2,-16
19265,-4,-2,4,-39,-2,0,-2,-32
19270,20,10,-1,-9,7,2,0,46
19275,-11,2,0,26,-1,-4,-2,-5
19280,0,0,1,-30,-11,-3,-5,-16
19285,13,-7,-6,41,2,-2,0,-27
19290,17,11,6,-33,-3,1,0,19
19295,-49,-6,11,37,8,-1,-1,-21
19300,38,15,-12,-2,1,0,6,-22
19305,13,0,-5,30,1,-2,1,38
19310,36,-15,6,-32,-10,-3,-3,6
19315,-2,3,0,13,10,1,1,-16
19320,16,7,3,13,-1,-3,-5,23
19325,16,-7,-1,-46,-7,-5,-6,-25
19330,44,9,-14,-54,-5,-1,1,-6
19335,-25,-7,13,46,17,5,-3,-25
19340,24,16,2,-8,-5,2,2,52
19345,8,0,19,16,3,1,-2,-2
19350,-19,-3,-2,27,-3,-1,-2,-17
19355,36,-15,-57,-85,-14,-5,-4,-9
19360,15,3,19,22,10,4,2,-3
19365,-52,-18,-4,14,-9,-1,-1,-3
19370,-16,0,13,34,10,2,0,-15
19375,5,7,-2,-11,0,0,2,16
19380,-36,-6,-2,-12,2,0,-1,-15
19385,40,4,-13,-20,-10,-3,-1,-15
19390,-10,-6,6,17,-2,-1,-6,-32
19395,5,6,6,16,0,-2,7,77
19400,-27,-8,-8,-33,-3,-1,-5,-4
19405,38,3,13,61,12,4,1,-29
19410,-35,-20,-23,-67,-3,-2,1,-3
19415,-34,-4,-2,23,-1,-2,-3,-5
19420,7,27,8,-10,-4,-8,-9,-19
19425,-9,1,-10,47,7,3,1,20
19430,7,6,1,-81,-12,2,-2,-20
19435,-21,-5,11,21,7,3,6,62
19440,-1,-19,-4,11,6,-1,-1,-11
19445,-3,-9,-11,33,-13,-8,-9,-13
19450,16,7,9,11,12,3,7,7
19455,12,0,3,-7,-4,-3,-6,-41
19460,14,-12,-14,6,5,3,2,3
19465,-23,15,14,-8,2,-1,1,18
19470,6,0,12,26,-3,-1,-3,-3
19475,10,-4,-8,0,5,2,2,-31
19480,-20,-14,-10,-4,-13,-4,1,43
19485,34,4,3,-36,1,4,6,-24
19490,-19,5,9,41,-2,0,-1,40
19495,8,11,14,4,4,0,-4,-27
19500,-29,-6,-9,-17,4,2,1,-54
19505,-4,1,-2,-4,4,3,3,34
19510,-19,1,-2,35,-2,-4,0,-7
19515,5,2,8,-18,6,-1,-1,7
19520,62,8,5,-3,-12,0,1,-3
19525,-71,8,-15,-6,2,-3,-10,-34
19530,31,11,12,27,10,3,11,51
19535,-23,-2,-22,-56,-16,-6,-9,-30
19540,-21,-6,9,7,4,0,1,-2
19545,25,8,5,-1,1,-1,1,2
19550,8,0,-2,-16,-5,-1,-5,-13
19555,-5,-12,-11,-2,3,-1,1,0
19560,-23,3,3,23,9,0,-3,-36
19565,1,-7,-3,-16,-6,-2,0,39
19570,3,-7,-13,-1,-4,-2,-2,-19
19575,-3,-3,4,30,-7,-3,0,-10
19580,10,-2,3,-1,5,-3,-5,-8
19585,-38,-15,-19,-19,0,-1,-2,-43
19590,18,6,-8,-15,-19,-4,-6,6
19595,1,7,10,-7,7,0,-2,-19
19600,19,3,5,4,1,1,1,15
19605,-13,-6,3,24,3,-3,3,3
19610,-22,1,-8,-60,2,0,0,-34
19615,39,16,-16,-10,-7,-3,-6,11
19620,13,-9,-14,5,-7,-1,-2,-23
19625,26,4,7,23,8,2,-1,18
19630,-17,-10,0,8,1,1,-2,-19
19635,34,-3,5,38,-3,-3,0,-6
19640,-14,-2,6,-65,-4,-4,-2,13
19645,6,3,4,48,5,1,-2,-12
19650,1,1,-2,14,7,-2,2,32
19655,6,-7,1,-17,-9,-3,-5,-3
19660,-18,15,-7,3,-6,1,5,22
19665,13,9,-4,-2,-4,2,2,35
19670,-1,-1,0,-18,1,-2,-6,-31
19675,-5,6,14,26,3,2,8,49
19680,10,6,4,47,-1,-8,-4,14
19685,-17,0,-10,-40,-6,-1,-2,-30
19690,-40,-7,-5,21,6,0,-7,-40
19695,20,5,1,-10,0,2,5,48
19700,26,-2,-6,-22,-7,-1,0,16
19705,24,1,-1,19,6,-2,-4,13
19710,15,-7,-5,-41,-2,-2,-3,-43
19715,4,-3,2,18,3,2,1,7
19720,24,3,-2,24,-1,-2,-1,-9
19725,13,-32,10,36,4,3,1,4
19730,-9,-2,-4,-76,-11,-4,-5,-43
19735,-50,-2,4,79,9,-2,1,19
19740,-13,-3,-5,-12,-4,2,4,10
19745,6,8,1,21,5,1,0,-10
19750,-13,6,6,12,-5,0,6,34
19755,23,0,7,-29,-1,0,-1,14
19760,-30,-6,-13,62,9,0,-5,-10
19765,54,17,9,-49,-22,-6,0,5
19770,-63,-19,-11,-20,1,-3,-1,14
19775,40,5,-3,-8,-4,1,-2,-3
19780,-3,-2,-9,0,3,2,5,-1
19785,-22,9,6,-12,1,-1,-3,-6
19790,80,13,-5,37,-11,-2,-1,-11
19795,-13,-12,2,-4,-9,-4,0,2
19800,43,-10,3,-68,-1,0,-4,-21
19805,-41,-12,-6,30,-2,0,5,-1
19810,26,2,0,-59,9,-1,-2,26
19815,-8,-4,10,47,-5,1,-2,-25
19820,-19,-5,-7,-13,-1,1,-1,-21
19825,-5,5,4,1,3,-2,-3,6
19830,-20,1,-14,-9,5,-1,1,40
19835,-20,-3,6,-16,-12,-6,-5,-29
19840,-35,-23,-5,-21,-1,-3,-3,-33
19845,65,34,14,-11,1,3,7,66
19850,3,-12,-24,6,-2,-2,-2,5
19855,1,16,-6,-28,7,3,2,-11
19860,-40,-21,27,45,-6,-7,-9,-27
19865,17,-5,-17,-34,2,4,5,44
19870,-15,-5,10,12,-9,-1,2,6
19875,39,-12,-7,-1,7,-5,-7,-17
19880,-42,33,1,-47,-2,2,0,24
19885,-1,-5,6,41,8,-4,-4,-49
19890,-6,-1,9,31,-14,0,1,42
19895,-62,-11,-14,-59,-2,0,-2,-39
19900,18,3,-7,28,6,0,-1,38
19905,-32,-7,-4,-54,-3,-2,-5,-25
19910,24,16,18,55,12,1,5,-7
19915,-3,-10,-22,-28,-7,-4,-4,6
19920,-19,4,5,-5,-2,0,2,-3
19925,18,21,-1,-52,-9,1,-1,-13
19930,-7,13,8,39,8,2,1,-12
19935,10,3,12,11,7,-4,-3,45
19940,7,-9,-18,-52,-4,2,1,-9
19945,21,-8,8,84,1,-4,-1,14
19950,-24,0,13,-26,3,1,-4,-16
19955,-11,16,-15,31,7,-2,0,12
19960,1,10,15,-26,-20,-3,-1,-6
19965,19,-11,-9,13,8,-1,-7,-65
19970,64,10,-1,7,2,1,5,82
19975,47,-6,-2,-14,-4,4,2,-40
19980,-33,-1,-2,71,8,-5,-4,4
19985,23,-11,5,-11,-10,-3,-1,0
19990,-51,-18,-16,-36,-4,-2,-2,-31
19995,31,1,2,5,1,2,2,27
20000,53,10,3,0,5,2,4,12
20005,-77,-32,-7,6,-9,-5,-4,-11
20010,-5,0,-10,-42,-1,-1,-5,-29
20015,8,0,9,34,-11,-4,-3,-14
20020,-4,-7,0,6,3,-1,5,35
20025,-8,1,-10,-37,-5,-1,0,-5
20030,25,-13,-7,43,-7,-5,-9,-10
20035,17,-2,-2,-12,6,5,5,-29
20040,32,-9,0,-62,-15,-1,-2,-4
20045,-5,10,6,111,11,1,-4,-1
20050,7,-30,-9,-96,-10,1,1,2
20055,-3,2,16,75,7,-3,-6,-3
20060,17,0,-12,-3,-2,0,-1,12
20065,-15,-5,0,-5,1,-1,2,20
20070,-35,21,22,41,13,2,-1,-13
20075,25,8,0,-24,-7,0,-1,16
20080,-16,-2,-2,-9,0,-2,0,-23
20085,-6,7,1,-18,-6,-2,-4,-66
20090,15,4,-1,46,0,-3,7,94
20095,-15,-16,-6,-97,-12,-3,-3,-34
20100,-32,4,12,47,6,2,1,5
20105,17,-4,-10,-17,3,5,5,-11
20110,1,2,3,53,1,-4,-3,-3
20115,13,-19,-1,13,-3,-1,-3,-40
20120,29,0,-14,-33,0,-4,-5,22
20125,-65,-10,16,-17,-2,0,0,14
20130,34,0,-37,3,-1,-4,-2,-27
20135,-54,-5,2,3,-2,-1,-1,14
20140,12,-1,-1,-44,2,0,-3,-44
20145,16,7,4,22,-2,-1,2,20
20150,-36,-16,-7,-27,-7,-3,-2,-16
20155,-6,10,7,24,7,-1,-2,10
20160,4,-25,-13,-35,-13,2,-1,-6
20165,-4,18,6,2,5,3,3,23
20170,15,3,10,14,6,-2,-2,41
20175,-26,-13,-25,-26,-4,-2,1,0
20180,-16,-1,10,24,3,-1,0,-5
20185,27,0,-7,-19,-8,-1,-2,-7
20190,1,6,3,21,7,1,0,-18
20195,-18,3,6,-38,-9,1,0,4
20200,-30,9,-1,89,1,-9,-7,-10
20205,37,-7,-4,-31,-4,-6,-6,25
20210,4,-2,6,19,7,2,1,-32
20215,-24,-8,-10,-12,1,1,5,45
20220,34,6,-8,2,-2,-2,-2,-6
20225,-43,-9,-6,-25,-5,-3,-9,-50
20230,-26,-5,12,50,3,2,8,53
20235,76,13,-2,-51,5,-1,-4,-14
20240,5,-5,6,38,-6,-1,2,5
20245,-9,5,-3,-28,3,0,-3,29
20250,41,-21,-14,8,2,1,-2,-53
20255,-18,4,11,33,-1,-3,-3,-16
20260,-8,-2,-2,-30,4,0,1,6
20265,-11,-3,-6,-6,-4,-2,2,6
20270,-14,-4,-12,-9,-2,0,-3,-21
20275,-18,15,10,-30,4,-2,-2,-4
20280,7,-5,-11,-46,-5,-2,2,-27
20285,-8,0,15,64,7,2,-2,9
20290,-1,5,7,0,-6,0,1,44
20295,-3,-1,-9,13,-2,-5,-3,-7
20300,-8,0,1,-1,0,1,1,12
20305,43,8,-3,-4,-11,-2,2,-24
20310,-45,-11,3,11,3,-4,-10,-5
20315,-5,-7,-16,1,-7,2,7,29
20320,17,3,5,37,0,-1,-7,0
20325,1,-13,-19,-42,0,-1,-1,-7
20330,10,8,3,-40,-9,-2,-1,-17
20335,-13,-6,8,50,9,-1,-2,-3
20340,-33,-1,8,-8,5,2,0,-3
20345,19,13,-6,0,-14,-9,-3,-3
20350,-9,13,9,9,0,1,-3,-2
20355,-4,7,2,5,9,4,0,-5
20360,-16,-2,0,31,-1,-2,-2,-17
20365,-13,-20,15,39,4,4,1,-10
20370,-38,7,2,-48,1,-2,-2,-20
20375,-12,4,-15,23,-11,-4,-2,13
20380,-16,2,12,-51,-2,-1,-2,-21
20385,-8,-16,-7,-32,3,0,1,-11
20390,41,-3,-9,-13,3,1,-1,21
20395,15,-5,16,25,8,1,1,-14
20400,-53,-33,-22,-41,-10,-7,-7,-42
20405,76,24,3,-16,5,-2,2,46
20410,-24,5,-12,-11,-7,-1,0,15
20415,18,2,0,-4,-5,0,2,16
20420,8,6,3,18,-3,-5,-8,-13
20425,-28,6,6,0,1,3,1,16
20430,10,-7,-10,-25,-9,-5,-5,-30
20435,-46,5,6,18,6,0,-1,4
20440,40,8,4,18,1,6,7,47
20445,3,-10,-14,18,6,-2,-3,-17
20450,-18,-3,5,1,2,1,0,-32
20455,5,-18,-1,-43,-5,-5,-5,10
20460,45,18,12,30,8,2,1,10
20465,-30,-4,-12,-37,-5,-4,-1,18
20470,27,0,-12,-35,0,-3,1,17
20475,44,-9,0,11,1,-1,-1,-67
20480,-69,-24,-18,-37,-9,-3,-4,32
20485,3,11,-4,11,1,-1,-2,-31
20490,-8,10,9,33,6,5,3,-84
20495,3,2,-4,-13,-8,0,3,35
20500,14,-7,-21,-6,-2,-5,-1,2
20505,0,-7,-1,10,-11,-4,-8,-63
20510,45,16,7,18,1,0,3,37
20515,-13,8,3,-8,5,5,1,0
20520,35,8,-1,-57,-4,-2,0,2
20525,-26,-11,2,20,12,4,0,4
20530,21,-6,20,-13,-15,-5,-3,18
20535,-8,6,-17,-6,12,-1,-2,-10
20540,69,19,21,35,-11,-3,1,16
20545,-2,0,-9,-43,5,1,-3,-12
20550,-14,7,15,7,3,3,3,9
20555,-3,-14,-20,12,5,-2,-2,3
20560,-36,-3,5,-10,2,-2,-4,-44
20565,-25,-3,5,23,-10,-1,3,26
20570,38,8,-7,-47,-4,-3,-2,12
20575,-38,-11,8,-26,-5,-1,2,-13
20580,37,-1,3,45,11,1,-3,-21
20585,-61,5,16,27,2,2,4,37
20590,-4,-1,-18,-22,3,-4,-2,17
20595,58,6,1,30,-6,1,-5,-106
20600,-93,8,0,-47,5,4,14,29
20605,65,11,-5,-42,-8,1,7,8
20610,-33,-23,-4,12,-12,-7,-6,0
20615,12,6,4,15,7,-1,-6,-15
20620,15,-8,4,-14,-1,-3,-5,0
20625,-10,-7,-20,-47,-9,-7,-7,17
20630,-12,-2,19,95,13,1,-2,1
20635,-10,-8,-20,-78,-15,-2,0,34
20640,13,0,-3,11,-5,2,-1,-3
20645,19,-4,-7,-34,-3,3,3,-4
20650,-39,-5,-12,14,8,1,-4,-26
20655,-14,-12,14,30,-2,-2,-4,13
20660,25,7,1,30,-6,-1,-1,-9
20665,-10,-10,0,-45,-1,-2,-4,43
20670,-28,-1,-3,72,4,1,3,-14
20675,17,4,4,-16,2,3,1,5
20680,-20,-12,-7,24,4,-2,-3,-4
20685,-6,4,6,55,9,0,-1,-21
20690,-13,-9,-4,-44,-5,-2,0,14
20695,-10,0,-14,-31,-6,-5,-5,15
20700,12,-1,13,40,6,2,-4,-11
20705,4,-5,3,8,-5,0,4,34
20710,9,-5,-1,8,-3,-2,-8,-18
20715,6,-5,-6,3,-2,-3,3,-12
20720,-16,-11,0,-38,7,-2,-1,11
20725,16,9,14,71,-2,-1,-4,-39
20730,14,5,-24,-29,-5,2,6,33
20735,-3,-3,1,42,0,0,-1,1
20740,8,-2,2,14,4,4,1,-11
20745,3,5,9,3,3,1,-3,-7
20750,38,-12,19,7,-1,-7,-8,-32
20755,-51,-3,-5,20,10,3,4,-6
20760,5,-11,-12,-34,-16,-1,-4,-36
20765,49,20,8,112,15,1,7,81
20770,-44,-17,-11,-91,-11,-2,0,-40
20775,21,4,3,-9,-4,-1,-5,-17
20780,-7,3,9,53,15,2,3,29
20785,-7,0,3,-5,2,-1,-5,-20
20790,17,3,-11,-45,-9,-5,2,-1
20795,-1,5,15,56,7,3,3,13
20800,-12,12,11,-28,-14,-1,2,13
20805,-8,-21,-10,-40,3,2,-2,-44
20810,31,22,-1,1,5,0,-3,-32
20815,-9,-6,8,16,-6,-2,2,42
20820,5,0,-6,-12,-2,-4,-5,-7
20825,-64,-33,-2,-3,8,-1,-3,-32
20830,-3,9,6,-5,-16,-1,-3,-2
20835,-2,0,-2,-4,-5,-2,-5,-37
20840,45,7,-22,18,-3,0,4,34
20845,62,-22,-11,-127,-5,-2,-2,-2
20850,-76,9,13,109,0,-4,-6,-18
20855,44,4,-6,18,-2,-1,-1,12
20860,1,2,0,6,1,-2,0,21
20865,16,10,6,-3,-5,0,0,-11
20870,37,-15,-12,15,9,1,3,6
20875,-73,-2,5,-90,-11,-5,-4,-24
20880,-19,2,-2,21,8,1,3,16
20885,4,7,5,15,-7,0,1,9
20890,-7,1,0,27,14,0,-2,34
20895,-19,-4,1,-68,-5,0,-2,-6
20900,18,-3,-3,-21,-7,-3,-5,-25
20905,-64,-19,-15,-22,-5,-1,2,5
20910,-46,-5,5,35,5,1,3,5
20915,73,19,4,-57,5,2,4,30
20920,-12,-2,-9,15,-15,-6,-4,-3
20925,-12,4,-6,20,-3,-2,-6,-24
20930,43,-17,2,-41,-5,2,5,15
20935,-12,-6,9,104,14,-3,-3,-8
20940,2,5,-1,-82,-5,3,5,-16
