time,emg1,emg2,emg3,emg4,emg5,emg6,emg7,emg8,hand,pose,orientation,testPerson
0,-8,21,-3,25,11,1,2,1,1,0,100,BueBaby!
5,-5,-8,-5,21,0,-1,-2,-19
10,17,13,-3,-53,-9,2,2,32
15,-8,2,0,50,-2,-5,-5,-8
20,-7,-10,-6,-60,-4,3,3,3
25,-6,-10,-10,-27,-4,-4,1,-5
30,-16,-4,5,10,-2,0,-2,-9
35,-35,2,5,14,6,-2,-2,0
40,29,19,8,27,3,1,-2,3
45,-33,0,-23,-45,-12,-5,-3,-18
50,11,1,16,45,11,1,1,26
55,-32,-4,-14,-64,-20,-5,-5,-10
60,14,-1,-10,-15,-6,-1,0,-4
65,22,-10,16,18,6,4,1,11
70,14,0,2,39,1,2,1,-8
75,9,-4,9,13,-7,1,1,-10
80,-9,2,6,-8,-12,-5,-2,27
85,18,-9,-9,-10,-1,2,-2,-13
90,-2,-28,-3,1,-2,-2,-2,-1
95,34,21,14,-1,5,6,3,12
100,-20,-24,-18,-12,-9,-5,-5,-15
105,7,-3,0,-20,-4,-3,-3,4
110,-30,32,5,-8,3,1,-1,-1
115,75,-13,2,14,-5,-1,1,-4
120,-48,-10,-17,-46,6,-2,-4,-10
125,20,-20,-2,31,-2,-5,-1,0
130,-7,21,3,5,-1,0,1,-6
135,19,-9,2,-41,6,2,-2,-18
140,-7,12,-5,8,-4,-4,1,17
145,20,-4,-11,-7,-2,-4,-8,-32
150,30,7,11,7,3,4,-1,-10
155,5,0,1,-9,-1,-3,-4,-6
160,65,13,1,8,-11,-3,-2,10
165,-60,7,2,22,1,1,2,-14
170,58,3,-1,-24,-3,2,0,20
175,-48,-45,-7,-12,3,-2,-1,-18
180,18,1,-1,26,-1,-3,0,-6
185,2,16,-3,37,2,-3,-7,-3
190,-18,3,-3,-18,-2,-1,-1,-5
195,20,0,14,60,-6,-1,-3,-1
200,0,-2,-9,41,10,-3,-5,-16
205,-1,-15,-5,0,-1,5,6,35
210,-23,-1,7,0,1,0,-3,-9
215,52,20,3,44,19,5,1,-26
220,-108,-19,-13,-100,-18,-7,-2,17
225,36,7,2,57,7,2,-1,-2
230,-18,-25,-1,-24,-7,-2,-1,-5
235,-14,15,-10,-22,-2,2,7,13
240,2,5,2,-52,4,2,1,-6
245,0,-38,-5,-30,-6,-4,-2,-10
250,0,17,-3,6,1,2,1,23
255,23,5,10,8,6,1,-1,-19
260,12,9,-31,-63,-23,0,5,28
265,10,-29,1,1,7,0,-1,-7
270,-10,3,18,16,-3,0,-1,-11
275,-14,3,-8,-8,4,-2,-3,10
280,1,11,8,58,-7,0,-1,-25
285,34,2,6,-14,7,0,2,43
290,16,20,-3,80,-9,-7,-4,1
295,-12,-57,-14,-43,-16,-3,-3,8
300,-1,-24,2,45,5,2,1,-3
305,-36,31,5,17,4,3,2,-10
310,33,-13,9,10,4,0,2,-13
315,12,63,2,22,-7,-3,-5,-6
320,41,-12,0,-3,4,-1,-2,6
325,-6,-7,-5,-48,-9,-1,-1,-6
330,-18,-2,3,-5,3,4,2,4
335,7,40,-3,7,5,-2,-2,5
340,-42,-6,5,25,10,-3,-5,-18
345,36,8,1,-33,-8,-1,-2,-7
350,-67,-10,-2,8,7,-1,3,-5
355,3,-15,-7,-99,-11,-1,1,7
360,-8,-7,0,14,10,-2,-3,-2
365,4,-3,1,33,9,-4,-6,-2
370,-18,28,-1,21,-11,4,-2,-36
375,33,-58,-20,-32,-10,-5,0,49
380,-27,26,10,29,17,6,5,-3
385,10,-14,-16,-79,-18,-6,-2,-14
390,-2,1,-9,-28,2,-1,0,-6
395,-3,-8,11,76,8,-1,-8,-21
400,1,0,7,-36,-11,-1,2,30
405,63,-13,6,66,4,2,-3,-1
410,-29,-37,-26,-101,-12,1,4,12
415,-6,19,13,101,17,-1,2,20
420,-16,-2,-9,4,14,3,2,-11
425,-23,-3,12,10,-24,-6,-4,-14
430,-10,24,-1,28,9,-1,-1,-7
435,41,-28,19,23,5,2,-3,25
440,-3,-6,-10,17,0,-2,4,5
445,-12,8,-2,0,1,-2,-2,-8
450,11,-1,-1,-29,-9,-3,-5,-28
455,5,19,-12,-65,-16,-2,1,35
460,-27,-47,-11,-61,-2,-3,-6,-24
465,-41,3,-6,18,7,1,1,14
470,8,-17,20,99,23,-5,-7,3
475,-32,36,-3,-13,-8,0,-2,-34
480,8,6,8,-12,4,2,2,2
485,35,6,-12,-47,5,-3,2,19
490,17,-12,8,8,-8,-2,-3,-5
495,-50,9,-2,-11,1,-3,-1,-22
500,15,-26,3,28,1,-1,-4,0
505,-37,0,0,-43,-7,-4,-1,-25
510,8,-1,-17,-15,-6,2,2,14
515,22,-15,8,-3,-1,3,6,6
520,9,15,-11,13,-23,-8,-8,-12
525,11,-13,-9,-69,-6,0,0,-35
530,0,-18,14,100,5,-5,-4,22
535,2,19,-5,-77,-4,4,3,-8
540,24,14,-3,-33,-5,0,0,-4
545,9,-4,3,45,7,4,-1,2
550,5,26,7,19,-5,1,4,6
555,-22,10,-18,-34,3,-4,-6,-29
560,-36,-16,17,25,-10,-4,-3,0
565,7,4,6,45,14,3,0,3
570,20,-8,-14,-58,-6,-2,0,-7
575,6,10,20,68,-1,7,4,6
580,15,7,-12,70,10,-2,-2,-17
585,-23,-14,-2,-41,-14,-1,-1,21
590,14,-5,-7,-2,3,-6,1,51
595,-10,-16,-6,13,0,-8,-3,-24
600,34,-2,-9,-76,-1,0,-7,2
605,27,46,5,69,7,1,1,-3
610,1,-26,-8,-31,-22,-3,-2,-11
615,-13,-9,1,-7,2,2,2,10
620,7,1,5,-57,14,3,2,-3
625,-15,-19,-10,18,-6,-5,-5,-21
630,13,11,-1,-41,0,0,-1,10
635,4,5,8,22,0,0,0,-6
640,28,-9,-6,13,1,3,4,7
645,-7,10,14,74,20,0,-2,-5
650,-1,10,-2,2,-1,4,3,3
655,-30,-28,-2,-34,-15,-5,-2,-31
660,29,31,-4,88,5,-5,-5,18
665,-27,-24,-7,-15,-2,3,5,46
670,-30,-3,-11,-79,-7,-7,-7,-25
675,-1,7,7,76,31,4,3,-6
680,-35,-10,1,31,-35,-3,0,9
685,-3,10,-7,-60,-8,0,-2,-15
690,23,-9,8,71,23,5,1,6
695,-62,-3,-17,-48,-24,-5,-1,12
700,22,-9,6,17,14,5,13,6
705,35,23,-6,7,-17,-6,-4,-15
710,-24,6,2,-63,8,1,-3,-6
715,31,-11,-1,49,-15,0,-2,-59
720,-7,13,-2,-13,7,-4,-2,69
725,-23,-17,8,26,3,-1,0,-7
730,-7,6,-6,23,2,0,1,-2
735,11,-1,-4,35,0,0,-2,-7
740,-18,-2,9,68,7,1,-6,-38
745,-8,0,-16,-29,-3,-1,1,16
750,-1,5,1,32,-6,-1,-1,-3
755,-4,-12,-5,-20,9,2,2,11
760,53,29,0,-63,-16,-3,-1,9
765,-23,-40,0,14,12,4,1,7
770,58,-28,-1,1,-26,-13,-8,-15
775,-49,-2,7,-22,9,4,3,13
780,-9,16,0,27,20,2,-1,-19
785,42,16,-11,-80,-24,-4,-1,-7
790,-14,-6,0,32,23,5,1,-24
795,22,-9,-10,-68,-43,-3,1,33
800,-14,-17,8,1,5,0,-4,-22
805,-37,4,4,-42,1,-1,0,27
810,3,19,-1,-2,-6,1,-2,-1
815,81,11,-7,36,5,-5,-4,3
820,-64,49,3,56,5,7,3,2
825,24,-3,5,-39,-8,-3,1,-8
830,4,-14,-6,16,-12,-8,-5,12
835,-20,18,8,37,20,4,1,7
840,36,-51,-3,-37,-9,-3,1,-18
845,-4,1,-10,52,1,-2,-7,-41
850,7,25,16,-33,-17,1,6,53
855,-13,-16,-23,67,20,-3,-8,-15
860,-17,-15,-11,-23,-10,-5,-2,-9
865,-16,-2,10,20,0,0,0,-4
870,8,12,-2,-18,9,8,4,3
875,4,-5,2,-20,0,-6,-6,-6
880,15,15,-3,-55,-22,-8,0,6
885,-16,-31,2,70,18,3,0,-8
890,-3,11,-4,11,-2,-3,0,-15
895,2,-6,-6,-7,12,-3,-3,10
900,-43,-32,0,84,10,3,-8,-42
905,-1,73,-3,-44,-31,-4,9,64
910,-8,-6,-8,32,30,3,-3,-18
915,-6,6,-6,-59,-31,-5,-3,-10
920,27,-8,20,-15,12,1,0,3
925,-51,-23,-18,34,7,-4,-9,-13
930,-21,-9,-9,-66,-11,1,-1,-3
935,3,16,-3,38,1,4,5,6
940,38,18,7,35,17,-1,-2,7
945,5,-12,9,13,-10,-5,-3,-13
950,6,15,3,10,5,1,0,-2
955,-4,-24,-16,-54,-3,-1,1,-3
960,-9,9,-5,-56,-7,-1,-3,5
965,63,0,2,31,7,1,3,-7
970,-36,-5,12,88,7,-2,-5,-14
975,-27,22,-10,-40,-12,-5,1,31
980,10,9,0,42,12,3,2,-19
985,-23,6,-23,-81,-17,-9,-10,6
990,-12,-6,6,25,8,5,0,-19
995,-15,-9,13,11,19,0,0,-18
1000,-12,4,-1,-63,-17,-6,-4,-11
1005,30,-34,-7,-27,12,5,6,19
1010,-22,24,-12,19,1,-2,2,1
1015,11,-7,2,-43,-4,-3,-4,-5
1020,-14,0,-4,-9,-1,7,5,12
1025,23,7,23,62,11,-2,-5,-25
1030,-22,-24,-6,-10,-5,-1,0,10
1035,5,-11,-11,3,5,2,3,7
1040,-30,19,4,12,-1,-4,-3,-3
1045,-16,6,0,0,-5,-2,-2,1
1050,25,-8,5,-8,-4,-1,1,4
1055,-6,-4,5,58,-2,-2,-3,-4
1060,-9,-8,-15,-65,-12,-3,1,9
1065,-18,4,4,13,17,6,1,-1
1070,24,-7,5,-46,-9,-5,-1,2
1075,-1,29,6,37,1,0,0,-30
1080,25,-15,-11,-12,3,3,2,51
1085,15,-27,-13,-13,-20,-5,-3,-3
1090,5,-11,0,-3,8,0,-1,-3
1095,21,17,-3,15,0,2,2,11
1100,-40,-31,-6,7,6,1,-1,-10
1105,6,19,21,56,6,3,4,22
1110,23,5,10,61,9,-1,-1,-10
1115,-32,-2,-11,-68,-11,1,1,-28
1120,58,44,4,34,3,-4,-1,48
1125,17,-23,5,-12,-3,-1,-4,-36
1130,7,4,-9,31,3,-3,1,21
1135,16,-1,2,-81,-4,0,0,44
1140,-5,-23,4,14,-18,-7,-3,-28
1145,-23,15,-2,-19,-1,2,-4,-12
1150,-13,-7,-6,-10,-1,-10,-6,-3
1155,68,-21,8,70,14,8,-3,-1
1160,-21,-6,-9,-44,-8,1,1,-17
1165,-11,3,4,13,0,0,3,25
1170,-19,-12,-4,7,-6,-3,1,-12
1175,-2,-10,-18,-49,-8,-5,-7,5
1180,-57,-7,18,102,8,-1,-1,-4
1185,-14,0,-11,-80,-37,-8,1,-21
1190,5,61,13,26,14,9,4,7
1195,-13,-25,1,27,-5,-1,-1,-9
1200,63,13,8,32,13,4,3,0
1205,-25,5,-21,20,-8,-7,-3,3
1210,2,-43,-9,-34,-12,2,-2,-24
1215,-22,-9,8,-29,5,-3,1,10
1220,-3,-5,1,-16,-14,-3,-4,-23
1225,-13,-27,2,-43,12,3,4,18
1230,13,11,3,11,1,1,-1,-8
1235,3,-1,-20,32,2,1,-1,20
1240,59,-28,-7,9,4,-13,-11,-27
1245,-13,41,9,-1,4,6,2,-15
1250,-17,-25,-25,-62,-17,-4,2,8
1255,29,-18,24,76,18,-1,0,9
1260,-28,3,-10,-37,-8,1,1,17
1265,16,4,6,27,15,2,-3,-4
1270,-11,-15,-17,-19,-18,-6,-3,2
1275,23,53,11,0,-1,-3,-1,5
1280,7,-11,-2,13,-3,3,1,-18
1285,14,-13,-6,-27,3,-4,-1,14
1290,-18,16,-2,-19,1,5,1,-4
1295,-29,6,16,31,1,-3,0,-27
1300,40,23,-11,-44,-13,-1,3,48
1305,-30,9,13,80,20,2,-1,-20
1310,37,0,5,-1,-10,-4,-4,4
1315,-19,-4,-8,-24,-2,1,0,-3
1320,-12,-15,4,52,10,1,-1,-17
1325,5,-1,-3,-28,-7,0,0,2
1330,21,16,5,48,7,-4,-1,8
1335,15,29,-13,-39,-19,-4,-4,-16
1340,-64,-52,-8,-78,-9,6,2,14
1345,21,10,3,-23,-8,-8,-3,3
1350,4,-1,19,54,7,-1,-3,1
1355,-30,-15,-15,-34,6,4,3,7
1360,-5,12,4,61,1,-1,1,-10
1365,11,12,14,49,9,1,2,27
1370,-2,-4,-4,-92,-2,2,-2,-3
1375,-59,-2,-18,5,-24,-5,-4,-18
1380,-20,-18,-3,-5,8,6,3,13
1385,4,-16,-6,17,-4,-7,-6,-11
1390,3,17,2,15,10,1,4,-2
1395,7,-14,6,19,-12,-1,-4,2
1400,39,0,-10,-44,-1,-5,-5,7
1405,3,23,1,-28,-2,3,-1,-10
1410,-20,0,1,65,1,-7,-6,27
1415,17,-28,14,38,17,3,3,-3
1420,4,4,-14,-83,-23,-6,-3,-10
1425,-1,-8,-5,40,-2,2,2,2
1430,-41,5,-11,-20,-10,-4,0,4
1435,-16,-7,17,105,24,3,1,5
1440,3,15,9,62,16,-1,-3,-12
1445,20,9,-8,-37,-8,3,-1,2
1450,16,-48,5,32,9,0,1,-10
1455,-16,-5,-3,-18,-10,-5,-3,12
1460,18,-12,-1,-60,7,-3,0,-3
1465,3,0,6,22,-2,-2,-5,-29
1470,-46,8,-5,8,1,1,0,12
1475,-1,-33,-1,1,9,-2,1,-27
1480,25,22,-2,-19,-14,-1,-1,-25
1485,22,-15,2,31,8,-3,-3,25
1490,-19,38,-2,-48,1,3,-2,-13
1495,21,20,7,-27,-20,-5,1,14
1500,-23,-3,-2,50,17,-2,-5,-8
1505,17,-11,-1,-88,-12,3,5,-24
1510,-85,4,-2,14,1,-4,-2,31
1515,18,7,-9,3,0,2,1,2
1520,-15,16,1,-10,2,-3,-3,11
1525,5,5,-4,46,4,4,-2,5
1530,24,-19,0,-108,-5,-2,0,-9
1535,-9,10,-4,44,-3,-3,-6,-6
1540,23,19,6,16,-21,5,7,12
1545,-38,27,9,107,20,-4,-1,0
1550,-19,-30,-16,-26,-14,-4,-4,-11
1555,15,4,8,1,15,5,4,-8
1560,-68,-1,-7,-51,-9,-4,-2,-4
1565,35,22,12,-14,-3,0,-3,1
1570,27,-1,0,29,-1,2,-5,-1
1575,12,-6,0,-10,2,-1,10,16
1580,-3,-11,7,19,4,4,1,-5
1585,-18,-28,-13,-35,-5,0,5,31
1590,10,-3,-5,23,-7,-6,-5,-12
1595,-5,-16,3,1,14,2,-6,0
1600,7,-7,1,-20,-4,-1,2,1
1605,-2,3,3,35,-2,-7,-4,-8
1610,13,-7,5,-21,-2,4,1,-13
1615,14,5,7,6,-1,5,2,13
1620,-8,6,-24,58,10,-1,2,7
1625,-20,4,-1,-60,-18,-3,-3,-10
1630,46,10,14,82,-1,0,4,6
1635,13,-30,-11,-61,-2,-7,-8,-3
1640,-69,1,14,78,7,-1,-5,-6
1645,-30,-45,-16,-33,4,1,0,-14
1650,11,51,4,-7,7,3,1,-2
1655,-31,-10,-4,0,-7,0,3,46
1660,34,-9,3,43,10,0,2,-1
1665,-1,10,-3,-70,-17,0,-2,-7
1670,-28,-14,-10,-33,-2,-11,-7,19
1675,-19,23,8,31,10,4,-1,-22
1680,7,4,-9,-45,-4,1,1,-17
1685,-3,-2,8,35,2,-5,-4,5
1690,34,-12,4,11,11,6,2,-23
1695,-68,27,-11,-17,-29,-8,-5,25
1700,52,8,-2,-53,2,-1,-2,6
1705,-6,-13,-1,71,20,1,-1,-14
1710,-10,-15,-3,-32,-15,-6,-3,-12
1715,26,-4,5,-1,6,2,2,-7
1720,-2,-12,8,32,0,-1,0,-7
1725,-3,1,-15,18,6,3,2,11
1730,7,-9,-8,-11,-12,-4,-3,3
1735,13,3,2,-11,12,3,1,-38
1740,-32,-13,19,82,7,-5,-2,52
1745,45,-7,2,18,-6,1,1,1
1750,-9,-18,-5,-18,0,1,2,9
1755,-49,3,-2,-11,-3,-2,-3,-23
1760,49,-7,-26,-82,-17,-1,0,-26
1765,-16,0,20,83,11,1,2,17
1770,-13,19,7,-16,3,2,1,-7
1775,25,-13,-12,-37,-19,-8,-6,-21
1780,6,18,11,16,12,5,4,1
1785,10,-2,-15,-75,-17,-4,-3,-13
1790,-8,-23,-4,26,11,1,2,-2
1795,15,6,1,18,4,-2,-3,-13
1800,-11,0,3,-12,-1,1,-2,2
1805,41,-21,4,-33,-11,-3,-4,-9
1810,-61,-8,-1,51,7,3,4,9
1815,47,47,6,46,1,0,2,6
1820,-15,-27,-6,-11,-5,-3,-4,-22
1825,21,22,-4,-32,6,2,3,37
1830,-20,-57,0,-7,-5,0,-4,-15
1835,-10,-5,-10,-16,-4,0,1,13
1840,-22,8,4,42,7,-4,-5,-16
1845,13,-10,1,-24,-20,-6,-5,-30
1850,15,22,2,43,8,2,3,9
1855,29,-10,-4,9,-11,-2,-1,-3
1860,-25,-11,-8,-91,-3,-2,-4,2
1865,-22,-9,-8,-11,3,2,0,-4
1870,10,27,-8,-14,-2,0,0,6
1875,7,-16,1,-3,8,-3,-2,5
1880,-23,-31,-3,22,-18,-5,-6,-6
1885,-3,38,3,23,9,-1,0,15
1890,2,3,-7,-31,-8,-1,1,-3
1895,-50,-2,1,-3,8,1,-3,-10
1900,8,12,-7,-12,-4,-4,-1,1
1905,-17,15,-7,-6,12,5,0,-28
1910,27,-2,0,32,-1,2,1,17
1915,-9,-15,-3,-1,9,-5,-5,23
1920,42,17,8,-61,-22,-1,0,8
1925,-68,-9,10,59,16,-1,-3,-17
1930,26,16,-10,-55,-9,-3,-2,-10
1935,8,-17,0,-3,3,-1,-1,0
1940,-12,14,0,28,9,9,7,-5
1945,57,3,-2,36,4,1,-2,23
1950,-40,-13,-7,-56,-29,-10,-8,-40
1955,27,0,17,18,14,-2,-1,43
1960,-27,16,-2,37,13,-1,-1,2
1965,-17,-23,-4,-24,-14,-1,2,-14
1970,38,34,2,46,20,3,1,12
1975,14,0,-11,-50,-16,-2,-1,-8
1980,-3,-6,15,46,13,1,-2,-7
1985,-9,-8,-11,13,-1,-2,-2,-25
1990,16,15,4,-24,-17,-6,0,29
1995,11,-4,11,13,0,1,5,-1
2000,14,-5,3,-47,11,0,-1,9
2005,-15,11,4,0,-19,-2,-1,-3
2010,-2,-9,-1,4,12,1,-1,-13
2015,-2,2,-2,18,-7,-4,-4,-27
2020,62,17,-7,-63,-9,2,4,6
2025,-48,-19,14,43,18,3,3,24
2030,-9,-11,1,12,0,0,-1,-10
2035,-11,-9,-7,-59,3,-3,-5,0
2040,26,27,7,6,-9,-2,-3,-6
2045,11,17,-13,-40,-3,-3,-2,1
2050,5,-33,1,22,9,5,3,9
2055,-27,-6,9,52,7,1,-1,-6
2060,-20,4,-16,-51,-8,-4,-3,2
2065,14,10,3,-21,-11,-2,-2,-2
2070,15,-26,-5,19,19,-2,-1,-7
2075,-2,44,9,56,-27,-4,-3,-21
2080,-40,-25,-37,-16,-12,-10,-6,16
2085,33,-7,6,29,9,2,3,0
2090,-72,3,-4,-7,6,2,0,-7
2095,7,-8,-9,-19,4,1,-1,-32
2100,20,0,4,-43,-1,-2,0,23
2105,-31,2,3,9,3,-3,-2,-8
2110,40,36,12,59,-1,3,-1,-8
2115,61,0,-6,-57,-5,2,3,29
2120,-16,4,19,92,10,5,3,-7
2125,-3,-14,-16,-106,-9,-7,-3,-9
2130,23,0,-5,44,-1,-5,-7,1
2135,0,2,-3,11,2,-1,-1,3
2140,-26,2,1,-38,1,2,2,-1
2145,10,2,5,-3,3,5,2,5
2150,2,3,0,-34,-10,-5,-4,12
2155,-12,-9,-13,-4,-5,-1,0,5
2160,1,-1,4,86,6,-2,-3,-11
2165,-42,-14,0,18,5,2,0,-2
2170,-9,-13,-5,-43,-16,-3,-2,2
2175,-2,-3,-7,10,8,1,1,2
2180,26,2,3,-30,-3,-4,0,-7
2185,5,3,5,32,5,-2,-3,-2
2190,1,-14,-4,0,5,5,4,-25
2195,-36,-33,-10,24,-1,0,-5,-5
2200,7,6,-14,-59,-21,-12,0,69
2205,31,-4,7,51,15,-2,0,-2
2210,-4,5,3,56,0,-4,-2,-3
2215,-2,-5,-1,-29,-1,-5,-4,-19
2220,-9,-3,5,19,15,6,0,-22
2225,15,-6,2,-16,-7,6,3,0
2230,27,-18,-8,-2,-7,-4,-2,30
2235,-19,17,-3,-27,-4,0,1,-7
2240,-3,-3,11,114,6,-2,-2,-5
2245,6,-1,-11,-20,-14,-7,-6,-6
2250,-11,2,5,-20,10,2,1,-13
2255,1,3,9,10,-1,1,-1,-9
2260,0,-12,-21,-31,3,4,1,18
2265,-1,10,-5,-11,-11,-8,-7,-4
2270,-40,-8,12,-34,-3,-1,-3,0
2275,11,53,-1,15,4,-3,0,-10
2280,-5,4,6,19,-1,6,1,-12
2285,5,6,-4,10,11,3,1,1
2290,3,4,-6,-65,-24,-5,-3,13
2295,51,-10,4,28,12,4,3,-9
2300,-47,-9,5,18,-5,0,0,-10
2305,20,3,-13,-69,1,-4,-6,-3
2310,38,-15,3,10,-3,-5,1,-7
2315,-35,-8,9,20,-4,1,1,16
2320,19,-4,-14,9,-1,-1,-3,-11
2325,-6,-5,5,-3,2,4,1,10
2330,-17,20,4,-15,-6,-2,-5,-38
2335,26,-9,-11,-4,-6,-1,2,38
2340,8,-15,7,-13,-4,-2,0,-5
2345,-8,1,0,14,0,-2,-2,6
2350,2,10,-9,-51,0,1,0,-5
2355,-23,-16,-2,12,2,1,-1,4
2360,1,5,7,10,1,-3,-4,-10
2365,-13,-1,-5,4,-17,-3,-1,-6
2370,58,-5,-13,-16,12,2,2,13
2375,-17,-2,6,58,-8,-10,-9,-6
2380,-11,-2,-7,-32,1,4,3,-3
2385,20,2,4,15,-10,0,4,38
2390,-2,0,-1,24,7,4,2,8
2395,2,-4,-5,-44,-3,0,-2,-7
2400,14,1,9,15,4,-1,-3,-15
2405,-10,-10,-6,-6,-2,3,-1,-44
2410,1,-7,-11,22,0,5,11,56
2415,-69,-13,7,11,-7,-10,-1,8
2420,-13,-6,-6,49,6,0,-2,-24
2425,-2,-21,-1,17,-2,-2,-2,23
2430,-4,-1,8,3,10,2,-2,-13
2435,12,12,-4,-1,4,4,2,-7
2440,12,-4,-1,-27,-10,0,1,6
2445,23,3,-11,-8,-10,-2,-2,-22
2450,-13,1,4,-1,-4,-4,1,43
2455,-4,9,1,18,-4,-5,-6,2
2460,11,9,-10,-23,-8,-7,-6,-6
2465,-11,-2,-9,36,3,-1,-2,-1
2470,-10,5,10,27,-2,-1,-6,-16
2475,17,-3,-1,-42,-1,4,3,-4
2480,9,-10,10,29,7,4,1,10
2485,-17,6,5,-12,-4,-2,-1,-6
2490,0,6,-3,4,4,-3,1,-8
2495,-27,-7,-4,-17,-5,-1,-2,-18
2500,23,26,4,-33,-2,-2,0,35
2505,-36,-30,7,-3,11,-2,-3,-3
2510,-29,2,-7,-3,-2,-1,-4,-32
2515,55,-31,-13,-34,2,0,3,28
2520,-15,4,2,31,-2,0,0,-2
2525,-21,17,1,-48,-1,-1,-3,-3
2530,30,5,10,83,4,-4,-6,-27
2535,-31,-32,-10,-41,-5,0,-3,-6
2540,12,7,0,17,5,-2,0,2
2545,5,-4,3,31,1,-2,1,9
2550,-22,-16,-22,-73,-16,-3,-1,-18
2555,16,13,-2,7,13,1,-1,4
2560,-13,-13,1,-11,-5,-3,-2,-7
2565,6,12,4,10,4,1,1,2
2570,10,16,7,-40,-5,1,-1,-6
2575,35,31,5,40,-2,-1,0,-6
2580,-11,-12,13,7,7,0,-1,29
2585,11,8,4,0,-3,4,4,-8
2590,1,-9,-20,-59,-11,-5,0,9
2595,13,-1,0,10,14,-1,-1,-7
2600,-2,0,6,27,-19,-1,-2,-22
2605,-2,3,5,-32,11,1,0,11
2610,-15,1,4,58,-6,-2,-4,-1
2615,4,8,-2,-4,-9,-3,-4,-18
2620,-6,10,-11,-4,2,0,-2,-7
2625,-10,-5,-1,-16,4,-2,0,50
2630,4,1,11,-3,3,-1,-2,-2
2635,-16,-11,0,41,5,3,2,-14
2640,-7,7,-13,-99,-9,-2,1,-10
2645,42,-7,-3,2,-9,-3,-1,-12
2650,-70,6,-4,14,14,0,-1,-20
2655,13,-21,2,12,-7,0,1,41
2660,-6,-26,-2,-47,8,-1,4,-8
2665,18,1,0,16,-4,-1,-2,-2
2670,17,-10,3,107,10,-3,-2,28
2675,-12,6,-2,-69,2,2,0,-15
2680,29,-3,-8,33,0,-3,-2,-8
2685,-7,6,-11,-11,-5,0,-1,-12
2690,12,8,4,-10,-3,3,2,-16
2695,2,7,1,50,3,-1,-4,-6
2700,5,-6,-3,4,0,1,1,7
2705,-5,-3,1,55,1,-3,-2,-8
2710,11,1,7,31,0,1,-2,-4
2715,-25,0,-8,-56,-3,-1,3,5
2720,-1,-4,6,-6,0,1,-1,-8
2725,-2,-1,-4,55,-3,-1,-3,-7
2730,4,11,12,-22,0,0,1,-21
2735,-27,-45,-10,-25,-1,0,1,29
2740,-13,1,11,5,-1,-2,-3,-11
2745,-5,5,7,14,11,2,3,13
2750,28,-9,-10,-43,-5,-4,-4,10
2755,-11,17,8,-2,-3,0,-2,-16
2760,47,-4,-2,10,3,1,1,-8
2765,-60,26,-1,-18,-7,0,-5,-14
2770,-21,-6,-1,38,11,-7,-2,-5
2775,28,6,0,-62,-10,-3,-3,-9
2780,-1,6,2,56,3,-3,-2,12
2785,15,-1,-9,-17,6,2,3,-17
2790,2,-5,-9,-84,-24,-1,1,42
2795,-3,8,16,49,-2,-7,-6,-14
2800,-68,-22,-12,-7,0,3,0,-26
2805,41,-2,1,-12,2,-4,-1,52
2810,-46,10,3,-6,1,6,4,-10
2815,27,4,-16,-24,0,-2,1,12
2820,-12,11,5,3,-1,1,2,-9
2825,-1,-19,-2,-13,-15,-7,-6,-7
2830,-10,4,2,29,12,1,2,5
2835,26,23,2,38,6,1,2,4
2840,-56,-25,-8,-87,-7,-1,-4,-36
2845,-23,3,1,8,4,-5,-1,12
2850,62,-26,7,49,9,1,1,6
2855,-49,29,-2,-6,-6,0,-1,-15
2860,6,6,2,20,2,1,4,16
2865,9,-13,1,33,10,3,-2,-12
2870,-3,5,-10,-50,-11,0,2,-5
2875,-16,-38,-9,-10,-1,-9,-5,3
2880,8,8,-7,-22,-7,-5,-2,19
2885,0,18,6,-8,1,3,1,-25
2890,11,10,3,9,6,2,3,45
2895,-5,0,-1,23,-3,1,-1,-15
2900,7,-33,-1,17,0,-4,-4,13
2905,-28,9,-11,-24,-2,-1,0,3
2910,-2,-6,-14,-18,-4,-3,-4,-33
2915,0,-3,4,25,-18,-8,-4,10
2920,16,4,4,-16,4,2,0,-14
2925,-18,-36,2,-12,5,0,1,-18
2930,70,16,15,11,-3,-1,-1,18
2935,15,0,-2,3,-1,4,1,-13
2940,18,14,-1,18,3,-4,-1,26
2945,7,-4,0,-8,0,0,-1,-44
2950,-18,3,-4,-1,-3,-1,-1,43
2955,-25,-3,-7,-24,2,-1,-4,-9
2960,9,-3,8,10,2,4,0,-10
2965,19,5,13,23,1,1,1,6
2970,-10,-27,-23,-10,-4,-5,-6,-18
2975,14,-17,8,15,6,3,3,-10
2980,3,4,-12,-23,-9,-2,-3,6
2985,-14,-24,-6,29,6,-1,-2,5
2990,-13,2,12,31,11,4,2,-42
2995,0,18,-1,-76,-18,-2,1,39
3000,-1,-17,-1,47,6,1,0,-12
3005,10,-6,-6,-39,-10,-8,-4,7
3010,-24,4,6,29,8,-2,-3,-11
3015,12,8,0,20,10,3,2,34
3020,-7,5,-8,-5,-8,-1,-4,-21
3025,-1,17,1,-16,-9,5,8,31
3030,13,-28,-4,-16,-6,-3,-2,0
3035,-4,32,-4,16,5,-2,-1,-4
3040,9,6,6,18,0,-5,-3,-12
3045,-6,-5,-11,6,-6,-7,-4,-2
3050,21,7,0,-21,2,2,-6,-22
3055,14,-24,7,8,-1,2,5,7
3060,0,38,-8,-30,-7,0,-3,2
3065,16,28,18,40,3,4,4,3
3070,-7,26,5,9,4,-2,2,27
3075,-22,-11,-18,-8,-6,-4,-6,-23
3080,22,-12,6,35,4,2,1,12
3085,2,7,-6,-94,-17,-3,-2,1
3090,-41,-1,-4,50,1,-6,-8,-31
3095,8,15,9,6,7,4,3,3
3100,-27,-6,6,-42,-16,-4,-3,-19
3105,57,-24,-6,31,7,2,-3,20
3110,-10,-2,-7,-35,-4,-3,-2,-19
3115,3,-2,2,-55,-11,2,-1,-15
3120,8,-6,1,77,12,2,5,29
3125,-25,4,-1,-17,-1,1,-2,-33
3130,7,-24,-1,20,0,3,7,97
3135,1,-22,-5,1,-4,-7,-9,-24
3140,6,12,-12,-52,-10,-3,2,12
3145,-24,-5,-6,11,2,-2,-7,-26
3150,14,3,4,6,-2,0,3,3
3155,-41,-8,-2,47,8,2,1,2
3160,-2,-9,5,-10,6,0,-1,19
3165,7,9,-10,14,3,-1,-3,-4
3170,-30,-1,4,4,-6,0,-2,-29
3175,51,1,2,56,19,3,1,-5
3180,-30,2,4,27,-1,-1,0,3
3185,26,-14,-13,-23,-2,-6,-4,3
3190,17,29,2,-18,2,3,1,-4
3195,30,-8,3,30,8,6,5,-7
3200,23,2,-10,-3,2,-3,-4,-10
3205,-28,-24,4,83,0,-5,-3,20
3210,1,-2,4,-7,5,2,1,-15
3215,-22,-2,-5,-76,-17,-8,-7,21
3220,7,-4,-2,35,4,5,4,2
3225,0,-2,-6,-13,-13,-1,3,-3
3230,18,16,-14,-44,3,-3,-4,-25
3235,-39,-8,5,15,-1,-2,0,6
3240,6,6,3,-8,-3,-1,-2,-2
3245,15,-4,3,-29,0,1,3,-10
3250,-60,-8,-2,25,9,2,1,30
3255,-5,-20,-10,-40,-17,-8,-7,-9
3260,-16,0,-4,-22,-8,-7,-3,5
3265,-8,4,3,12,17,10,4,-6
3270,12,-11,-6,39,-6,-3,0,-10
3275,9,5,1,-81,-10,0,0,-7
3280,-39,14,3,28,3,-4,-2,-10
3285,10,16,1,75,2,-4,-5,-3
3290,36,9,4,20,7,-2,-1,16
3295,-30,-16,4,62,18,2,-1,-33
3300,30,32,5,68,2,2,2,38
3305,27,-12,-2,-111,-11,-4,0,5
3310,29,20,0,-11,5,2,-4,-19
3315,-6,5,0,69,8,2,1,-2
3320,-1,-17,-5,-26,-14,-6,-4,-21
3325,-12,24,-11,-7,3,-2,-2,14
3330,-11,-12,2,15,-5,0,4,17
3335,43,10,7,1,3,0,-3,47
3340,2,-8,0,-19,-2,4,3,-14
3345,5,5,4,-30,-21,-5,-2,-3
3350,-1,-33,-4,-10,-1,-2,0,-14
3355,-15,5,-9,-58,-7,-3,2,-16
3360,-37,-9,7,53,14,0,0,1
3365,22,-37,11,25,-4,-1,-2,-1
3370,14,-16,-12,-4,1,2,0,-22
3375,-25,15,4,14,-1,-3,-2,20
3380,36,-8,-7,-71,-13,-1,-3,-1
3385,-17,12,-8,-26,12,2,2,-2
3390,23,0,13,59,9,3,-3,-2
3395,-3,3,2,27,-13,-6,-3,-9
3400,-50,6,-8,-109,-17,-2,-5,-23
3405,-17,-3,10,77,6,0,3,7
3410,-36,36,-20,14,-4,-6,-6,-10
3415,40,2,3,-2,6,3,2,9
3420,3,-3,0,3,-3,-1,2,-15
3425,6,-7,4,60,10,0,0,11
3430,-21,24,-7,-70,-24,-8,-3,1
3435,-6,-6,1,25,10,1,-1,-14
3440,3,-4,0,9,5,-1,-2,20
3445,3,22,2,-7,-8,-1,1,-13
3450,0,-60,-2,-12,-4,-1,0,3
3455,26,-22,4,-6,1,2,0,3
3460,8,7,-5,-11,8,-1,1,-10
3465,11,6,-6,-45,-5,-1,-1,2
3470,-27,6,7,-5,-8,-4,-3,1
3475,5,-8,-6,29,8,2,2,-35
3480,32,-17,2,77,-3,-2,-1,45
3485,-58,-8,-6,-30,-15,-5,-5,-16
3490,24,28,4,60,11,5,4,15
3495,-9,-27,-2,11,4,-2,-1,-4
3500,-2,-2,-3,-7,2,0,0,3
3505,4,-4,-3,-15,1,4,1,11
3510,27,12,-4,-17,-2,2,-2,3
3515,-72,-20,-4,-1,-30,-12,-4,-2
3520,-46,11,5,4,15,3,-2,7
3525,-10,-7,2,18,3,-4,-1,-12
3530,-10,-50,-10,-31,-3,-2,-2,-24
3535,23,24,-18,-83,0,4,5,1
3540,7,13,9,50,2,-4,-6,-5
3545,-4,-17,4,9,-6,3,2,3
3550,-20,1,-6,-15,2,-3,0,-7
3555,11,15,-2,-2,2,0,-1,5
3560,-1,-7,-2,-22,-4,1,3,17
3565,12,29,8,37,17,-2,-2,-19
3570,-30,1,-9,-61,-25,-9,-5,12
3575,58,62,4,49,-1,1,0,8
3580,-3,-17,-9,-15,-3,-4,-1,-19
3585,-6,-15,0,8,-6,2,1,6
3590,30,14,5,-7,1,1,1,-2
3595,-53,-20,-5,-6,-4,-1,1,-5
3600,36,8,18,56,12,-1,-2,-19
3605,-4,-16,5,29,0,-5,-3,29
3610,7,-10,-5,9,7,1,-3,-17
3615,-6,-5,1,33,16,-1,-4,11
3620,-1,3,3,3,-13,-1,0,-14
3625,22,-10,-9,-27,-2,2,2,-31
3630,-30,2,0,-45,3,-2,-4,7
3635,3,-12,0,41,5,-1,0,9
3640,-63,-2,-21,-97,-7,-1,-2,-7
3645,-16,11,20,76,12,-6,-6,-16
3650,32,12,4,-29,-10,-3,2,3
3655,7,-23,-2,-11,0,0,1,3
3660,21,22,-2,-29,-1,1,-1,-11
3665,-9,11,-9,-29,1,-1,-3,1
3670,-29,-13,6,36,-4,3,2,12
3675,29,3,1,3,-10,-1,1,-1
3680,49,2,-3,-11,2,0,1,19
3685,21,-18,-16,-14,3,-5,-7,-21
3690,-1,-21,-1,18,0,-4,-1,20
3695,18,9,3,-16,-6,-1,-1,-6
3700,-9,-5,3,32,8,2,-4,-13
3705,8,24,3,-13,-6,3,3,-10
3710,14,-4,1,-5,-3,-1,1,30
3715,-11,5,-8,-23,-1,-6,-6,-11
3720,6,-32,3,8,15,6,5,13
3725,-2,-7,-10,-6,-15,-4,0,11
3730,2,7,13,-35,3,1,-1,-33
3735,-6,-17,-2,-52,-6,-2,-2,13
3740,-3,-3,4,44,4,-2,3,-7
3745,33,21,-1,-11,-7,2,1,11
3750,21,-26,1,-51,-9,-1,-3,-11
3755,-2,6,5,120,17,1,-1,2
3760,-13,-38,-17,-83,-20,-6,-5,-5
3765,-16,21,0,-28,1,3,2,-8
3770,-23,5,2,54,12,3,0,25
3775,34,-1,12,-35,-13,1,2,-15
3780,14,7,-6,19,4,-1,3,53
3785,6,-9,-16,-50,-3,0,-1,-2
3790,-29,3,-1,57,6,-3,-6,-33
3795,26,17,-6,-48,-4,1,0,-7
3800,-1,12,7,36,0,-3,-4,6
3805,-3,0,3,-16,7,1,3,7
3810,-7,-12,2,8,-17,1,3,12
3815,-15,26,-8,17,5,-2,-4,-17
3820,7,-8,-4,-53,-7,-1,-1,-21
3825,-14,-7,-9,6,1,-2,-3,-4
3830,6,12,9,47,7,-2,1,7
3835,5,10,0,-3,-5,1,-1,3
3840,6,-7,-8,-41,-1,4,3,0
3845,-8,5,13,22,-9,-8,-3,9
3850,-8,-24,-19,-6,5,-4,3,-14
3855,-5,11,6,-6,-4,-4,-3,-8
3860,-43,-25,-3,61,4,0,-3,-31
3865,32,-7,-3,-79,-4,-2,2,64
3870,12,17,2,59,3,-1,-1,-13
3875,-43,-19,-6,-31,-10,-5,-2,9
3880,-10,33,10,47,5,1,-2,-38
3885,47,-7,3,57,11,5,4,12
3890,-62,-12,-15,-38,-21,-8,-8,-19
3895,-6,-11,-5,-21,-2,1,1,25
3900,17,23,-10,-1,-5,-3,1,-4
3905,-29,-3,5,27,2,1,-4,-21
3910,51,17,6,-2,-5,1,2,5
3915,-5,-11,0,30,1,-3,-2,-9
3920,-15,-1,3,23,-3,-1,-4,-1
3925,-18,13,-10,0,-6,-6,-5,-9
3930,18,43,2,7,12,4,0,-17
3935,-35,-7,-5,-36,-7,-2,0,-2
3940,21,-14,0,-32,0,1,1,0
3945,-19,20,18,29,10,-1,0,25
3950,-32,-41,-10,1,-8,-1,-2,1
3955,66,12,10,-1,-9,0,2,4
3960,20,11,15,110,13,-2,0,2
3965,-48,-19,-14,-103,-13,1,-2,-2
3970,16,25,-1,-19,8,3,1,1
3975,-1,-14,4,34,3,-3,-2,9
3980,4,-7,1,-13,-9,-3,-1,-3
3985,3,10,-9,-38,-9,-4,-4,-22
3990,18,-16,-3,-15,14,-5,-2,16
3995,-34,-17,6,4,13,9,6,31
4000,16,47,17,50,-6,-6,-5,0
4005,-24,-41,-25,-36,-9,-1,-3,-47
4010,22,6,1,23,-3,1,7,80
4015,-6,4,-2,39,7,-2,-4,-15
4020,-7,5,-1,-36,-17,-5,-1,-8
4025,6,-12,-3,-33,-2,3,2,11
4030,-22,-18,5,26,7,1,-3,-32
4035,-2,23,-1,13,5,0,-2,3
4040,-55,-10,-3,-59,-8,-2,0,10
4045,14,6,1,36,7,2,-1,-2
4050,-44,-4,-10,32,4,-2,-2,-19
4055,12,2,-4,-83,-28,-3,-2,2
4060,-39,-5,10,67,6,-3,-4,-11
4065,-1,4,-3,6,0,1,1,1
4070,-13,4,-1,13,9,2,1,-14
4075,25,-27,0,1,-3,1,2,38
4080,43,5,-18,-7,-2,0,-2,-4
4085,-53,-16,6,-20,1,0,4,23
4090,11,3,-1,-8,-3,-5,-6,-6
4095,-7,-4,2,23,12,1,-1,-58
4100,-25,-11,-13,-39,1,-1,2,9
4105,46,38,16,43,6,2,4,68
4110,12,-3,-6,-30,0,-1,0,-20
4115,-12,-8,-4,-1,-6,-8,-4,-8
4120,-13,14,4,17,12,3,1,-6
4125,37,18,0,-45,-9,1,-3,-21
4130,-10,-15,-4,24,-9,-6,-3,-19
4135,2,11,-4,-72,-16,-9,-5,26
4140,17,-9,5,31,6,6,3,8
4145,-5,-5,6,66,6,-3,-1,-17
4150,19,30,5,-38,-4,5,1,6
4155,-42,-8,-12,-18,7,0,0,-14
4160,22,-9,-10,-42,-6,-9,-5,2
4165,-5,-5,4,-14,-5,-4,-2,-11
4170,-1,0,-3,37,-10,0,-1,-5
4175,10,5,14,91,32,2,-4,-6
4180,-38,-28,-10,-32,-3,-2,-5,-4
4185,2,-1,-4,19,-3,2,1,-37
4190,18,16,11,-23,-12,-5,-1,60
4195,-7,-4,-24,-28,1,-1,-2,-15
4200,30,-19,9,0,-7,-5,-2,13
4205,-21,-15,-1,34,17,4,-3,-31
4210,-40,4,2,-23,-9,0,0,-23
4215,6,2,-1,30,6,3,3,19
4220,-38,1,-13,-25,-8,-4,-5,-13
4225,-6,22,7,14,-3,-4,-4,0
4230,25,-5,-10,-57,-1,-2,-2,-3
4235,-22,0,2,67,15,4,2,-20
4240,1,-2,8,-16,-14,-3,-2,-5
4245,1,19,-18,34,7,-3,-4,9
4250,-14,-24,4,-35,-3,-1,-1,-9
4255,8,11,1,17,3,0,2,-3
4260,18,2,-5,8,1,2,3,14
4265,-16,-11,3,-7,0,6,7,4
4270,37,-10,-11,0,-5,-5,-2,-15
4275,0,-10,21,4,9,-4,-6,10
4280,27,6,-5,-71,-17,0,1,-7
4285,-7,-12,-9,7,2,0,1,-1
4290,1,-1,-2,41,13,3,1,-6
4295,-36,-19,-10,-25,-19,-7,-8,-30
4300,66,11,2,37,12,6,-3,-3
4305,14,-32,6,-23,-12,-5,3,45
4310,-42,2,3,-6,4,6,2,-1
4315,1,23,-4,-16,-6,-2,2,-7
4320,-39,-10,0,44,7,2,0,-4
4325,-12,-3,1,-51,-3,1,-2,-42
4330,30,23,11,52,-5,-4,2,74
4335,1,-10,-3,24,2,1,0,8
4340,-22,8,-11,-12,4,1,3,-1
4345,1,-35,6,62,2,-2,-3,-11
4350,-60,-7,5,-55,13,-1,-2,-7
4355,23,11,-1,-6,-9,-3,0,1
4360,20,1,-6,-1,2,0,-1,3
4365,5,8,1,16,7,2,0,-8
4370,37,-1,2,-20,-1,4,6,0
4375,-35,-1,-4,5,-7,-4,-2,6
4380,-14,1,7,27,11,-2,-5,-14
4385,-6,11,-10,-50,-18,-3,-2,9
4390,9,20,3,25,4,-4,-4,-13
4395,47,-16,-2,16,10,8,6,10
4400,17,-12,-2,-7,-13,-1,3,7
4405,4,-13,-3,-20,1,-4,-8,-3
4410,16,2,-3,5,-8,0,-3,-4
4415,-8,3,3,11,7,1,0,-2
4420,82,18,8,-45,-5,1,-2,-2
4425,0,-11,-14,10,-11,-6,-2,9
4430,22,-12,-7,-78,-6,-1,-5,-49
4435,-60,14,-4,31,5,2,4,35
4440,18,-17,3,-44,-4,0,-1,-6
4445,45,17,3,3,-5,-1,-2,2
4450,-7,-20,-5,43,11,0,-2,-7
4455,42,74,11,-1,-12,3,1,-11
4460,38,6,8,13,12,-5,0,43
4465,-13,-18,-5,-16,-3,-2,-2,-16
4470,20,35,0,8,-3,-1,0,5
4475,34,-28,-14,-45,-6,2,-2,-18
4480,-74,31,8,-53,-5,-2,-1,5
4485,8,16,0,2,-10,-3,0,8
4490,0,-14,-2,25,-3,2,-1,5
4495,-7,-12,-5,17,10,-3,-3,2
4500,-12,4,-1,-70,-12,-1,0,-21
4505,-18,8,-11,50,7,1,2,0
4510,-62,-15,-26,-70,-4,-7,0,34
4515,-11,-9,28,37,5,-4,-6,-17
4520,-23,-24,-15,37,0,3,1,-25
4525,37,3,12,15,10,4,5,17
4530,0,11,-8,-19,-6,-1,-1,2
4535,-15,-10,-12,-30,-3,-5,-5,-16
4540,-16,-6,-2,94,16,8,0,4
4545,-9,3,7,28,-12,-7,-4,-1
4550,11,-16,4,15,3,-4,-5,-16
4555,54,-29,-8,-27,-4,3,3,12
4560,-32,-32,-2,-22,-5,-5,-4,-16
4565,-22,12,3,-25,8,2,-4,-9
4570,-11,-13,-1,84,12,2,-2,-20
4575,-2,-6,-4,-55,-12,-4,0,18
4580,21,13,-2,30,-4,2,4,28
4585,-47,-8,-2,-20,7,0,0,-4
4590,-21,-15,8,12,-4,-8,-7,-5
4595,-7,18,14,50,6,3,1,-14
4600,17,0,-13,-63,3,-4,-1,11
4605,45,-4,11,20,-2,2,-3,8
4610,1,8,-26,-60,-21,-4,0,-8
4615,-47,-7,-1,1,11,5,1,-26
4620,14,-8,1,19,-5,-6,0,-13
4625,66,27,1,-15,-2,-1,2,21
4630,-11,-15,7,-8,4,5,-1,0
4635,3,-64,-10,-22,-12,-7,-4,-19
4640,29,14,4,48,7,0,-1,-4
4645,-68,7,-2,-16,0,0,0,-12
4650,33,31,8,27,11,3,1,8
4655,-10,7,-6,-20,-15,-7,-3,7
4660,-23,-1,4,51,9,5,1,-8
4665,-8,-20,-15,-30,-2,-2,-3,1
4670,10,-3,-9,-22,1,0,1,3
4675,25,5,7,42,13,0,1,3
4680,-43,4,-3,12,-3,-4,-2,-4
4685,0,-13,3,54,-9,-4,-4,-17
4690,-17,-15,-14,-8,-7,-1,-2,-46
4695,14,-4,8,-12,-6,0,5,104
4700,-44,-23,7,52,7,0,-2,-14
4705,-5,1,-4,-11,11,2,1,-8
4710,4,6,4,-9,-26,-2,1,6
4715,12,-21,4,41,1,-4,-6,-21
4720,19,10,0,-27,0,4,4,10
4725,-44,21,6,9,16,-4,-2,-9
4730,10,-17,4,-2,6,2,1,27
4735,39,14,-10,-16,-1,5,0,-7
4740,-23,51,4,-53,2,-7,-7,-2
4745,5,-21,-4,-16,-3,3,0,-8
4750,12,-41,-11,-11,0,-1,-1,-16
4755,-63,8,11,1,-12,-2,1,-12
4760,-3,-3,-18,-22,0,-3,-1,6
4765,21,9,15,3,-7,-1,0,-1
4770,7,16,0,10,5,-1,-2,2
4775,2,5,-18,-11,2,4,2,6
4780,-3,-25,-2,21,-4,-1,-1,-6
4785,-4,0,-7,-12,-16,1,0,9
4790,5,-2,27,117,23,-1,1,3
4795,-25,20,-6,-59,-9,-1,-4,-15
4800,21,7,0,-8,-7,1,0,-7
4805,8,0,-7,-12,3,0,-3,-9
4810,17,-19,6,26,-4,0,6,36
4815,-27,31,-4,-81,-7,-6,-3,-45
4820,-47,-9,9,56,7,3,-1,41
4825,2,8,-6,-61,-13,2,7,17
4830,-21,-20,-11,7,3,-9,-14,-21
4835,11,-13,-2,21,2,6,0,-3
4840,33,1,13,43,8,1,-1,-51
4845,-24,-30,-4,8,-4,-6,-2,6
4850,-14,22,-29,-64,-8,0,4,-3
4855,-3,-20,15,39,5,-2,-3,9
4860,8,-5,1,39,15,-2,-1,-24
4865,-33,0,7,89,9,0,-4,25
4870,20,-21,-13,-115,-34,-13,-3,-9
4875,-3,0,-11,52,16,5,2,-13
4880,-23,-17,-8,17,-7,7,7,-30
4885,44,4,-6,-35,10,-4,-2,57
4890,-33,15,11,20,4,1,-3,-26
4895,-22,7,-7,-14,-20,-8,-6,25
4900,50,24,5,6,0,0,4,14
4905,-31,6,-13,-23,-5,1,-2,-33
4910,29,32,25,46,6,5,2,7
4915,23,-1,-3,-5,3,3,3,-4
4920,-15,38,-3,-69,-28,-11,-10,-10
4925,-12,-13,-8,31,5,-1,-7,-16
4930,19,6,0,-37,4,10,11,20
4935,19,7,7,0,-4,0,2,0
4940,-16,-30,1,20,10,-6,-6,9
4945,2,26,6,29,-17,-4,-6,-27
4950,69,-10,-13,30,14,1,3,17
4955,-49,31,17,9,7,0,1,-12
4960,51,-7,-2,-45,-11,2,1,19
4965,25,-10,-3,-10,2,-3,-5,-23
4970,11,5,26,123,24,4,2,15
4975,20,-6,-27,-62,-29,-4,-3,2
4980,-21,-13,-13,50,16,3,-2,-23
4985,0,39,4,3,-32,-7,-1,32
4990,-48,4,-7,-39,-5,1,-1,-16
4995,8,-2,1,30,13,0,-1,-2
5000,-5,-24,3,-28,6,4,0,-7
5005,1,-7,-5,-11,-9,-3,0,-13
5010,-42,-6,-2,3,-16,-5,-10,-4
5015,43,-4,-9,-13,-5,-4,1,-35
5020,3,-43,4,19,4,-1,6,77
5025,-2,5,-5,-63,16,6,5,-8
5030,-5,-7,-13,-17,-10,-6,-6,5
5035,11,-17,-8,-71,-9,0,-1,-4
5040,16,9,-3,-25,-12,-8,-7,-13
5045,5,5,17,88,18,0,-1,-7
5050,-14,-1,6,20,-1,4,1,-4
5055,10,0,-9,-56,-12,-3,-1,1
5060,3,9,-2,48,3,8,5,3
5065,29,-11,-13,5,14,1,-2,8
5070,8,12,2,-38,-21,-1,-1,5
5075,-9,-16,5,72,19,2,1,2
5080,-22,28,2,15,-7,4,5,7
5085,-50,-48,0,-49,4,-1,-1,-27
5090,-9,19,-14,42,5,-1,-4,-36
5095,63,15,8,-51,0,-2,2,60
5100,3,-20,-15,4,-4,-11,-9,-11
5105,-2,-4,3,-23,-28,4,3,4
5110,24,-4,-8,-14,11,0,3,6
5115,-89,16,10,47,-8,-3,1,0
5120,14,28,-1,-41,-6,1,-1,-5
5125,23,16,0,28,18,1,1,-6
5130,-33,-20,-2,-37,-7,-4,-4,-6
5135,13,-5,-3,23,1,1,-2,-5
5140,-19,-3,6,-4,1,-2,0,14
5145,23,-2,-17,-27,-8,-7,-3,-8
5150,-8,22,-1,5,4,5,5,-1
5155,2,-9,7,86,19,4,-2,5
5160,-14,8,1,-103,-16,-4,0,-12
5165,0,-14,-1,47,8,-1,-1,11
5170,-22,-14,6,11,14,-2,-3,16
5175,17,17,-5,-22,-11,-3,0,-15
5180,-28,-32,1,36,10,2,-4,-26
5185,10,48,3,20,6,2,5,28
5190,3,-19,-1,-37,-16,-5,-4,4
5195,37,6,10,35,17,7,1,-15
5200,-12,-45,-7,-32,-20,-2,1,42
5205,5,-16,3,49,11,3,3,-29
5210,-20,-1,-8,-11,-4,-2,-2,11
5215,-36,-25,-19,-48,-12,-6,-6,13
5220,35,20,-3,19,6,-2,-4,-7
5225,-3,-12,1,30,0,1,-2,-7
5230,13,3,4,26,1,1,4,4
5235,-9,2,13,-1,-4,-2,-1,-23
5240,29,6,-10,6,12,3,-1,32
5245,-22,1,6,-15,-12,-6,-3,1
5250,40,29,2,-57,-10,3,1,-22
5255,-7,-16,-10,95,26,4,1,46
5260,14,9,0,35,1,0,1,-14
5265,-36,-20,7,-39,-5,-3,-4,-10
5270,5,6,10,45,22,5,0,12
5275,-7,3,-11,-13,-37,-10,-7,-37
5280,0,33,18,-19,12,6,13,15
5285,18,-2,-15,26,1,2,-1,4
5290,-8,-11,-3,-59,-15,-6,2,20
5295,-5,-1,19,-9,2,-4,-5,-3
5300,-18,-9,-16,38,-6,-6,-10,-32
5305,21,-2,-5,-13,-15,-6,-3,8
5310,13,-7,-4,-28,14,8,9,36
5315,-21,5,-2,13,3,-2,-4,-4
5320,-13,9,12,22,4,1,4,12
5325,9,-13,-13,-1,7,1,0,-14
5330,11,-10,-3,-31,-20,-5,-5,-19
5335,-34,-65,19,75,13,1,-1,10
5340,-48,-2,-28,-41,0,-1,-5,-44
5345,5,8,0,-1,7,3,3,35
5350,26,3,46,24,-13,-4,-2,-13
5355,16,-6,-69,-63,-10,-5,-3,-5
5360,-14,4,32,12,-1,0,1,-24
5365,12,11,10,-11,3,-3,-3,19
5370,-20,-26,-32,4,-1,1,0,0
5375,29,15,29,5,-8,-2,5,7
5380,7,-3,-5,42,6,0,-4,-9
5385,-38,4,-18,-90,3,4,2,-5
5390,-11,13,31,117,19,-1,-8,-19
5395,-1,8,-15,-98,-12,-3,4,-3
5400,18,-4,6,9,-18,-6,-5,7
5405,7,-7,15,28,16,6,-1,-16
5410,-12,26,-22,-3,-10,-5,0,6
5415,-13,-44,-3,-54,9,7,4,-9
5420,31,0,-2,26,-10,-5,0,31
5425,-30,6,6,-40,0,-5,-4,-14
5430,-21,-8,-7,-22,0,1,1,-12
5435,19,16,-20,5,-9,-3,2,3
5440,-5,-1,5,-13,8,0,-21,-14
5445,51,-13,-9,-6,-7,-2,12,-4
5450,-4,24,5,26,24,1,-3,-19
5455,-16,-23,-7,16,-9,-6,1,24
5460,41,12,5,-13,5,5,6,44
5465,-22,-29,4,9,-4,-2,-9,-16
5470,-10,13,-4,45,25,2,-5,-12
5475,-5,21,31,-33,-31,0,-8,10
5480,35,-3,-1,-30,-13,-8,0,-12
5485,-4,1,-17,-52,-5,0,8,16
5490,-1,2,23,23,-23,-2,-1,16
5495,1,1,-14,17,43,13,4,-11
5500,-6,-22,-5,24,-19,-10,-4,8
5505,2,27,19,38,2,7,1,-6
5510,16,-12,-12,-40,-12,-3,-2,-15
5515,20,17,1,21,18,2,-2,0
5520,-4,-9,-11,-73,-1,3,5,-12
5525,-3,-22,-7,24,2,-6,-5,9
5530,3,-19,-12,4,-4,-2,0,19
5535,-7,-6,13,36,4,-1,-1,0
5540,12,28,-9,-6,-2,0,5,-5
5545,0,-22,6,-9,-6,-2,-1,9
5550,-6,-16,-2,41,6,2,-5,-11
5555,4,-1,5,14,-6,-5,-4,-2
5560,-40,2,-4,-30,0,1,3,-2
5565,-20,41,-5,11,3,3,-5,-6
5570,4,8,-3,17,-1,-2,1,4
5575,-7,10,10,15,-1,-1,-2,-12
5580,-7,-25,-19,-40,-6,-5,-8,-9
5585,35,13,23,68,0,-3,6,4
5590,-46,9,-21,-103,1,2,2,10
5595,43,11,-11,23,-5,-2,1,-6
5600,-17,-8,-6,31,17,5,-4,-5
5605,-6,-2,8,-83,-22,-3,1,4
5610,0,-9,21,80,3,-4,-8,-19
5615,12,3,-23,-89,-9,-3,-1,7
5620,-5,-61,0,48,6,6,9,9
5625,-24,24,-8,5,-7,-3,-13,-39
5630,28,-21,-2,-37,-3,2,12,55
5635,-17,-1,15,43,21,5,-6,-15
5640,13,-20,-3,-45,-35,-8,-6,-10
5645,23,-2,3,20,9,5,13,38
5650,-12,-15,-10,13,-4,1,-3,-25
5655,-4,14,16,-45,-14,-3,0,3
5660,7,16,-13,58,15,1,0,1
5665,0,-18,1,45,7,-5,-13,-21
5670,-11,20,-12,-7,-4,2,1,3
5675,21,-10,-34,-20,-17,3,8,5
5680,30,34,12,45,14,2,-1,-6
5685,-49,-14,-5,-21,-10,-6,-3,-1
5690,-3,-2,2,38,13,-2,-3,-11
5695,-11,8,13,4,16,6,3,4
5700,-6,11,-10,-63,-20,-3,0,4
5705,-2,-8,-6,53,10,-2,-1,-11
5710,5,3,12,-93,-11,1,1,27
5715,12,5,-2,5,-5,-6,-6,-27
5720,-8,5,11,0,5,4,-1,23
5725,20,0,-9,1,8,3,6,-1
5730,-7,-28,-3,0,-3,-1,-2,-21
5735,18,13,-12,-49,-24,-10,-6,5
5740,58,14,17,27,6,5,12,28
5745,-39,-2,-5,-8,3,-2,-6,-14
5750,8,8,1,-53,-5,0,1,-15
5755,-11,-3,3,55,9,-5,-4,-3
5760,-14,-6,-6,-6,-1,-2,-2,-18
5765,28,-3,-2,-3,-11,-1,-1,10
5770,-66,-3,2,-34,-5,-2,-1,-23
5775,-11,-8,1,0,-3,4,1,0
5780,-25,51,18,95,25,0,-1,-7
5785,-2,-16,-10,-128,-37,-10,-3,3
5790,6,-10,-26,98,19,-2,-6,-11
5795,-24,12,13,-41,-13,0,3,-3
5800,19,-32,-14,-14,-7,4,2,4
5805,56,41,1,-10,14,2,-5,8
5810,-6,-9,20,3,-3,1,21,-1
5815,-24,1,-1,34,9,4,4,12
5820,9,-11,-7,-39,-7,-2,-11,-15
5825,11,10,-18,-18,2,0,5,-1
5830,10,23,11,-13,-19,-3,-9,-11
5835,36,-22,15,80,20,-1,2,-21
5840,-50,24,-17,-41,1,-4,-3,24
5845,15,-16,4,3,-17,0,2,33
5850,26,5,2,-20,13,0,-3,5
5855,-24,-6,-7,-1,-16,-5,-3,-2
5860,15,-17,8,45,6,0,-3,-14
5865,-38,12,11,-65,2,3,1,-9
5870,-4,6,10,75,0,0,1,4
5875,-8,18,-19,7,-7,0,-4,8
5880,-17,-50,-18,-94,-9,-10,0,-15
5885,-7,8,9,74,17,5,1,0
5890,7,-17,-18,1,-22,-7,-7,-5
5895,-8,4,-2,-45,3,0,-1,-4
5900,43,27,-8,-17,-3,-3,4,5
5905,-1,-28,-11,46,4,0,-1,-26
5910,23,10,-11,-104,-16,-7,-4,29
5915,16,-10,13,68,4,1,-1,-13
5920,-10,6,1,-7,4,1,4,1
5925,0,-9,12,13,5,2,-1,-6
5930,39,-20,6,32,7,1,-3,-24
5935,-23,-8,-11,-31,-16,-1,1,24
5940,-18,-41,-12,34,6,-1,-2,-18
5945,1,3,2,-20,-10,-3,-2,-2
5950,-7,-7,11,94,26,3,1,7
5955,9,-6,-4,-50,-7,-1,-6,-4
5960,-57,21,-9,-84,-15,-5,-4,-24
5965,50,0,21,92,3,-4,-3,36
5970,0,13,-42,-42,-8,1,3,2
5975,-33,-1,18,23,8,3,0,-6
5980,3,29,27,53,-6,-3,-3,8
5985,17,9,-5,25,-1,5,3,-8
5990,-19,-30,-10,-64,-8,-3,-9,-8
5995,-1,-1,0,3,14,-3,4,10
6000,-1,45,12,41,1,-1,-8,-43
6005,-23,-57,2,26,3,2,5,49
6010,-15,17,-2,20,1,0,1,-13
6015,15,-2,-2,-47,-5,0,-2,-4
6020,2,-6,2,7,8,1,-3,-3
6025,-20,4,-25,-35,-13,0,6,-16
6030,0,12,15,19,8,3,0,1
6035,45,-13,-3,12,1,-3,-4,2
6040,-71,-26,-1,-52,-4,-2,-1,-9
6045,27,23,2,25,0,-4,-8,-7
6050,-26,-16,-7,-88,-8,-5,-1,-6
6055,-28,12,8,34,0,-4,-2,-14
6060,30,3,-4,55,5,8,3,25
6065,-10,-12,-7,-82,-9,-1,2,-11
6070,-4,12,28,54,-11,-4,-3,13
6075,17,48,-11,0,15,2,1,1
6080,5,-73,-4,-98,-45,-8,-2,2
6085,-16,-4,9,34,21,3,-3,-8
6090,23,21,-1,13,4,2,4,0
6095,-9,-8,3,-12,-19,-5,-4,1
6100,8,5,-3,41,11,3,3,1
6105,7,3,-29,-52,-7,-4,-3,-9
6110,49,-24,8,51,13,2,5,26
6115,14,15,-4,-59,-8,-1,2,-4
6120,7,8,2,71,24,1,1,6
6125,-16,-10,13,18,-13,-5,-5,-5
6130,4,5,-9,-50,6,4,-2,-25
6135,-16,-18,4,41,14,4,1,19
6140,5,1,2,-18,-3,0,1,6
6145,-20,23,-11,-3,10,-3,0,-12
6150,-10,-8,-3,30,-25,-9,-6,-2
6155,-24,-14,8,-49,-4,-2,2,-8
6160,-14,3,8,-6,3,-1,0,-3
6165,-11,-8,0,7,13,2,0,16
6170,-12,6,3,50,9,1,0,-3
6175,-6,-3,2,73,-6,0,-4,-1
6180,67,21,-14,-75,-28,-5,6,21
6185,-45,-18,-4,34,-1,-1,0,-17
6190,8,10,1,-40,0,2,0,5
6195,9,-6,-1,15,3,2,2,0
6200,30,-13,0,28,8,5,-2,6
6205,-1,51,-14,-81,-16,-1,-2,-12
6210,-2,6,21,51,12,0,6,14
6215,-12,-20,-10,3,7,-2,-10,-6
6220,-27,15,2,0,-6,-5,1,-2
6225,23,-39,13,41,-3,-1,-4,-1
6230,65,70,5,-20,4,3,0,2
6235,11,10,-13,-35,-12,-5,-1,-5
6240,-9,0,12,64,14,1,-4,-6
6245,11,-4,-19,-1,0,-1,2,-4
6250,-4,-23,-6,37,-2,-7,-8,-7
6255,35,11,5,-50,5,4,9,27
6260,16,-24,3,-19,-2,0,-1,-15
6265,-23,23,6,-12,2,1,0,-3
6270,15,-5,-15,-30,-6,-1,6,8
6275,-35,-29,8,43,13,2,-3,-7
6280,-25,-15,-13,43,-7,-16,-12,-7
6285,8,1,5,-45,-3,-1,4,-9
6290,-29,-26,-8,-14,-17,6,-1,43
6295,-13,6,0,32,18,3,6,-19
6300,10,27,16,1,3,0,1,16
6305,-72,-24,3,42,-7,-7,-12,-11
6310,-29,-8,-18,-16,-2,-2,4,-9
6315,-40,8,5,-6,0,1,2,6
6320,3,-2,-19,11,2,1,3,1
6325,31,11,9,-2,6,1,-1,6
6330,-22,-15,6,17,13,4,-5,-18
6335,52,-4,-26,24,-5,-4,-3,-21
6340,-54,17,-5,-56,-2,-1,-1,31
6345,26,0,15,68,10,-2,-1,-2
6350,-14,1,-10,-9,-2,-1,-5,-9
6355,24,-7,5,33,17,1,0,-2
6360,1,-27,4,-28,-29,-5,-3,-9
6365,19,13,-7,3,6,0,2,-3
6370,-10,-6,5,-43,-6,-1,-1,-8
6375,-59,3,-2,26,-9,-4,-8,-3
6380,-3,1,6,20,18,6,0,-19
6385,-12,-5,-4,35,-1,1,9,26
6390,39,3,-4,-64,-16,-9,-8,-29
6395,-13,2,13,44,5,0,0,13
6400,55,-35,2,29,4,4,2,24
6405,-2,21,-14,-83,8,-2,-3,-26
6410,-6,-12,2,90,6,4,3,11
6415,-4,-5,-9,-74,-30,-9,-9,-8
6420,-11,5,5,-4,2,0,-3,-7
6425,26,1,18,62,12,5,-1,14
6430,-53,-13,-13,-94,-14,-5,4,-45
6435,28,-20,7,-4,-7,-4,-2,61
6440,2,9,-1,92,15,-1,-4,-9
6445,-63,-11,-10,-78,-18,-1,3,4
6450,14,-2,2,7,-3,-2,-4,-6
6455,4,4,-2,9,12,7,6,-20
6460,-2,15,-3,-55,-30,-10,-5,2
6465,18,-24,-5,33,4,-3,-2,3
6470,-25,3,-2,27,3,1,-5,7
6475,10,13,7,-23,-3,-2,1,-8
6480,41,22,-8,41,20,6,1,-2
6485,4,-32,3,-74,-35,-6,-3,-6
6490,14,28,19,92,17,2,3,10
6495,35,0,1,43,-1,2,0,-1
6500,-16,-1,-6,11,3,1,0,-26
6505,11,8,-16,-45,-3,0,-2,14
6510,22,-12,10,23,19,-3,-3,3
6515,-45,24,14,44,-9,-2,-4,-7
6520,-4,-24,-14,-80,-6,2,6,-8
6525,13,-5,-15,-27,-4,4,8,23
6530,7,-6,-4,4,1,0,-2,15
6535,1,5,11,48,-8,-6,-7,-24
6540,0,-3,0,-20,4,0,-2,6
6545,-53,-33,3,36,3,-4,-8,-35
6550,27,10,-15,-48,-17,3,11,32
6555,11,-6,-7,6,11,2,0,9
6560,-24,7,6,47,-12,-4,-5,-2
6565,53,26,3,-15,15,-5,-7,0
6570,-24,-14,-1,23,11,1,-1,-11
6575,10,-26,1,-26,-10,-3,-1,-33
6580,-49,10,5,-4,5,2,6,54
6585,-4,-7,7,-15,1,6,-1,-4
6590,-3,-15,-28,-95,-19,-8,-6,-5
6595,-7,22,6,33,-1,-3,-1,-4
6600,-22,-17,2,-61,4,3,0,-23
6605,11,0,8,65,-1,-5,-2,2
6610,-21,3,-10,-46,1,2,-1,-1
6615,8,-5,1,-11,9,7,6,14
6620,13,-6,4,47,-19,-6,-4,-37
6625,-15,21,-2,35,4,-2,0,26
6630,12,2,9,61,6,0,4,-8
6635,-31,8,-14,2,0,-3,-8,-17
6640,53,6,-3,-5,8,2,3,5
6645,-18,-24,-7,13,0,3,0,-12
6650,21,-7,4,-17,-9,0,-4,0
6655,-35,7,-9,-25,6,1,4,8
6660,9,9,0,66,24,3,-1,-9
6665,55,8,-15,-82,-47,-9,-3,-5
6670,-17,-29,-10,18,3,-5,-4,4
6675,6,-10,-3,-37,-5,2,2,-2
6680,3,2,0,36,10,3,0,7
6685,7,7,10,-4,8,-6,-4,-1
6690,3,18,6,61,0,-2,-5,-17
6695,57,-21,-39,-77,-15,-1,0,28
6700,-37,2,5,-25,-6,0,4,5
6705,-3,0,-10,17,7,4,1,-4
6710,4,7,7,-9,2,0,2,-21
6715,-34,-44,2,64,-6,-6,-6,4
6720,20,-5,-11,-81,-10,-3,-1,0
6725,-5,-10,-6,61,3,-6,-5,-9
6730,1,-10,-3,-6,3,2,0,-9
6735,-44,32,0,3,-6,-1,6,11
6740,-8,-5,10,9,5,-1,-6,-19
6745,-7,5,-4,-18,-7,0,2,-4
6750,-23,4,8,-12,11,3,0,-8
6755,40,16,8,-8,8,1,-4,13
6760,-36,-11,12,77,6,-7,-4,-13
6765,12,18,-11,-71,1,7,3,-1
6770,-42,2,-4,20,1,-6,-7,-10
6775,20,-4,-5,-69,-17,-2,-1,-12
6780,-3,2,-8,-22,1,-2,-1,9
6785,-17,-4,17,70,16,3,-1,-9
6790,26,16,-6,-10,-4,2,3,6
6795,8,-25,-1,-7,-8,-2,1,-2
6800,-25,5,-22,-6,-10,-1,0,2
6805,-43,-8,15,-54,10,-5,-6,-1
6810,-6,-17,-8,18,-10,0,-3,7
6815,-6,2,6,13,17,7,1,-2
6820,15,4,-3,-26,-10,-3,2,-6
6825,23,-3,-5,15,-6,2,4,0
6830,-4,-28,2,-9,2,0,1,4
6835,-43,-27,-8,-31,-1,-4,-5,-14
6840,-60,4,10,32,-1,-1,-3,3
6845,36,11,10,-9,3,0,-3,-18
6850,27,-7,-10,-41,-8,-4,2,32
6855,6,34,7,43,4,2,2,7
6860,17,-7,-14,-88,-13,-1,2,-4
6865,-19,-7,-4,52,4,0,-1,4
6870,-27,8,6,-66,-5,-1,-2,1
6875,21,10,2,61,8,-3,-4,-18
6880,17,0,-1,-54,2,3,-1,7
6885,7,-1,11,-2,-5,5,4,13
6890,-16,-23,-19,-12,-17,-5,-5,-19
6895,3,3,-1,-15,0,-1,4,34
6900,-56,27,-2,35,8,2,1,-8
6905,0,2,0,5,-1,-6,-6,-2
6910,-1,16,22,2,1,2,-3,-9
6915,-4,-17,-13,-19,-3,-4,-14,-23
6920,-8,15,8,28,-2,-2,8,20
6925,-15,1,-9,-7,-4,-1,0,4
6930,-1,18,4,37,6,-3,-3,4
6935,5,8,-3,-22,-10,-3,-1,-3
6940,35,-8,5,0,4,2,2,-15
6945,2,12,2,28,7,2,1,6
6950,25,-7,-5,-8,0,-2,0,5
6955,4,-6,-7,-6,-9,6,6,-9
6960,22,-12,3,-67,5,-4,-11,-10
6965,-12,-6,-3,42,-13,-4,0,5
6970,14,1,3,29,-6,-1,-4,-3
6975,5,4,14,51,14,-1,1,3
6980,6,-8,-9,-92,-10,0,0,-2
6985,13,-5,-2,26,5,2,3,6
6990,-51,9,16,-1,5,5,4,3
6995,-12,-2,-11,-48,-6,-5,-2,-4
7000,20,0,24,109,3,0,0,3
7005,-3,-12,-44,-31,-5,-2,-7,-14
7010,28,5,30,57,14,-1,3,9
7015,-77,-18,16,4,4,2,-6,-20
7020,-13,18,-11,2,-5,1,3,6
7025,36,10,-10,-39,-4,-2,2,7
7030,13,-9,-24,12,0,0,2,3
7035,19,11,0,-1,7,-5,-6,-5
7040,5,-4,-5,-4,-7,-3,-3,4
7045,-15,-4,6,-8,-2,2,3,-2
7050,5,8,-6,15,1,-1,2,0
7055,14,3,9,-27,-1,-1,3,3
7060,21,-5,-1,-9,-18,1,0,3
7065,-52,-5,-13,-70,-6,-6,-3,-2
7070,2,13,4,-4,-11,-3,-1,-5
7075,4,-33,-11,47,3,1,0,4
7080,-1,3,-4,-23,0,0,-2,-11
7085,18,5,19,77,4,-3,1,27
7090,-1,-14,2,-13,1,5,1,-4
7095,-56,37,-4,0,-13,-9,-4,-2
7100,25,12,0,-15,8,-2,3,-8
7105,5,0,-2,13,0,3,-9,16
7110,-9,-20,-10,-6,-7,-7,0,-9
7115,56,3,6,-3,-11,2,1,11
7120,-29,-4,-4,40,9,2,-1,-7
7125,-4,-4,-4,-68,-13,-2,1,-5
7130,48,7,9,41,8,-2,-6,9
7135,5,1,0,-43,-5,0,4,-19
7140,15,1,1,22,-4,-5,-4,19
7145,-1,-2,3,27,11,2,1,-25
7150,7,0,1,-33,-20,-2,-1,7
7155,-15,22,-5,13,2,-2,-2,-4
7160,13,-47,0,-30,-2,1,3,-8
7165,1,-3,12,61,24,2,1,0
7170,-22,10,3,-1,-4,-1,-1,-7
7175,11,17,-5,-4,9,4,3,5
7180,48,-1,9,20,-7,-10,-8,0
7185,-30,-2,-1,1,-4,0,3,-3
7190,-3,5,3,7,4,6,6,4
7195,0,3,-7,-60,2,-4,-2,0
7200,4,-4,-9,-7,-23,-7,-5,3
7205,-13,-5,-1,4,0,2,-2,-9
7210,60,43,18,-6,12,3,4,14
7215,29,-19,10,43,1,4,5,27
7220,-42,5,-23,-55,-6,-8,-7,-15
7225,-2,8,13,10,-9,-8,-6,-13
7230,-22,-18,-24,-20,-1,2,-2,-10
7235,-5,-4,4,2,7,4,4,2
7240,0,18,8,5,-13,-4,-2,-2
7245,5,-1,0,-50,1,0,1,2
7250,-13,-3,-1,10,-1,-3,-3,-2
7255,0,-7,-10,59,3,-1,-1,-10
7260,-13,1,4,-34,6,4,4,3
7265,39,-26,-12,-17,-5,1,3,2
7270,-31,16,2,20,6,2,0,-4
7275,-24,-53,-3,-10,-22,-12,-10,0
7280,-18,-11,1,55,12,4,1,11
7285,14,-1,-5,36,0,-2,2,3
7290,-12,-5,-8,-25,-5,-3,-4,-22
7295,22,9,4,0,1,9,7,32
7300,-12,9,-17,1,-2,-4,-1,-4
7305,-13,-2,-2,-24,1,0,-3,-4
7310,4,-5,-1,29,6,-3,-2,-11
7315,-16,-7,10,0,2,-1,-1,-15
7320,3,23,3,8,4,6,4,26
7325,24,-11,-3,36,3,1,3,5
7330,-8,8,-13,-55,-14,-4,-4,2
7335,11,4,-4,-35,4,3,2,-5
7340,-1,-3,19,114,5,-3,-4,-4
7345,-6,3,-3,-83,-13,-1,-3,-17
7350,5,-33,-11,44,4,-3,0,22
7355,-29,-15,3,11,8,-1,-3,3
7360,-5,-3,-20,-45,0,1,1,-2
7365,-10,27,10,5,-9,-3,-4,-8
7370,-25,-13,-21,-6,-1,-3,-1,-8
7375,29,17,2,-20,3,1,-1,-16
7380,5,-8,6,48,6,-1,-1,15
7385,21,-9,2,-75,1,-1,0,2
7390,-49,2,-14,24,-1,-4,-6,-23
7395,29,5,0,26,-8,-2,-1,40
7400,5,-10,1,-15,4,4,3,-12
7405,12,11,9,34,2,0,3,-19
7410,18,-17,-12,-14,-2,2,3,70
7415,-69,6,1,34,4,-5,-4,-31
7420,-2,-27,14,2,5,3,-2,-9
7425,1,-2,-7,33,-17,-4,-1,15
7430,18,6,11,-15,1,3,1,-14
7435,6,-4,-6,-3,-1,2,2,-8
7440,2,0,-18,13,0,-6,-3,9
7445,-27,5,-2,0,-9,0,-1,-13
7450,-13,-18,6,46,7,1,-1,-9
7455,26,18,8,49,-6,-4,-4,-4
7460,-8,3,-4,0,4,-1,-4,-15
7465,2,-8,-12,4,7,-2,-4,-1
7470,-2,15,9,-35,-24,-4,0,6
7475,7,-21,-5,-32,-5,3,6,7
7480,-10,-1,5,-26,2,-3,-5,-9
7485,28,19,15,43,15,4,4,-7
7490,-6,3,-10,-39,0,-1,0,24
7495,-8,-5,-4,12,-7,-6,-8,-17
7500,31,-14,-4,33,5,5,6,-2
7505,19,7,15,-35,-9,-1,3,0
7510,-7,-8,-22,-9,1,0,-4,-39
7515,12,-4,15,43,7,2,2,27
7520,2,13,0,-14,-2,0,-1,5
7525,-16,-7,-4,-10,6,2,-4,-7
7530,32,4,20,19,-5,0,1,4
7535,-45,-6,-7,-13,-10,-5,-4,-7
7540,-9,12,8,-48,1,4,1,-26
7545,-13,-9,-14,4,-2,-1,-1,32
7550,2,-4,2,-11,0,-3,-4,-8
7555,4,3,-3,-48,-3,-2,1,-5
7560,-4,5,8,-2,-1,-4,-2,-1
7565,-3,2,2,20,-2,2,0,2
7570,-16,2,-13,-36,0,-1,1,-2
7575,21,2,12,11,2,-4,-3,-1
7580,-1,0,8,24,-4,0,0,5
7585,9,-1,-16,-23,8,1,-1,3
7590,-1,-31,-7,6,-8,-5,-6,-8
7595,0,27,15,2,7,4,3,-5
7600,-58,-51,-19,-19,-4,-4,-6,-39
7605,28,17,0,23,0,-4,-1,67
7610,15,-4,4,-29,6,2,2,-12
7615,-5,-13,-12,37,-8,-2,-2,-19
7620,11,3,-8,-15,-2,-3,-5,11
7625,-18,-5,3,29,-2,-3,-5,-17
7630,-1,6,9,1,7,4,1,-3
7635,12,1,-22,-119,-10,2,3,0
7640,27,12,11,37,-4,2,3,38
7645,-66,-40,-4,41,3,-8,-9,-31
7650,-6,16,-3,21,4,-1,2,4
7655,4,0,4,-22,10,4,0,-5
7660,5,7,-8,-29,-5,-1,-1,0
7665,1,3,7,-7,-3,-3,0,0
7670,-1,10,20,62,13,-1,-7,-8
7675,-14,0,-16,-20,-8,-3,-4,-2
7680,-11,-29,-12,-11,-6,2,-1,3
7685,-3,4,12,-17,-3,2,1,-5
7690,16,3,4,15,2,-6,-3,-3
7695,19,-4,-5,-1,3,0,-6,2
7700,12,17,12,-1,6,1,2,2
7705,-44,0,-9,5,2,6,1,-30
7710,20,20,22,51,-6,-2,0,38
7715,-10,-29,-18,-34,0,-2,1,8
7720,3,9,0,26,8,-1,1,-30
7725,33,14,-7,9,3,-2,-2,1
7730,-24,10,-10,-14,-3,8,1,19
7735,-15,15,12,1,-1,-3,-4,29
7740,-11,26,-5,12,-15,-3,2,-1
7745,11,-25,0,4,7,-1,-3,-14
7750,10,-11,4,-57,-11,-6,-4,-9
7755,7,10,11,51,17,3,-1,2
7760,-31,10,-1,-18,-8,-7,-3,-7
7765,7,0,-5,-17,0,0,0,-6
7770,-25,-3,-4,-2,0,1,-1,-3
7775,2,4,-6,2,-3,-3,-1,25
7780,38,-23,4,46,0,-3,-1,6
7785,57,14,7,-5,-2,2,2,-12
7790,-88,7,-2,-19,-8,2,1,-12
7795,23,-37,17,54,8,-7,-5,-23
7800,-3,1,-8,-24,1,-4,-6,11
7805,-4,-14,-15,-14,0,-1,1,5
7810,27,8,-9,-35,-5,3,4,-7
7815,-12,6,6,34,-3,0,-2,-7
7820,-8,-6,-14,-39,-8,-5,-4,-6
7825,-23,9,-7,60,-2,-6,-7,-9
7830,8,-21,2,-29,-2,3,0,-12
7835,-41,20,-5,39,-6,-4,1,5
7840,9,13,17,35,7,4,-3,-7
7845,-33,2,-7,-57,-6,1,-1,1
7850,12,-8,0,5,3,-4,-2,-4
7855,-37,6,1,-4,-16,-2,-2,-4
7860,52,-7,-12,-40,2,0,-1,1
7865,9,-1,4,9,1,1,4,15
7870,1,-2,8,30,5,-2,-3,-15
7875,42,11,3,-22,10,6,4,30
7880,-46,-12,-16,-42,-12,-1,1,-24
7885,13,-1,4,27,-5,-2,1,45
7890,46,3,2,39,6,-5,-4,-2
7895,46,-17,-4,-18,-2,1,-5,-37
7900,-44,-1,3,21,9,4,0,24
7905,17,-7,-1,-34,-10,0,4,1
7910,-25,48,0,34,0,-4,-1,-3
7915,40,14,6,-9,0,0,-1,-5
7920,8,-1,-18,29,-6,-3,-3,2
7925,-12,-15,1,-53,-5,-7,-5,-12
7930,25,-16,7,34,7,4,3,12
7935,-30,4,-2,6,1,1,2,-12
7940,38,-6,-2,-3,6,1,-1,2
7945,-2,10,1,16,-7,-5,-1,4
7950,8,-10,-10,-66,-4,-1,0,-6
7955,-10,-3,-7,-12,-6,-5,-7,-4
7960,-10,-2,6,5,0,0,0,-16
7965,17,-26,2,13,3,1,4,26
7970,-44,-1,-4,-30,-2,-1,-3,-18
7975,6,15,-3,22,-4,-1,3,7
7980,-7,-10,9,19,7,1,0,29
7985,2,0,-5,15,2,-3,-6,-23
7990,8,-3,1,-22,0,-2,0,7
7995,-1,14,0,-2,0,1,-1,-11
8000,4,8,5,17,-4,-3,-1,-6
8005,7,4,-6,-25,-10,-1,-5,-1
8010,-33,-11,-9,52,3,0,0,2
8015,4,-11,-3,-78,-4,1,0,-9
8020,17,5,13,32,0,0,1,9
8025,-10,-17,-14,18,4,0,-4,-6
8030,25,-7,-6,-45,-13,-5,-1,-5
8035,4,-12,4,40,8,0,-1,0
8040,-15,14,1,-9,4,3,3,5
8045,-27,-27,-5,-9,-11,-5,-4,-10
8050,16,1,8,23,3,-1,-3,2
8055,-4,-4,-2,26,0,-2,0,-3
8060,5,-5,-1,-29,1,-1,-1,2
8065,-10,19,5,26,1,0,1,-6
8070,3,-20,-4,-41,-3,0,-1,-3
8075,-3,-8,-1,7,3,-2,1,5
8080,-40,10,0,30,5,0,-3,-11
8085,2,5,-4,9,2,1,0,0
8090,1,17,4,2,-2,2,-3,-2
8095,16,7,-7,-35,-1,4,0,-7
8100,42,-19,3,11,-6,-6,-6,9
8105,-10,21,9,30,0,3,3,-1
8110,3,2,0,23,9,1,2,0
8115,-1,-7,-11,-80,-29,-9,-6,-13
8120,30,16,1,-9,-1,1,-1,2
8125,-27,-20,4,10,9,1,-1,-5
8130,20,8,6,31,-4,-2,-6,13
8135,-15,-13,-12,-15,3,0,0,-35
8140,-5,9,-2,4,-2,2,9,35
8145,9,28,-6,-33,-8,-5,-7,-7
8150,-27,-16,-2,-8,7,0,1,-3
8155,1,-13,12,91,12,-1,-3,4
8160,-81,18,-7,-50,-11,-4,-2,-11
8165,25,-3,1,-10,9,2,0,3
8170,5,-11,-4,6,3,2,0,0
8175,-14,11,2,-86,-18,-6,-4,2
8180,14,-16,2,36,14,-4,-2,6
8185,-5,3,-1,-47,-9,2,-3,-6
8190,-6,13,-2,-12,-1,1,6,-5
8195,25,-32,1,26,2,0,0,11
8200,-53,4,-1,8,10,-3,-6,-43
8205,-14,-22,3,-31,-7,-3,-4,19
8210,14,-7,-8,38,-2,2,4,15
8215,-28,4,-2,-34,2,4,3,-4
8220,32,-7,8,16,1,2,-2,34
8225,-24,12,-13,-13,-2,-5,-2,-19
8230,-20,-8,10,-7,0,-1,1,-3
8235,-8,2,-7,42,3,-4,-4,11
8240,-9,44,-3,-32,-6,2,-1,-21
8245,0,-2,4,32,7,3,1,-2
8250,4,-1,-4,29,-3,-2,0,12
8255,-8,10,6,25,0,-1,-4,-3
8260,18,-16,-14,-45,-14,-1,-2,-17
8265,22,15,16,15,-2,-1,4,23
8270,10,-1,-11,-21,-11,-3,-5,-13
8275,-13,21,-2,31,12,3,-1,5
8280,2,-13,4,31,6,0,2,-4
8285,33,34,4,-8,0,-1,-2,-16
8290,-25,-11,1,-5,-2,0,-2,-14
8295,-4,17,2,5,-6,-1,2,36
8300,40,-3,0,20,-2,-3,-2,-16
8305,-20,-4,0,-43,4,-4,-3,-5
8310,0,19,3,-9,-8,-5,-3,-7
8315,-6,-11,0,-6,-1,0,0,-3
8320,13,-4,2,10,0,-3,-3,-26
8325,1,-11,-2,0,-8,0,1,20
8330,-3,-28,-2,5,-1,-2,-3,3
8335,3,25,5,-28,-4,0,2,0
8340,36,-1,-3,15,16,1,3,3
8345,2,-7,-3,61,-2,-2,-1,-6
8350,-6,2,3,-20,1,1,-2,11
8355,4,-4,-6,-22,0,-3,0,-17
8360,35,4,0,27,1,-2,-2,10
8365,-34,-36,-7,-12,6,1,0,-5
8370,26,17,2,-3,-2,2,0,-3
8375,12,-13,-34,-6,0,-2,-3,-4
8380,-17,11,8,16,-3,-1,0,-26
8385,16,-22,2,-35,2,-6,-4,63
8390,-4,2,3,15,3,-1,-2,-11
8395,-8,-8,-8,-6,-7,-4,0,-9
8400,-31,-6,-2,-45,-10,0,4,22
8405,12,8,7,51,12,6,1,-18
8410,-14,0,0,-21,-12,-9,-7,-5
8415,8,-15,10,9,9,6,5,8
8420,-25,-5,-9,1,-2,-2,-6,-12
8425,-6,11,1,-7,-9,-4,-1,-10
8430,34,1,-4,-40,-4,4,1,18
8435,-8,-4,15,69,14,3,2,-39
8440,-6,-16,-12,-91,-22,-5,-5,64
8445,-7,-4,-8,-9,-1,0,-2,-20
8450,9,-8,-1,37,4,0,1,2
8455,45,12,5,16,-1,0,-3,11
8460,-55,-9,8,7,5,-1,-3,-36
8465,-7,25,-19,-15,6,2,-2,7
8470,12,22,-4,-13,-8,-9,-1,-17
8475,-28,-9,-5,13,-4,-7,-6,9
8480,15,-16,-7,-7,-3,-1,-2,-5
8485,-4,-4,-2,-24,-3,4,0,-14
8490,-45,-4,3,37,18,3,-5,-30
8495,10,36,4,-4,-11,-1,0,16
8500,6,12,0,-26,-13,-2,2,-2
8505,29,8,9,45,4,2,3,0
8510,-1,-11,-14,-40,-8,-3,-1,3
8515,18,6,1,-19,-5,2,3,18
8520,-53,-11,4,16,8,0,-2,-3
8525,13,-1,-2,28,0,-1,-1,-6
8530,-7,-9,8,-32,-5,-3,-5,3
8535,12,-36,9,62,14,-2,1,-1
8540,-13,7,-16,-32,-6,5,8,15
8545,36,8,5,78,28,3,-1,-3
8550,-5,3,-13,-95,-34,-6,2,11
8555,-25,-13,-6,58,-3,-4,-9,-19
8560,34,-6,13,38,19,3,1,1
8565,43,43,-4,-1,-7,-3,-5,-7
8570,-5,-4,5,53,5,2,1,-25
8575,-15,6,-11,-32,-4,-1,-1,8
8580,36,-1,7,10,-3,1,6,17
8585,-43,-19,-4,-33,-15,-4,-2,-8
8590,-4,0,11,3,7,0,-3,4
8595,-6,-1,1,17,6,-2,-3,-13
8600,-36,-6,-19,-34,-13,-5,-6,-29
8605,-17,3,4,-111,-22,-5,-2,2
8610,-13,-25,5,43,7,5,5,10
8615,2,-30,2,-45,-2,5,8,-34
8620,24,13,4,50,15,2,-3,38
8625,-36,-26,-1,25,-12,-7,-1,-6
8630,-32,-2,-9,0,6,-1,-3,15
8635,-49,10,10,-21,-10,-4,-3,-20
8640,23,15,-3,25,12,0,-3,-21
8645,-12,-10,-11,24,-12,0,3,7
8650,20,6,8,-7,11,4,0,13
8655,-9,-2,-14,-3,2,3,3,12
8660,-12,4,10,36,-8,-10,-8,-10
8665,3,-6,0,8,1,0,-2,-11
8670,8,9,-7,11,11,-2,-2,-8
8675,42,-2,-5,-35,-14,-2,-4,9
8680,-7,9,4,-1,1,1,0,-2
8685,8,-14,-14,-79,-2,-5,0,-3
8690,9,-26,3,53,-5,-5,-1,21
8695,4,16,3,-11,6,2,-2,6
8700,29,-6,-1,1,-7,-3,3,0
8705,-53,-16,-6,5,3,0,-3,-7
8710,24,13,-2,26,-5,-2,2,-2
8715,-46,12,2,8,-3,-4,-3,8
8720,27,-6,-4,-29,-6,4,1,-4
8725,-15,10,13,49,22,3,2,-20
8730,1,-36,-22,-26,-19,-12,-10,-9
8735,-2,13,7,5,0,1,-1,-4
8740,-13,-12,-7,-20,2,1,0,-5
8745,16,-9,-2,12,0,1,2,7
8750,-16,63,9,21,-1,-1,-4,-7
8755,25,-14,10,42,12,0,-1,-9
8760,0,-16,-13,-30,-9,-4,-3,22
8765,-35,18,5,17,0,0,0,-11
8770,22,1,4,7,6,1,1,-12
8775,36,-1,-1,-22,-6,-3,-1,44
8780,-71,-2,1,10,11,1,-4,-9
8785,1,-16,2,17,10,-2,0,-4
8790,13,8,-1,-28,-9,-2,4,-5
8795,9,6,-4,8,3,-3,-6,-13
8800,3,-19,0,-3,1,-1,-1,-6
8805,25,8,-13,-49,-2,-2,-3,16
8810,-12,-4,-2,-48,-1,4,1,-7
8815,5,-2,-4,18,-27,-4,-1,5
8820,7,-3,7,3,-3,-1,-3,-1
8825,10,2,-4,19,1,2,4,-2
8830,3,-1,5,45,6,-1,-2,8
8835,-17,-9,-6,-80,-13,-3,-1,-13
8840,18,3,-2,24,2,-2,-1,-10
8845,-13,-30,-3,28,-2,-1,4,24
8850,-18,1,-2,-58,0,4,2,4
8855,-15,5,1,52,1,-4,-1,-2
8860,52,21,0,11,-1,0,-2,-7
8865,-20,-48,2,4,6,-1,-3,4
8870,-4,-5,8,-40,-18,-1,-1,6
8875,3,3,1,24,24,1,0,-14
8880,-3,1,1,-34,-10,-3,-5,7
8885,18,17,4,3,-11,-1,-5,-6
8890,1,-4,-1,14,10,2,3,-3
8895,-3,-3,-4,-31,-6,3,-1,-2
8900,-8,-17,2,-7,-5,-2,-3,-24
8905,29,15,1,-9,4,0,0,21
8910,11,5,3,18,2,-1,-5,-10
8915,2,-4,-7,0,1,-2,-1,4
8920,-14,3,-1,-14,10,4,1,-6
8925,-5,4,5,-11,-17,-3,-9,-21
8930,10,-2,-3,9,6,1,7,13
8935,-5,4,-7,-71,-3,-2,-4,-6
8940,-15,6,10,17,-5,-7,-4,12
8945,19,11,-3,47,13,0,-2,0
8950,-11,-9,7,-1,-22,-5,-2,-5
8955,0,0,-4,17,9,4,3,4
8960,15,-6,-3,23,-7,-1,-1,3
8965,1,-2,10,-41,7,5,3,7
8970,-23,13,-9,30,3,0,-4,-14
8975,-11,-9,6,11,4,0,2,3
8980,-4,2,-15,-7,-12,-3,-4,-7
8985,2,3,1,4,6,-3,-1,8
8990,2,-5,-5,1,4,0,-5,-2
8995,-4,-5,1,0,-4,-2,3,-8
9000,-10,-9,-5,10,1,-1,0,12
9005,-3,6,-1,-26,-2,0,1,-15
9010,-10,-7,10,5,-7,-6,-6,-2
9015,2,3,-7,9,14,2,-4,12
9020,4,4,3,-11,-4,5,9,-7
9025,1,1,-1,20,2,-4,-5,-5
9030,6,0,-2,-14,-1,0,0,6
9035,1,-1,3,7,3,-1,-1,-3
9040,0,-2,-7,-16,-7,-2,1,5
9045,1,1,1,5,10,5,2,-2
9050,-1,-5,0,20,2,-2,-2,1
9055,0,2,2,-8,-10,1,-3,-6
9060,1,-5,1,6,-1,-1,2,6
9065,-46,-4,-5,11,-3,-2,3,-2
9070,7,5,-14,-19,1,-2,-4,-4
9075,1,-2,0,-39,-13,-1,-3,0
9080,-3,3,10,31,30,4,-2,9
9085,36,-11,-8,-38,-33,-5,0,-6
9090,-24,23,23,26,13,5,4,5
9095,-21,-12,-9,-24,-9,-4,-1,3
9100,-6,-4,-6,41,5,3,-2,1
9105,13,2,1,-37,-10,-5,-4,-6
9110,11,20,6,65,8,1,1,-1
9115,2,-9,-2,6,6,-4,-6,-12
9120,17,16,4,4,2,0,7,5
9125,-41,-27,-20,-25,-14,-3,-3,-6
9130,16,4,-8,-38,0,0,2,5
9135,0,8,18,65,13,5,1,-7
9140,-6,-13,-18,-77,-31,-12,-5,-6
9145,17,16,11,22,9,4,1,3
9150,0,-12,-13,20,4,1,4,-6
9155,1,-7,-8,-89,-9,-1,0,4
9160,-21,-5,12,67,4,-3,-9,-9
9165,11,-10,-11,-64,-22,-3,2,1
9170,-2,-29,0,49,-5,-7,-7,-1
9175,0,11,7,23,7,3,1,5
9180,1,1,-7,1,10,5,2,1
9185,-9,6,8,17,10,2,-2,-6
9190,51,10,-7,-62,-8,-1,-4,4
9195,1,-51,-3,40,-9,-2,4,-20
9200,-12,-14,-14,-49,1,-4,-5,18
9205,9,25,15,49,-3,-3,-3,2
9210,1,-3,3,-18,10,6,3,1
9215,16,11,7,39,-14,-2,0,6
9220,-2,-2,-2,-9,3,0,-1,-10
9225,-5,6,-8,-8,-1,0,3,4
9230,-7,-7,7,27,4,-2,-5,-7
9235,-28,-8,-4,-35,-1,-2,-7,-2
9240,61,18,0,2,-9,2,4,-4
9245,0,-7,-11,1,12,2,2,17
9250,-14,-7,0,33,-12,-5,-5,1
9255,-14,9,-6,-25,13,6,4,-3
9260,0,-3,9,40,-8,-2,-5,2
9265,48,-4,7,5,10,-1,-4,-13
9270,-47,5,-1,7,2,-8,-5,-13
9275,7,2,-10,43,-4,0,-3,9
9280,0,2,-11,-62,7,4,5,-8
9285,-3,5,-1,-11,-6,2,2,1
9290,-13,-11,0,-25,-5,-1,4,8
9295,10,17,8,53,10,-3,-3,-6
9300,-19,-7,-1,-33,-18,-3,-3,-5
9305,-19,-7,4,12,-2,-4,-4,-1
9310,9,4,-6,-8,-1,4,5,2
9315,62,2,4,-23,-4,-5,-3,5
9320,-22,-9,-1,37,4,2,0,-6
9325,-8,17,-5,-11,9,8,4,10
9330,-48,-15,-5,-12,-16,-8,-6,-2
9335,12,6,5,3,0,1,4,9
9340,-6,23,-4,64,26,4,5,-18
9345,-6,-1,3,-61,-39,-8,-4,2
9350,-11,9,11,76,20,7,1,-22
9355,29,21,-10,0,-3,-1,-1,40
9360,-5,0,5,-11,0,-2,-4,-10
9365,-31,-6,2,12,5,1,1,-12
9370,12,18,-5,-37,-12,2,4,26
9375,-15,-24,4,-38,-5,-8,-6,-17
9380,4,15,13,27,8,-1,-1,-9
9385,18,-9,-11,20,7,1,-4,14
9390,3,-21,-12,-40,-2,3,1,-2
9395,-9,0,6,21,-4,-1,4,-6
9400,-25,-24,-1,-26,-23,-9,-6,10
9405,6,2,13,79,17,5,2,-2
9410,-20,26,-5,-39,-7,1,0,-9
9415,-23,-18,0,-10,7,3,3,-5
9420,-3,4,-6,5,-2,-6,-3,15
9425,0,-2,5,51,6,-3,0,-7
9430,28,0,-1,-12,-1,2,1,3
9435,-4,12,-7,2,2,2,1,0
9440,-4,-13,3,-62,6,-1,-2,-7
9445,-19,-23,4,90,11,-9,-11,-7
9450,25,-14,-8,-88,-3,-4,-1,-29
9455,-33,6,-13,1,-10,-4,-2,34
9460,35,-3,1,0,-2,3,5,19
9465,-8,0,-5,-37,-1,0,-4,-25
9470,40,8,11,36,7,1,6,66
9475,10,-1,9,19,-9,-3,-1,-24
9480,-11,-24,-21,-40,-2,0,0,-4
9485,5,5,8,-4,-6,-4,0,6
9490,-4,-8,4,86,0,-2,-6,-15
9495,-24,2,-10,-88,8,3,0,-19
9500,4,3,18,29,-8,3,2,23
9505,11,5,-24,23,9,2,0,-23
9510,-15,-12,10,19,-10,-7,-5,-16
9515,7,6,-7,-33,-3,4,2,7
9520,-7,-9,-3,2,14,1,0,-14
9525,-4,3,-3,-39,-24,-9,-5,2
9530,31,6,-6,16,9,8,7,1
9535,2,-4,15,42,-2,-9,-9,-7
9540,-46,-17,-11,-29,-14,-5,-9,-40
9545,15,3,1,-28,7,6,9,45
9550,18,15,-4,-2,5,-3,1,8
9555,-15,2,-8,8,0,2,1,-7
9560,-2,1,1,31,5,2,-3,5
9565,-7,3,-6,-19,-2,-1,-3,-19
9570,-5,-18,-11,-24,-8,-4,-5,-33
9575,-1,24,4,24,10,1,1,19
9580,-2,12,1,-10,-9,-3,-3,-15
9585,1,-2,6,11,-2,1,2,10
9590,-19,-4,8,-6,11,-4,-3,-3
9595,6,-4,-12,21,-3,-2,-5,-22
9600,12,2,4,45,13,3,3,12
9605,28,1,11,-29,-4,-5,-1,-7
9610,-11,-12,-14,46,-10,-3,-3,4
9615,-1,7,-1,-35,9,-3,-1,-4
9620,27,-29,-6,19,-13,0,3,14
9625,8,-9,1,-15,-3,-1,0,3
9630,3,17,2,8,7,4,-5,-6
9635,18,-15,-9,-6,-19,-6,1,1
9640,10,10,5,6,2,1,1,-14
9645,-8,17,-11,-8,8,-1,-4,5
9650,-9,24,-1,-17,-3,-2,-3,-18
9655,25,2,5,12,-6,-3,-1,9
9660,5,-4,-11,-11,8,-1,-2,-8
9665,-12,-8,-2,-1,-10,-1,1,-6
9670,0,3,5,-5,7,3,0,-6
9675,13,6,11,6,-6,-3,0,5
9680,-77,-2,-12,-5,0,-4,-3,-4
9685,12,10,2,6,0,2,0,5
9690,-7,-14,-5,-25,-5,-6,-1,11
9695,-20,-10,-7,0,9,6,3,-12
9700,32,-1,18,55,-4,-1,1,17
9705,-17,-5,-9,-18,3,3,2,-11
9710,-9,-4,6,36,-6,4,2,9
9715,-5,-7,0,60,10,-5,-7,-1
9720,27,35,1,52,5,-1,-2,3
9725,-32,6,5,28,-9,-1,0,-2
9730,14,-1,4,16,1,-2,-5,-1
9735,-20,-5,-11,-46,-19,-1,3,8
9740,-1,1,-6,-66,4,4,3,1
9745,5,-2,7,33,7,1,-1,-4
9750,20,-12,-5,-70,-3,0,0,6
9755,-65,-17,0,23,3,-1,-3,-23
9760,23,6,6,-66,-11,-2,1,39
9765,-4,-1,1,9,-1,-4,-9,-29
9770,16,1,4,-12,-3,1,4,48
9775,2,-13,-12,-9,6,0,1,-8
9780,-9,0,-3,5,-7,0,-2,-14
9785,2,-9,0,-13,10,-1,-3,5
9790,-6,-2,7,18,-3,-1,-3,-14
9795,-1,11,9,16,-2,-6,-6,-6
9800,20,-31,-11,-14,-3,1,-1,5
9805,-57,-5,1,10,4,4,5,-3
9810,-26,-19,-9,-17,4,-7,-2,-9
9815,15,5,7,23,-7,0,-1,9
9820,14,-6,-5,-7,8,-3,-3,-11
9825,25,10,4,-28,-20,-2,-2,2
9830,13,8,5,-10,6,1,1,-16
9835,-51,-14,0,36,3,3,2,27
9840,0,22,2,-42,-13,-3,2,4
9845,15,-3,-4,29,5,1,0,4
9850,-21,-5,-1,4,0,0,0,-1
9855,51,4,-3,-40,-2,-3,-2,-6
9860,-15,-3,9,25,8,2,-2,-28
9865,0,34,-11,-16,1,-1,0,25
9870,-9,10,-1,-5,-13,-4,-1,11
9875,41,17,1,-3,9,6,3,-29
9880,-65,-55,-21,18,4,-3,-3,20
9885,5,-6,5,-90,-3,-1,1,-17
9890,-19,6,6,35,5,5,0,-2
9895,20,-1,-4,19,1,0,1,2
9900,20,24,16,11,-10,-7,-2,6
9905,2,-20,-9,57,11,-4,-7,-2
9910,-4,-14,-13,-20,-9,-1,-2,1
9915,-10,-10,10,9,6,0,-1,-2
9920,-1,1,-1,25,5,5,3,0
9925,12,-7,-3,-11,-15,0,3,7
9930,12,6,2,-10,-1,0,-1,-4
9935,-1,-4,-3,-10,-3,-4,-3,-5
9940,18,8,-10,1,-2,-6,-4,-3
9945,0,12,12,6,2,3,2,-3
9950,14,-11,-1,15,4,1,2,6
9955,-7,1,-4,-21,-1,-2,-1,6
9960,3,-18,-2,-4,-4,-2,-5,-40
9965,11,-14,-1,5,-4,-1,3,57
9970,25,6,-6,-20,-4,0,-2,-8
9975,-36,-6,3,2,3,-2,-3,0
9980,19,39,0,-48,-5,0,2,-4
9985,-6,-16,-11,47,0,-4,-7,-21
9990,-8,-21,-3,14,7,-5,-2,-5
9995,12,12,-2,-72,-11,2,0,8
10000,-21,-1,3,35,10,1,0,2
10005,2,-1,0,19,5,0,2,-13
10010,-14,5,3,-10,0,-1,1,15
10015,4,-7,-19,-23,0,-2,-1,-6
10020,25,-11,5,-43,-9,-4,-2,3
10025,-12,-2,-9,33,-6,-7,-7,-9
10030,-2,-5,5,24,3,2,-1,-2
10035,-7,-3,-1,21,7,2,2,-6
10040,-15,1,-5,4,-3,-1,-2,6
10045,-2,-8,3,-15,-2,1,1,-24
10050,20,20,3,-3,-4,0,-1,-2
10055,-35,-29,-7,6,-2,-2,-5,4
10060,9,-2,5,11,8,0,2,30
10065,-33,32,6,-14,-11,-5,-5,-16
10070,-17,-34,-6,14,4,0,-1,-16
10075,4,7,2,-9,-2,0,2,-2
10080,33,-7,-9,-6,3,0,0,-26
10085,13,-2,7,-5,4,2,2,42
10090,-34,13,-6,-62,-11,-6,-5,-3
10095,-18,7,5,42,0,1,2,6
10100,-3,23,10,21,1,3,0,-2
10105,-4,-22,-1,-73,-10,-3,-2,-9
10110,9,7,5,60,7,-1,-3,2
10115,18,12,-1,-56,-9,-2,-2,-2
10120,-12,-5,0,43,7,2,1,-3
10125,19,-8,-3,19,4,2,1,-6
10130,-53,7,-6,-15,-1,-1,-1,-1
10135,14,-7,0,5,-6,-1,-2,-2
10140,-9,-5,-3,-6,0,-2,-1,5
10145,-1,-4,-7,-5,2,2,-1,-39
10150,22,0,9,35,7,-1,1,60
10155,73,-14,-28,-58,-18,-5,-1,-6
10160,-13,-1,4,61,1,-5,-6,-6
10165,39,29,13,-12,9,3,2,-4
10170,-31,-6,-9,-7,-5,-1,-1,-11
10175,-9,6,6,8,5,-2,-1,-10
10180,8,-1,-7,-37,-1,-3,0,24
10185,18,-6,-8,19,-1,-2,-2,3
10190,8,9,13,-25,-2,0,0,-13
10195,-19,2,5,19,4,3,2,11
10200,-11,-11,-15,-42,-10,-6,-4,-12
10205,4,6,10,51,5,-2,-2,3
10210,-35,-5,-8,-24,-14,-3,0,-10
10215,-19,6,4,83,8,-2,-4,-2
10220,-1,8,8,-57,-5,0,-2,-13
10225,-2,-35,-4,2,3,3,4,13
10230,24,6,-11,-12,-5,0,2,-11
10235,0,1,-1,8,3,0,0,-8
10240,-25,-21,6,62,0,-3,-3,20
10245,-17,-17,-18,-30,-8,-5,-2,5
10250,18,-4,0,-27,8,3,0,-11
10255,-2,6,8,-14,-5,1,1,8
10260,-10,-8,-3,-12,-2,0,-4,-28
10265,8,11,17,47,10,1,0,19
10270,34,-6,-4,-30,-9,-3,1,31
10275,16,-13,-8,-15,0,-1,-4,-8
10280,-4,8,7,16,4,1,3,2
10285,-11,17,5,12,-5,1,-1,-9
10290,9,-25,-12,18,1,-3,-4,-13
10295,-3,-1,8,47,7,-2,-5,8
10300,17,6,-7,-38,-2,-1,-1,-1
10305,-7,2,3,37,5,0,-1,-4
10310,5,24,8,1,2,0,-3,-10
10315,-12,-22,5,-2,-9,-3,-1,1
10320,-20,-6,-17,-17,-4,-1,0,11
10325,15,-2,-13,-51,2,-2,-3,-6
10330,-16,5,8,44,2,-2,-2,-6
10335,-5,12,-6,-5,0,0,-1,-15
10340,31,10,7,10,6,7,9,19
10345,-28,-4,-13,-22,0,-1,-3,3
10350,11,-4,2,13,10,0,0,-1
10355,-7,9,1,-8,0,-1,-2,-6
10360,22,-10,-10,1,0,-2,-5,-1
10365,-41,34,1,-13,4,3,4,-21
10370,-3,-2,0,8,-16,-6,-3,0
10375,4,0,0,17,8,2,4,4
10380,-25,-10,3,-60,0,-2,-5,0
10385,-7,-62,-3,7,-6,-5,-3,-19
10390,-11,37,-2,19,-2,3,2,24
10395,3,11,-7,-75,-6,-6,-1,19
10400,-37,-11,2,69,0,-3,-4,-21
10405,22,-1,-2,-17,-1,-3,-2,9
10410,-15,-20,-2,-40,-5,0,-2,-31
10415,27,-2,2,-2,0,5,4,51
10420,-2,21,-17,34,6,-4,-2,-3
10425,6,2,3,-94,-30,-4,-2,5
10430,-9,-3,1,62,16,3,-2,-23
10435,12,-12,-3,-11,-12,-4,0,7
10440,-8,-5,-8,-21,-2,0,-2,-5
10445,-15,6,3,19,-5,1,0,13
10450,37,-2,2,-23,-7,-4,2,-16
10455,-4,-11,5,3,3,-1,-3,-24
10460,-49,-1,1,25,4,1,6,9
10465,19,-1,-3,4,-3,-3,-5,1
10470,-24,-20,3,-1,1,1,0,6
10475,42,25,7,47,12,2,-2,-16
10480,0,0,8,-28,2,3,5,-2
10485,20,32,-3,7,-2,-3,-2,8
10490,0,4,13,53,11,1,1,8
10495,-14,9,-19,-91,-10,-1,1,-3
10500,27,-3,-4,3,-12,-5,-4,-8
10505,-7,-4,1,25,10,6,1,0
10510,7,5,-4,-63,-9,-4,-2,-13
10515,-26,7,8,65,9,-2,-1,23
10520,-21,6,9,-8,-17,-1,2,5
10525,-6,-32,-30,-66,-6,-6,-6,-9
10530,0,17,6,39,6,2,5,7
10535,-19,-44,3,18,4,2,-2,-38
10540,2,3,1,18,3,-2,-3,1
10545,38,-2,12,12,6,1,2,-1
10550,-26,-7,-3,-14,-7,-2,-5,0
10555,-5,19,-6,-1,-2,-3,-1,-22
10560,-2,4,1,-9,2,3,-1,15
10565,-5,9,13,22,2,-1,0,1
10570,21,-6,-17,-38,-13,-6,-5,-8
10575,-14,5,1,38,12,3,5,8
10580,4,-13,-6,-67,-16,-7,-6,-8
10585,-9,10,0,-3,-5,0,2,3
10590,23,-9,12,51,9,1,-1,6
10595,-20,-5,-13,-26,-8,-5,-6,-2
10600,16,-4,-12,-36,1,0,0,-3
10605,-18,14,5,16,-1,1,1,-11
10610,6,5,-6,0,1,1,0,22
10615,-37,-32,13,21,-3,-5,-3,-1
10620,6,2,-4,37,14,1,-2,-17
10625,-12,-1,-2,-18,-12,-4,-2,12
10630,-17,-8,-3,6,-2,-3,-2,-6
10635,0,12,5,6,3,2,3,4
10640,5,-5,-3,17,5,2,-3,2
10645,-4,-21,-13,12,-2,-5,3,-12
10650,-18,-2,1,-5,10,5,3,16
10655,0,-3,-13,-36,-14,-2,-4,-4
10660,49,-21,8,19,2,-1,3,13
10665,13,23,6,-3,3,1,-5,-13
10670,-15,-7,-19,-46,-5,1,-3,-8
10675,3,5,6,13,-6,1,0,7
10680,2,-7,11,72,14,-2,-6,-22
10685,1,-1,5,-30,-4,2,3,9
10690,-1,-9,-34,-17,-1,-3,-1,4
10695,1,3,6,-69,0,-2,-2,0
10700,4,7,-8,-38,-18,0,-2,-18
10705,-46,0,8,66,24,5,2,23
10710,5,15,8,3,-11,-4,-4,-5
10715,12,-3,-14,-29,1,-2,-3,-13
10720,-12,0,7,30,6,3,3,12
10725,7,5,-8,-10,-6,0,0,2
10730,12,6,9,25,9,3,-1,-7
10735,2,1,4,35,-2,1,1,5
10740,-45,-16,-15,-12,-3,-11,-5,-16
10745,10,-6,0,21,1,2,-1,11
10750,10,1,2,-11,-3,-3,-2,-6
10755,-11,-5,3,-2,-1,1,-3,-46
10760,17,8,4,-14,1,1,7,53
10765,-1,-8,-7,9,1,-4,-2,-17
10770,-5,-7,15,-22,-8,-2,-3,-5
10775,34,-2,-3,33,9,3,1,14
10780,17,14,0,26,3,1,-2,-20
10785,-6,-39,-1,-13,-3,-4,-4,-14
10790,21,5,-3,-17,2,5,6,39
10795,-16,7,-5,47,-1,-4,1,9
10800,-4,8,10,-58,-12,-3,0,-1
10805,27,13,-5,-43,-10,-5,-5,1
10810,1,-9,-12,31,6,-1,-3,-15
10815,-20,-2,-9,-3,3,0,1,-3
10820,18,-2,3,8,4,4,0,18
10825,4,-6,2,-10,2,-4,-3,-6
10830,-2,2,3,-38,-1,-1,-3,-11
10835,-7,11,-6,-20,-2,-3,-1,5
10840,-8,16,8,26,2,3,3,-16
10845,45,-21,2,12,1,4,-3,-9
10850,-53,1,-9,-13,4,-1,6,8
10855,12,-9,5,21,-2,-2,-3,13
10860,-5,1,-13,-38,-12,-5,0,6
10865,8,20,12,40,0,0,-1,-8
10870,-5,-48,6,11,6,3,5,-17
10875,13,11,-2,-21,-3,3,2,41
10880,-19,-11,-9,2,-8,0,-1,-16
10885,-13,-6,-3,-3,-4,-5,-3,7
10890,13,-1,5,17,1,-2,-3,3
10895,-7,-7,5,2,1,-6,-6,-13
10900,2,-6,-6,30,-4,-1,-2,2
10905,-23,-2,-3,-24,0,0,2,6
10910,0,-17,-4,15,8,2,-3,-9
10915,-3,26,-3,2,-25,-4,-6,-12
10920,37,2,12,23,13,-1,1,1
10925,-54,5,6,38,11,3,1,-14
10930,15,1,-17,2,-20,-4,1,25
10935,2,-1,10,-13,13,1,0,8
10940,-16,-1,4,-26,-1,-1,-3,-6
10945,-15,14,0,18,2,2,-3,-15
10950,33,29,0,17,-3,-3,2,32
10955,-3,-82,-21,-15,-10,-7,-7,-47
10960,-9,14,1,6,3,4,-1,25
10965,13,0,1,-8,2,2,4,8
10970,-3,15,-2,8,3,1,0,-13
10975,9,10,2,-6,3,-1,0,5
10980,-16,-11,-5,-14,-1,-2,-2,-6
10985,2,-3,5,14,3,1,-2,0
10990,5,4,-5,-42,-8,-2,-4,-4
10995,13,2,-12,-7,-3,-1,4,14
11000,23,2,-3,-8,-20,-1,-3,-15
11005,-44,-4,9,36,16,-6,-4,16
11010,3,0,7,26,-1,5,2,-10
11015,11,10,5,2,10,3,3,2
11020,6,4,-8,1,4,3,3,-1
11025,15,-1,-7,-31,-11,-1,-1,-9
11030,2,1,9,-17,0,-2,-3,-5
11035,-9,3,-10,78,16,4,1,2
11040,-22,-27,-11,-111,-32,-20,-14,-16
11045,25,-19,1,52,12,1,-2,-29
11050,-69,-18,1,10,11,-5,-5,10
11055,0,23,-1,-25,-9,8,6,17
11060,8,16,7,21,10,6,10,-6
11065,16,0,-10,-7,-14,-5,-4,14
11070,13,1,4,-1,-1,-3,-4,-13
11075,-6,1,6,-12,3,-4,-4,-8
11080,-4,-7,-2,20,7,-1,-2,2
11085,-6,6,6,-13,-2,2,2,7
11090,29,14,-3,15,3,3,3,-1
11095,-30,9,-22,-75,-13,-3,-5,0
11100,-41,-10,19,-9,-14,-4,-3,-52
11105,-22,-21,-18,20,3,-3,3,86
11110,37,4,11,-3,-12,-1,1,-16
11115,38,-8,-5,7,12,0,3,-2
11120,8,6,0,6,9,1,-2,4
11125,8,31,-1,-25,-4,1,-2,-25
11130,-11,-10,5,4,1,0,-2,-2
11135,-4,-4,-11,43,-3,-2,1,6
11140,3,8,-3,-62,-9,-3,-4,3
11145,3,8,10,27,-2,-1,-1,-8
11150,3,4,-10,-30,-5,-3,-2,3
11155,10,-22,8,-3,8,3,-2,-16
11160,-15,-7,0,61,8,1,2,21
11165,28,-12,-16,-25,-10,-4,-1,-13
11170,-46,21,10,-8,5,1,-1,-11
11175,-10,-23,2,0,0,0,-3,19
11180,1,-4,-1,5,-9,-1,-1,3
11185,21,34,8,-32,-10,-6,-3,-21
11190,-14,-86,-4,29,1,-3,0,30
11195,-13,50,11,12,3,-1,0,2
11200,8,-10,-16,17,5,0,-5,-2
11205,-7,4,2,-20,-2,2,3,-16
11210,7,16,-2,-27,-11,-4,1,-8
11215,-5,-5,10,7,5,1,0,-10
11220,11,6,0,9,6,0,1,12
11225,-24,-10,0,-7,-4,2,1,-2
11230,2,11,-13,3,-2,-2,-4,-12
11235,20,-8,2,3,5,1,1,8
11240,12,-3,-4,-30,-23,-6,-3,-6
11245,9,-1,-6,-4,-6,-5,-6,-15
11250,44,-14,8,56,3,4,6,32
11255,-22,29,-14,-19,-6,-4,-1,-10
11260,-20,-16,8,7,13,6,5,18
11265,38,8,-7,34,5,-1,-2,3
11270,2,-5,0,-69,-5,0,1,-6
11275,-11,-2,-3,30,-5,-3,-5,-11
11280,-1,-4,-6,36,13,3,1,-27
11285,43,21,-2,-24,2,6,8,84
11290,-73,23,-4,-42,-15,-8,-5,-1
11295,29,-13,1,18,1,-1,-7,-28
11300,-20,8,4,10,9,3,7,1
11305,11,-4,-1,6,7,5,2,-20
11310,-14,10,-3,9,2,1,0,-23
11315,-10,-14,-5,-30,-10,-5,0,48
11320,11,-9,-1,0,-6,-4,-5,-1
11325,-61,-16,-4,9,4,1,0,-16
11330,8,36,5,-37,-5,-1,-1,-3
11335,-11,1,-2,25,0,-2,-1,-19
11340,6,4,-9,-14,5,-2,-3,5
11345,-18,-12,3,-29,-7,-1,-1,1
11350,14,11,4,41,10,1,-1,-5
11355,40,-8,11,-3,3,-2,-1,-7
11360,-61,-2,-11,18,5,1,-1,10
11365,1,-4,4,-2,-10,-2,-4,-16
11370,-3,2,-10,-48,2,-3,-1,-5
11375,-2,-3,11,8,0,1,4,-3
11380,7,-2,-8,21,1,0,0,-7
11385,2,-14,0,-17,3,4,4,-6
11390,27,-8,-12,26,2,-1,-4,13
11395,-18,-7,-4,-67,-16,-6,-1,-13
11400,-15,3,10,5,-4,-3,-2,22
11405,-11,-2,1,12,-2,-2,-3,-14
11410,22,-8,0,10,7,6,3,-6
11415,7,-3,-4,-6,-6,-2,-3,2
11420,-10,16,6,-29,0,4,-1,-16
11425,-52,-49,-8,0,2,-5,3,-2
11430,-6,45,10,-2,-11,-2,-4,4
11435,25,-3,-4,9,4,5,3,3
11440,9,-12,3,-18,-3,0,-1,-2
11445,-4,13,1,42,8,-1,-4,-3
11450,-5,-15,-15,-28,-6,1,-1,-4
11455,-5,4,14,35,7,2,2,-3
11460,-15,30,-1,-4,-6,-9,-7,-8
11465,-5,-11,-10,-40,3,-4,-5,-5
11470,13,-9,7,9,1,0,1,13
11475,1,12,-4,12,6,4,0,3
11480,18,-19,1,49,0,-4,0,4
11485,12,24,4,-3,-1,2,-2,-11
11490,-10,-15,5,14,-15,-2,3,35
11495,-41,-1,-13,29,10,-2,-4,-49
11500,-7,11,-1,-10,10,4,6,44
11505,8,-3,0,0,-12,-1,0,-3
11510,15,2,7,-4,3,1,-1,-11
11515,-16,-21,5,13,-3,-1,-5,-2
11520,12,-3,-2,16,2,3,2,-8
11525,33,0,5,-13,0,0,1,11
11530,-41,-3,-9,26,2,-2,-2,-10
11535,8,1,5,-3,2,-2,4,25
11540,16,-3,1,-31,2,-1,-4,-15
11545,0,-20,-6,23,0,-4,0,7
11550,5,-4,1,5,6,-1,-4,-15
11555,-15,9,4,-42,-8,-3,1,-2
11560,8,0,7,76,9,-1,0,-6
11565,22,12,-9,-46,-8,-2,1,9
11570,-11,-8,0,10,13,3,-3,-12
11575,-10,-1,0,-9,-10,-3,-4,-21
11580,20,-3,-6,18,2,4,4,26
11585,-17,-25,4,7,-3,0,-3,-4
11590,-7,-2,-5,13,-4,-5,0,-27
11595,10,-7,-11,-15,5,3,2,11
11600,7,-1,-5,-23,-11,-5,-5,-14
11605,-15,2,6,22,6,2,1,5
11610,42,1,-7,-31,-15,-2,-3,-4
11615,24,6,-1,39,10,1,-1,8
11620,-53,-4,-4,-36,2,0,-2,-22
11625,-13,8,-14,-1,-25,-5,-2,10
11630,10,1,13,57,20,0,0,0
11635,8,13,2,19,-5,0,1,10
11640,6,3,-7,-87,-10,-1,0,-2
11645,-3,3,5,50,13,0,-2,-11
11650,-9,-3,-14,-7,-5,1,1,3
11655,-2,15,-1,10,-4,2,-3,8
11660,-13,-40,-3,10,-10,-6,-4,-7
11665,19,-22,5,2,2,-1,-2,4
11670,-22,44,10,14,7,0,1,3
11675,-30,-50,-16,-7,-3,-1,-3,3
11680,50,8,-2,-21,0,2,2,-7
11685,7,-7,-3,-17,-7,-5,-5,4
11690,-16,-4,0,16,3,-1,0,20
11695,15,-4,2,18,3,0,-4,-19
11700,-2,8,3,14,-5,-2,-1,5
11705,-7,10,-2,-13,8,0,0,-7
11710,18,-17,-5,-23,-3,0,-2,-8
11715,-11,3,-1,-37,-13,-2,1,11
11720,32,12,-5,8,-1,-3,-4,-5
11725,-9,25,6,43,1,2,0,-7
11730,-7,-17,4,4,-10,-6,-6,1
11735,-1,-4,5,53,14,0,0,1
11740,-3,-11,-4,7,1,0,1,1
11745,-32,17,-10,-12,4,1,0,-3
11750,-27,9,12,18,0,-2,-2,-7
11755,-21,0,-5,-34,-2,-3,-1,15
11760,18,20,11,69,8,5,5,1
11765,5,-7,-5,-96,-8,0,0,-1
11770,21,-8,-8,25,1,-2,0,1
11775,2,7,-1,-15,-2,1,-3,-8
11780,-11,14,6,-7,4,6,-1,-6
11785,-5,-6,-4,26,3,2,6,13
11790,-8,2,4,-9,0,0,3,26
11795,39,1,-6,-52,-8,-5,0,18
11800,-22,-5,-8,-4,-9,-5,-5,-14
11805,18,-1,6,23,8,1,1,3
11810,-26,-8,0,-24,1,-1,-2,-2
11815,-9,6,8,10,-1,1,3,-4
11820,6,-9,-20,1,3,-3,-3,6
11825,8,-5,-6,0,-26,-7,-5,-19
11830,-76,24,0,-1,7,0,-4,-18
11835,-10,-2,-2,-9,-6,0,1,-7
11840,-4,-4,11,28,5,2,0,5
11845,-4,7,-3,15,6,-1,-1,-1
11850,38,-7,-3,-6,1,-2,-2,-2
11855,-5,1,6,-3,-7,-4,-3,-3
11860,-4,8,-2,-14,-9,0,2,-5
11865,13,-10,5,-18,-5,0,-7,-15
11870,41,4,-7,-80,-17,-6,3,26
11875,-5,-1,-12,-13,2,-3,-3,-20
11880,11,16,3,11,-1,-3,-1,7
11885,4,-9,7,34,6,1,0,-12
11890,0,-13,-6,12,0,3,-2,-17
11895,-6,0,-1,-12,-2,0,-2,-5
11900,6,1,3,-24,-3,-1,0,-2
11905,-10,4,1,-10,3,0,-1,8
11910,35,11,6,56,15,5,3,-1
11915,-64,10,-10,-63,-6,-6,-4,-22
11920,49,-6,3,42,8,-7,-8,-26
11925,-11,-1,-8,12,-3,0,1,40
11930,-25,-9,0,18,1,3,2,-6
11935,17,-4,5,38,14,6,3,-2
11940,-13,-7,7,-22,-2,0,-1,-3
11945,-11,16,5,-40,-6,1,1,-7
11950,18,-3,-4,34,-3,-3,-2,-11
11955,16,-16,2,-12,-13,-3,-4,14
11960,-16,30,8,3,-2,-1,9,32
11965,-4,0,-7,35,7,-1,1,11
11970,-5,-14,1,12,-11,-2,-3,-4
11975,0,-2,-2,15,4,-2,-1,2
11980,-2,-12,-1,11,-4,3,0,3
11985,2,5,1,-5,6,2,1,-8
11990,-1,-2,-5,-25,2,-1,-2,-17
11995,49,31,6,56,3,0,3,12
12000,-30,-70,-12,-54,-22,-7,-7,-11
12005,-3,12,-3,37,6,-2,-4,7
12010,-9,-12,-7,-15,3,2,-2,-11
12015,22,4,3,-14,-6,1,0,-14
12020,0,6,6,24,15,6,7,24
12025,-8,-9,2,-14,-6,1,-3,6
12030,13,3,2,-16,-4,-4,-1,14
12035,-10,-16,1,31,9,0,-1,-43
12040,2,-8,-12,16,-7,4,7,58
12045,-48,34,2,-115,-19,-11,-9,-19
12050,12,6,13,80,9,3,1,2
12055,-12,-12,-7,12,1,0,0,9
12060,-2,-2,1,0,8,1,-1,-21
12065,27,-3,1,6,1,0,5,2
12070,6,16,-7,-40,-7,1,3,2
12075,3,-32,-8,-13,-5,-4,-5,6
12080,-4,33,2,-17,-6,-3,-4,-9
12085,5,-32,-4,52,10,-2,-5,-7
12090,-6,13,-8,-43,-4,-1,-4,2
12095,-3,-12,-3,-31,-3,2,2,5
12100,14,10,-3,10,8,3,2,-3
12105,-32,-13,3,-50,-9,1,-6,-46
12110,0,-10,-2,36,0,-9,4,58
12115,20,2,-9,4,-12,-1,-1,12
12120,0,-4,1,-7,6,-1,-1,-1
12125,-42,13,8,6,-2,4,3,-8
12130,67,-22,3,41,5,1,-4,-16
12135,-43,30,4,-30,4,2,-2,-4
12140,-3,-8,-9,29,2,0,-4,-11
12145,30,38,10,-10,2,-1,4,11
12150,16,-41,-1,-3,-7,0,3,-3
12155,-43,22,5,18,0,-5,-4,7
12160,15,-2,-4,-1,-4,-2,-1,-13
12165,8,3,-4,6,3,1,2,4
12170,-4,0,1,1,-2,0,-4,-11
12175,19,-6,2,-41,0,-1,1,5
12180,-44,-8,-11,32,-8,-6,-4,-20
12185,28,-2,-1,-17,-6,2,2,38
12190,-17,11,2,6,8,0,0,-7
12195,2,-20,-5,30,-1,-3,-4,2
12200,6,1,4,-43,5,2,-2,-4
12205,4,-5,-5,8,-10,-2,1,-14
12210,-2,5,-1,13,2,4,0,-5
12215,21,22,3,-2,4,3,-1,29
12220,-23,-46,-3,22,-2,-5,1,12
12225,7,-1,6,33,5,0,-1,-6
12230,-60,7,2,36,13,2,1,2
12235,25,11,-1,-59,-9,0,1,-5
12240,-19,21,8,-30,2,0,-5,-22
12245,6,-22,-11,26,3,2,2,32
12250,11,-3,-3,-27,-7,-6,-3,-4
12255,-22,-4,-2,21,-1,0,-3,-3
12260,7,-5,4,-43,-8,-3,-2,-3
12265,4,-4,-3,-4,1,0,1,-5
12270,-9,12,-3,-7,-4,1,0,-10
12275,0,-14,-18,10,2,-2,0,-2
12280,25,11,9,15,5,2,2,0
12285,-1,-26,-4,53,-4,-7,-7,3
12290,14,37,9,-26,2,2,0,0
12295,9,-63,-3,63,3,1,2,-4
12300,-55,2,-14,-66,-6,0,2,7
12305,20,19,2,-7,9,-2,-10,-14
12310,-10,-6,2,-2,3,2,3,-21
12315,11,18,10,11,-7,0,-1,32
12320,24,-4,-2,13,3,-3,-1,-10
12325,-9,12,7,-7,-4,0,0,-2
12330,2,-66,-21,6,-2,-3,-5,-15
12335,-23,16,-2,-18,-6,-4,-3,-21
12340,15,-16,-2,2,8,0,1,21
12345,-1,13,2,25,6,-2,-2,-14
12350,-14,-8,3,3,-6,-1,-2,-16
12355,29,7,-3,-29,-2,1,2,26
12360,-24,-2,-12,-55,-13,-1,0,-8
12365,15,-10,-1,-14,10,-2,1,10
12370,-30,13,3,10,-3,-1,-3,3
12375,3,-3,5,16,-1,-2,1,-2
12380,14,17,2,15,-4,0,-1,-6
12385,-6,15,1,26,9,2,4,0
12390,13,-27,-9,-30,-12,-3,0,22
12395,-10,6,-2,19,4,-1,-2,-16
12400,-4,3,4,-39,0,1,-3,-5
12405,-16,-12,-16,-28,-15,-6,-2,3
12410,47,-2,1,10,4,5,1,37
12415,-25,3,11,9,-5,-4,-3,-39
12420,21,2,11,40,8,1,-3,32
12425,-25,-30,-11,-32,-1,4,2,-8
12430,-55,65,-2,-4,-1,-2,-2,-4
12435,-25,9,-7,-41,-2,-4,-5,-6
12440,10,3,14,43,5,-1,-1,-10
12445,6,-7,-1,-52,-6,1,1,-8
12450,-3,-3,2,-3,-5,-2,-1,-4
12455,5,9,-8,23,5,-1,2,1
12460,-4,-33,-6,-47,-6,-2,-2,-5
12465,-1,15,10,19,-2,-2,-1,0
12470,7,-5,-6,7,0,2,2,-2
12475,4,0,1,2,-2,-4,-2,6
12480,11,-5,4,15,2,-2,0,-2
12485,5,-2,1,10,-16,-4,-2,-3
12490,25,-7,1,-30,1,-2,0,-3
12495,17,-4,0,-16,7,4,1,-7
12500,-25,13,-10,13,-3,2,4,6
12505,-4,-6,1,27,4,-1,-1,-20
12510,13,13,7,-11,0,-2,-1,16
12515,0,-9,1,-55,-1,0,3,20
12520,19,30,1,30,-1,-3,-5,26
12525,-2,6,3,-34,2,1,2,4
12530,21,-20,-6,-2,-2,2,-2,-14
12535,4,-25,-17,6,-3,-4,-4,-10
12540,1,10,9,26,1,0,-2,13
12545,0,2,4,-17,-7,2,0,5
12550,-18,-8,-13,-2,-8,-6,-3,-23
12555,37,7,15,21,13,2,1,9
12560,-1,4,-7,-9,-13,1,-1,-10
12565,7,-14,-8,4,3,1,0,2
12570,-7,-2,7,4,0,-1,1,-10
12575,-59,8,2,-3,2,0,0,-1
12580,0,-6,-14,-27,-9,-5,-4,-12
12585,9,2,11,71,10,-1,0,-3
12590,-20,-3,-2,35,-10,-2,1,-16
12595,11,-1,-1,-43,1,5,2,12
12600,4,28,-5,14,6,-4,-6,-6
12605,-2,-10,0,-26,-6,5,4,7
12610,31,15,0,-21,-15,-10,-8,-16
12615,19,22,1,38,-2,-2,0,-7
12620,-20,-29,-1,10,6,4,-1,-9
12625,19,2,-6,-26,-10,-3,-2,-1
12630,-14,-19,-4,7,9,-2,-1,3
12635,55,7,1,-7,-9,1,3,4
12640,-35,6,1,5,3,-1,-3,-12
12645,39,6,-5,2,-1,-6,-4,-3
12650,-7,-12,4,-49,-2,0,3,15
12655,-65,-9,5,50,6,-1,-4,-6
12660,21,13,-6,-1,-1,-1,2,-7
12665,-15,-11,-16,-10,2,2,-1,2
12670,-1,11,1,3,-1,0,-2,-13
12675,5,-4,9,8,8,-2,-2,-2
12680,6,2,-4,-41,-9,0,0,-11
12685,-15,-8,8,67,0,0,1,16
12690,-13,0,-8,-60,2,2,-1,20
12695,45,11,4,38,-6,-3,1,4
12700,-10,-24,-16,-72,-18,1,6,5
12705,-7,5,-2,-27,-4,-2,-2,-16
12710,6,-5,4,15,9,7,4,22
12715,3,0,2,33,-6,-5,-6,2
12720,-4,3,5,19,-6,-6,-5,-3
12725,7,7,-10,-44,-1,0,1,0
12730,5,7,3,15,6,-1,0,5
12735,-26,-3,-7,0,0,5,2,5
12740,24,5,-3,12,3,0,1,-7
12745,-16,-11,12,2,2,3,3,5
12750,-10,-5,-16,3,-9,-8,-6,8
12755,-10,-17,-4,-10,8,0,-2,-3
12760,-11,-21,12,47,7,2,3,-1
12765,1,17,6,9,8,0,-2,0
12770,17,7,-2,27,1,1,-2,-5
12775,1,14,4,0,-10,-3,-2,-7
12780,5,-9,0,31,6,-2,-1,1
12785,37,31,0,-10,-5,-6,-1,-7
12790,-26,4,3,19,8,2,-1,-3
12795,-5,-2,-11,-32,0,-1,-4,-5
12800,-11,-14,-1,11,-16,-6,-1,0
12805,5,11,3,6,9,6,2,-2
12810,5,5,-5,4,-7,-6,-1,-20
12815,-18,-20,-17,-12,1,0,2,-3
12820,25,-12,5,-7,8,3,2,45
12825,-59,26,-11,-1,-5,-7,-9,-36
12830,17,6,9,-13,0,2,2,-1
12835,-7,-7,-3,4,4,1,-1,-3
12840,-1,-10,-2,10,-1,-3,-5,-15
12845,-41,-15,-9,-14,-6,-2,-2,-6
12850,-11,2,-1,18,5,2,-1,1
12855,-8,2,4,28,-7,-6,-4,-7
12860,-4,15,-1,-87,-6,3,-2,-20
12865,24,2,-4,36,2,1,1,50
12870,46,-1,3,-27,-2,-1,-1,0
12875,-5,2,9,10,-7,-1,2,5
12880,13,15,-2,13,10,4,2,-15
12885,-26,-34,-7,-10,-1,-7,-5,-3
12890,5,19,2,-33,5,5,3,8
12895,-7,0,-2,-1,6,2,2,-5
12900,9,15,10,48,2,-4,-2,-1
12905,33,-11,0,-13,-3,-2,-2,-8
12910,-25,0,2,-27,-5,-6,-7,-6
12915,-69,29,-12,10,10,0,-2,-11
12920,-1,-43,-13,-25,-11,-1,2,-22
12925,-10,-11,2,-14,-3,1,0,15
12930,-20,-6,-2,56,-3,-3,-4,0
12935,17,-6,0,-71,3,-2,-1,6
12940,15,-1,4,35,-4,-2,-5,-16
12945,-47,4,2,22,-4,4,4,22
12950,12,-47,-9,-42,5,1,3,4
12955,33,6,2,65,-5,-5,-4,-22
12960,-15,5,-13,5,-4,-2,-1,12
12965,40,16,15,38,11,2,0,15
12970,-22,-7,-6,-17,-3,5,-3,5
12975,3,-11,-4,-6,-7,-2,12,1
12980,15,10,4,52,9,3,-5,6
12985,1,-20,2,-9,-6,-4,-2,-9
12990,3,3,-2,35,6,-1,0,1
12995,14,-8,-9,-27,-5,-5,-8,-2
13000,27,27,11,13,10,0,1,10
13005,9,8,-3,25,-1,-1,-1,-14
13010,11,11,11,-23,5,-1,2,1
13015,17,-26,2,-49,-18,1,-1,2
13020,-13,8,-7,-32,-2,-2,-3,-1
13025,5,2,-6,18,11,0,-2,-15
13030,-13,-5,-8,-30,-21,-11,-3,-27
13035,41,42,3,20,-7,1,0,38
13040,-12,-9,-8,-95,-7,1,2,1
13045,-10,2,11,20,3,0,-2,-7
13050,28,43,8,73,8,-2,-2,-18
13055,-42,-33,-4,-17,-4,2,4,22
13060,-24,17,-2,-54,-4,-5,-4,1
13065,27,-13,-5,-1,-3,-3,-4,-12
13070,21,10,-1,-11,2,1,3,4
13075,1,-6,0,24,4,0,-2,-2
13080,-19,2,7,4,-2,0,0,-16
13085,1,-1,-4,-16,-1,-2,1,10
13090,-17,-5,1,28,3,-2,-5,6
13095,7,-19,-4,-62,0,-1,-1,-10
13100,2,-24,-13,11,3,-1,-2,-9
13105,-23,6,7,-5,-1,-3,0,-8
13110,-22,-5,1,70,8,2,-2,-1
13115,-3,-9,-14,-23,-6,4,5,1
13120,-15,5,8,21,6,-2,-3,-7
13125,-3,1,-9,-55,-14,-1,-2,20
13130,32,10,-6,-4,9,2,0,-1
13135,2,-5,5,64,-5,-5,-5,-1
13140,0,-9,1,-57,-9,-6,-1,7
13145,22,10,11,33,8,2,-1,-12
13150,-15,-54,-14,10,1,4,5,-15
13155,-12,0,-3,-25,-20,-4,-1,10
13160,21,2,4,46,4,3,5,52
13165,-18,-17,-15,-44,-6,-6,-6,-8
13170,-7,7,5,-15,-7,-5,-3,-8
13175,22,14,2,17,10,3,1,-6
13180,-1,-30,0,34,-5,-1,-3,-5
13185,-10,-13,2,-53,-2,-2,-1,-6
13190,-8,7,5,7,0,2,-1,20
13195,-9,5,-11,-19,-6,-5,-4,-7
13200,16,13,7,31,0,0,0,4
13205,-5,-3,-1,33,10,2,2,-3
13210,-15,8,1,-30,-17,-3,-1,-3
13215,5,4,5,33,13,2,-4,-4
13220,14,-3,-3,-22,-1,1,1,-7
13225,-30,-13,-6,46,6,1,4,2
13230,13,0,-3,-104,-29,-10,-1,-1
13235,-3,6,10,91,19,2,-3,-31
13240,4,-9,-4,42,3,4,8,74
13245,27,64,7,12,-7,1,-2,0
13250,-37,-33,-26,34,10,-4,-5,1
13255,1,-1,7,-38,0,-2,-2,4
13260,19,5,3,-37,-4,-3,-6,-32
13265,-26,-4,-1,-23,-2,6,2,12
13270,0,7,3,-7,-2,0,-1,4
13275,2,18,7,-7,3,1,1,-4
13280,-9,-7,-12,9,-1,-4,-3,-13
13285,-8,-60,-9,-10,-6,-1,-1,-5
13290,4,6,1,-13,-3,1,-1,-11
13295,-15,-12,-9,6,-2,-3,-2,18
13300,9,15,11,15,4,2,2,-5
13305,3,-7,-4,-53,-6,-5,-6,-12
13310,-15,5,3,11,2,0,1,0
13315,39,-21,-1,-47,-2,1,-2,14
13320,-29,-5,-5,7,-4,-1,3,5
13325,-3,12,-12,5,3,-3,-1,21
13330,14,-11,10,34,4,2,1,-5
13335,-20,47,-3,-12,9,-2,-5,-17
13340,27,-1,-2,-20,-11,-3,-2,1
13345,6,-6,-5,66,3,-3,-2,-7
13350,5,7,3,-61,4,2,3,9
13355,-1,-13,-5,68,-8,0,1,-6
13360,-54,-52,1,-67,2,-1,-5,-11
13365,-23,10,0,9,-7,-1,-1,-12
13370,-5,1,-8,-4,5,1,-1,5
13375,8,-9,-1,-2,-7,2,1,-2
13380,-18,18,14,29,-11,0,0,-8
13385,5,0,-2,5,-2,-1,-3,-6
13390,-2,-6,3,17,1,1,1,2
13395,5,8,-11,-39,11,-2,0,-7
13400,-25,11,4,38,-9,-5,-1,1
13405,37,-3,-11,-106,-4,-1,-2,-41
13410,-58,9,13,127,16,3,2,56
13415,5,-21,-6,-6,-16,-6,-5,12
13420,-7,3,-8,10,7,4,-3,-26
13425,12,4,11,6,0,-1,0,9
13430,13,-4,-7,-4,2,-3,-2,-16
13435,-43,-25,1,-28,-5,0,1,27
13440,21,-13,-5,-8,5,-1,-3,-10
13445,2,12,-7,59,-9,1,1,9
13450,-7,-4,-7,-66,0,-1,-1,-15
13455,7,6,-1,0,-2,-3,-3,-9
13460,46,4,6,34,-3,-2,-2,-3
13465,-11,-17,8,7,7,0,-1,-1
13470,38,11,-1,-24,-5,0,2,0
13475,-17,-4,-12,-9,3,0,-3,-18
13480,6,7,0,19,8,-1,-1,14
13485,13,0,11,34,2,3,4,-4
13490,-29,-45,-18,-22,-10,-5,-4,-5
13495,-14,6,15,51,13,4,4,-33
13500,5,17,-3,-50,-12,-4,1,9
13505,1,6,0,2,5,-2,-3,23
13510,22,1,11,41,6,0,0,-12
13515,12,0,-17,-58,-16,-2,0,1
13520,-13,-13,2,-6,5,-3,-4,-19
13525,22,-2,-2,-35,-9,1,3,-2
13530,-7,21,2,-15,-1,-4,-4,-6
13535,12,0,12,72,7,1,0,11
13540,-21,12,0,-37,0,0,2,1
13545,32,7,-3,18,-1,0,-3,3
13550,3,-1,1,-26,-2,-2,-8,-4
13555,-3,7,5,0,1,-3,6,-3
13560,11,-32,-9,12,9,5,-2,5
13565,-48,6,9,-37,-13,-4,0,-8
13570,-3,11,-10,20,7,1,-1,-1
13575,11,-3,-1,6,-6,-3,-7,0
13580,-4,-3,-1,33,0,2,1,-24
13585,-9,6,-23,-71,-6,-6,-3,5
13590,25,13,4,-13,0,3,2,-9
13595,3,-2,-5,20,-12,-5,0,27
13600,-22,2,15,45,3,-2,-3,-12
13605,-1,6,5,-7,8,5,-1,-21
13610,6,-19,-8,18,-3,4,5,51
13615,-23,4,-2,4,8,0,-1,-9
13620,-33,4,-7,-32,-5,-5,-1,10
13625,72,-18,19,-25,-7,-3,3,13
13630,-7,13,-5,11,1,-2,0,-8
13635,-22,-14,-9,-21,-11,-5,-3,-6
13640,7,16,3,24,-5,0,-2,15
13645,-26,0,13,86,10,4,-1,-6
13650,0,-25,-13,-69,-18,-6,-3,-17
13655,11,27,2,20,12,5,1,-10
13660,-22,4,-4,22,-6,-1,0,21
13665,-17,-33,7,-6,4,0,-2,-28
13670,12,8,10,-7,3,-2,-3,24
13675,-40,1,-9,-64,-20,-1,-1,-5
13680,27,0,-3,15,9,-3,-3,-11
13685,-31,-36,-8,39,2,2,-3,1
13690,-34,18,-4,-35,1,-1,-1,-3
13695,14,-12,-1,-15,2,1,2,-3
13700,10,3,9,36,6,3,-3,3
13705,-15,16,-10,-57,-7,-2,2,-1
13710,-6,-12,0,33,10,-3,-5,-28
13715,-8,7,9,60,10,2,0,37
13720,17,4,-6,-58,-22,-4,-4,-12
13725,4,3,-7,53,7,-3,-4,1
13730,8,-8,-3,1,0,0,1,-2
13735,8,-2,5,71,11,6,3,-29
13740,1,12,7,-74,-6,-4,-5,2
13745,0,-49,-7,-20,-13,-5,-4,-4
13750,0,11,-5,-2,-28,-7,-1,7
13755,14,-17,13,100,26,1,-5,-4
13760,-15,-21,-12,-73,-5,1,3,-15
13765,14,16,10,52,4,-3,-1,1
13770,22,6,-7,-22,-1,5,3,-3
13775,-3,-8,10,3,0,1,-1,-1
13780,5,5,-8,-24,2,-4,-4,5
13785,-1,16,1,-22,-7,-1,7,2
13790,18,-10,-8,18,4,-2,-3,0
13795,-30,10,2,13,10,-4,-4,3
13800,-19,-21,0,-29,-7,3,0,-3
13805,-4,30,-1,56,11,0,-6,1
13810,-11,-20,7,-16,-2,-7,-4,1
13815,35,-32,-25,-69,-5,1,0,-5
13820,-27,4,11,61,-17,3,6,-6
13825,3,2,-33,-36,-1,-6,-3,7
13830,-27,2,17,29,-1,-3,-2,-10
13835,11,3,-2,-28,5,4,2,-19
13840,30,-20,-26,-19,-17,-10,-8,34
13845,-83,15,2,-12,-16,3,-2,-37
13850,11,-3,0,-41,18,5,4,14
13855,-8,31,-2,-5,-33,-11,-6,2
13860,-21,-17,5,-9,22,8,8,-12
13865,30,5,10,68,-8,-11,-11,-2
13870,-4,10,-1,68,4,0,-6,-13
13875,-16,-16,-2,-28,-6,3,2,-5
13880,-38,25,-11,-51,1,-2,7,4
13885,-7,4,2,-33,7,-2,-1,12
13890,-4,-19,5,-2,-9,-5,-1,-1
13895,11,21,-10,19,21,6,-1,3
13900,-5,-55,-7,-44,-8,-2,-1,-1
13905,23,20,10,62,7,-1,6,7
13910,4,-32,-9,-84,0,-1,0,29
13915,6,1,-1,-46,-5,-2,-3,-8
13920,20,18,2,51,10,0,-2,-17
13925,-32,-16,-3,-69,-5,2,2,9
13930,-27,20,20,85,17,2,2,-10
13935,-34,-8,-11,-65,-12,-5,-2,1
13940,56,13,14,44,-1,3,0,5
13945,12,11,5,57,6,-1,-3,-6
13950,-5,-17,-16,-39,-13,-7,-7,-14
13955,11,24,9,38,2,1,3,6
13960,-1,-9,5,22,-5,-3,-2,-7
13965,81,-10,-29,-6,0,3,2,10
13970,-53,52,2,11,0,-5,-6,-7
13975,0,-9,20,14,8,4,5,3
13980,-5,1,4,49,3,-3,-3,4
13985,9,-5,2,-32,7,5,2,9
13990,26,15,-19,-3,-19,-3,1,-3
13995,-2,3,-1,-79,-8,-2,-1,-25
14000,18,39,3,30,-4,1,0,10
14005,-17,7,19,9,0,-5,-10,26
14010,37,-15,-5,29,-1,6,12,-9
14015,2,-2,7,64,14,-2,-4,9
14020,-6,-8,-2,-2,-6,-3,-1,-19
14025,-29,42,1,-76,-5,4,-2,-5
14030,18,-19,-1,7,-2,0,-3,-11
14035,31,-14,-1,-11,-7,-1,1,9
14040,1,13,-7,-6,14,9,4,8
14045,0,-22,5,4,3,-8,-5,-13
14050,-14,2,6,55,15,-2,-4,0
14055,-1,-13,-9,-63,-16,1,3,8
14060,-11,11,-3,-13,9,3,-2,0
14065,75,-36,-20,29,6,-3,1,0
14070,3,-8,-1,10,5,6,3,3
14075,16,32,9,31,-19,-11,-8,5
14080,34,-39,12,69,5,-1,-2,-4
14085,9,9,9,56,12,2,2,-7
14090,-4,16,-16,-86,-15,-2,-5,-2
14095,5,-17,7,75,32,12,11,7
14100,-16,6,-18,-18,-10,-10,-7,-7
14105,-5,-31,2,-54,-21,-2,-3,-29
14110,-40,7,-3,53,19,0,-2,-15
14115,19,-15,1,-52,1,3,6,99
14120,55,21,10,37,6,-6,-3,-13
14125,-59,-41,-10,-45,-4,1,-2,-17
14130,-39,-5,-10,-39,-8,4,1,-19
14135,13,7,-7,26,-3,-8,-7,-35
14140,-7,0,5,35,18,8,-1,13
14145,-8,7,18,60,-12,-10,-5,13
14150,24,-3,5,14,0,-1,0,6
14155,-25,-7,-12,-16,-8,-3,-3,-13
14160,-13,7,2,-21,0,2,4,1
14165,-40,29,2,-18,7,2,0,-7
14170,10,-7,8,-14,-2,-1,0,12
14175,-20,-12,-6,12,-7,-7,-10,-18
14180,17,21,1,11,-2,-2,-3,-7
14185,-33,4,-6,-26,5,5,3,13
14190,24,3,-3,-71,-17,-6,7,19
14195,8,3,-3,36,-2,2,-3,-11
14200,-21,-7,5,25,3,-8,-10,-2
14205,19,6,-3,-30,0,7,7,9
14210,-43,-15,4,82,-2,-6,-5,-3
14215,-2,-13,10,-39,-2,2,3,-16
14220,-14,20,-2,-6,-4,1,4,4
14225,14,7,-10,-15,-5,1,-1,2
14230,72,15,-7,-32,2,-1,0,10
14235,-45,-32,-2,-53,-7,-6,-4,-30
14240,-38,-7,-2,25,2,1,0,44
14245,-25,27,12,36,9,2,-2,-7
14250,40,-60,-19,-29,-2,-3,-3,-8
14255,-10,28,0,69,4,-3,-3,-4
14260,2,-35,-12,-99,-9,0,1,-8
14265,-25,2,6,28,-9,-3,-1,-3
14270,-13,9,-5,11,-1,0,-3,6
14275,24,-5,-1,18,9,-3,-4,2
14280,-10,1,13,-7,5,0,-3,-11
14285,-20,4,0,9,-1,4,10,4
14290,-18,51,-4,6,-10,-1,-5,-8
14295,-8,-20,-2,-37,6,-6,-5,-1
14300,23,21,11,70,-9,-4,-2,-5
14305,59,-3,7,-43,4,7,2,3
14310,5,27,6,-12,1,0,7,11
14315,-63,1,-8,-18,-3,2,2,5
14320,50,4,0,4,-5,-5,-4,0
14325,4,-28,1,10,0,-5,-7,-6
14330,-9,-11,9,-25,-14,-5,-1,-7
14335,10,16,-3,47,5,-2,-4,-1
14340,18,-12,1,-90,-15,-1,2,-6
14345,-34,-55,-17,51,10,-1,-2,-1
14350,33,6,-5,-12,0,2,-1,-1
14355,-12,-13,4,51,5,-8,-6,-6
14360,6,-12,0,37,-3,-1,-1,-9
14365,20,9,1,-45,-1,5,1,4
14370,-41,-8,2,13,-8,3,6,9
14375,67,-31,-5,-39,-1,1,1,-4
14380,-53,-3,13,54,1,-1,0,-5
14385,-9,7,-25,-48,-10,-11,-12,-3
14390,-16,12,8,73,25,6,-1,-26
14395,7,13,-3,-97,-15,4,4,38
14400,30,-6,-4,1,2,0,3,8
14405,21,31,-1,-26,-5,0,1,-4
14410,-35,2,7,26,5,-4,-7,-2
14415,2,10,-8,3,-8,-1,-1,-16
14420,-3,9,4,1,7,5,4,1
14425,4,-22,2,39,0,-13,-12,-5
14430,19,-19,-3,31,13,4,3,-1
14435,12,31,1,-31,-13,0,3,0
14440,-15,0,9,32,-2,3,-1,2
14445,16,20,-4,40,6,5,6,3
14450,-11,-17,-6,-15,-2,-6,-7,-1
14455,6,-5,8,6,1,0,0,1
14460,4,13,-8,-5,4,-3,0,-7
14465,-38,5,6,8,-6,2,3,4
14470,11,-6,0,-13,1,-3,-4,-2
14475,34,13,14,48,11,0,-2,-2
14480,-22,-15,-15,-1,-1,-3,-5,-10
14485,1,-1,-3,5,-8,-2,0,1
14490,-2,-1,-7,-28,8,3,4,7
14495,-2,4,-5,-20,-8,-1,-4,-8
14500,-22,-37,5,32,6,-6,-5,-10
14505,-6,6,-6,8,8,4,-3,-21
14510,25,46,1,-64,-11,3,3,22
14515,-18,-3,2,-15,8,3,4,1
14520,24,-2,-2,25,-16,-6,-2,2
14525,-31,5,18,48,12,-6,-4,1
14530,13,-21,6,-30,-6,0,-4,-10
14535,-9,10,-6,33,-3,0,-3,-2
14540,10,19,-11,-4,4,7,5,7
14545,19,0,-6,-82,-16,-10,-2,2
14550,-10,-16,-8,41,-1,-4,-6,-10
14555,-27,-17,-3,35,4,5,6,8
14560,22,5,1,43,8,4,3,-2
14565,-8,-4,-5,-53,-12,-5,-1,4
14570,-27,-12,3,7,10,-9,-7,-4
14575,-3,-6,-4,11,2,-3,-7,-11
14580,-7,7,-1,-41,-13,-2,-4,-3
14585,53,-1,6,-6,12,7,10,11
14590,-35,-11,-2,9,-5,3,4,0
14595,-40,-29,-15,-18,4,0,2,-3
14600,-28,16,15,67,12,-12,-11,-9
14605,-4,-41,-1,-3,1,6,2,5
14610,21,-2,-19,-21,-7,-5,-7,-7
14615,18,12,5,-34,-10,-1,1,5
14620,-10,-12,-4,-91,-10,2,2,-2
14625,1,42,3,92,8,2,1,8
14630,15,-10,-5,18,4,-1,-1,-4
14635,19,-7,5,59,-13,-9,-8,-3
14640,-64,-13,1,75,4,1,0,-11
14645,44,20,3,-2,1,5,7,18
14650,-3,26,5,61,9,-1,3,1
14655,0,-3,-8,-5,-11,-6,-4,-2
14660,11,4,10,80,8,2,-3,0
14665,-27,-13,-1,79,-10,-6,-4,-7
14670,9,24,26,109,9,3,2,2
14675,-15,-6,-12,-100,-5,-2,-2,-2
14680,-8,2,-10,-128,-9,0,1,1
14685,-4,21,-5,-128,8,7,1,-2
14690,39,-90,-7,-128,-1,3,5,4
14695,-35,30,9,-15,10,-3,-1,1
14700,11,-2,-23,-38,0,-2,-5,0
14705,-1,7,-14,12,1,-6,-7,-5
14710,-2,-11,-7,106,5,-2,0,0
14715,6,-4,-4,13,-27,0,1,-10
14720,68,-9,-8,83,7,3,4,10
14725,10,-7,19,62,8,-2,0,1
14730,-21,12,-13,43,-10,-5,-8,-5
14735,3,-6,4,-17,-3,0,0,-1
14740,-3,13,7,12,8,2,-1,-1
14745,-14,-19,-4,8,-9,-3,-1,-8
14750,-7,2,3,-10,0,-1,0,1
14755,9,60,11,5,5,3,2,2
14760,-3,1,1,-56,-2,1,2,2
14765,-48,-39,-1,26,3,-3,-5,-5
14770,23,-2,5,-35,-7,-1,-2,-1
14775,11,-15,2,-2,-2,-5,-5,-7
14780,-11,12,-16,-31,2,0,0,-3
14785,7,8,0,29,-1,-2,-3,-4
14790,-26,-16,1,-20,-6,-6,-2,-4
14795,3,-14,10,59,7,-1,-1,-3
14800,-9,-8,-15,-15,-3,1,1,0
14805,23,6,-9,-81,-20,1,-1,1
14810,-21,2,6,-2,11,1,0,-4
14815,7,-19,-6,-33,-3,-5,-2,0
14820,32,17,8,1,-1,0,4,6
14825,-80,-20,-10,5,7,-4,-4,-4
14830,21,16,-2,1,6,2,-1,6
14835,-4,-10,1,10,7,3,3,4
14840,0,6,-11,-34,-13,-6,-8,-5
14845,3,17,-2,19,-3,-3,-3,-18
14850,4,-19,5,3,0,10,9,37
14855,-31,-69,-13,-1,2,-4,-5,-14
14860,0,12,-3,0,-4,-4,-2,-5
14865,12,49,-2,-9,0,-5,-7,-52
14870,-20,18,13,1,-8,3,6,32
14875,60,-2,-9,-20,0,0,2,32
14880,-3,-14,1,15,-8,-3,-4,-1
14885,24,-18,-3,-2,0,-3,-3,0
14890,4,14,3,12,6,4,1,-32
14895,-40,1,-2,9,-2,1,-1,8
14900,-6,1,4,12,3,-2,-5,-36
14905,37,-20,-8,-68,-8,4,8,53
14910,4,8,5,64,-2,-4,-7,-18
14915,-16,-55,-3,3,3,0,-3,-18
14920,15,15,3,27,13,0,-1,5
14925,-68,3,1,-12,-18,-2,3,-8
14930,33,-2,0,-7,4,-5,-2,18
14935,-11,11,6,19,4,3,-2,-28
14940,-10,-2,-2,-33,-8,-1,-1,-5
14945,3,-9,4,26,-5,1,4,28
14950,-12,27,-9,9,1,-7,-3,-8
14955,29,18,-3,-3,-7,-1,0,3
14960,-38,-26,-7,-12,-2,-2,-1,12
14965,21,22,4,38,15,5,3,0
14970,-7,-3,11,-51,1,-1,-3,0
14975,10,7,-9,87,6,-4,-1,13
14980,-17,3,5,-27,-9,3,4,4
14985,-2,4,-2,43,13,6,5,10
14990,-44,-7,2,-48,-11,-7,-6,-18
14995,33,60,2,77,5,0,-2,-6
15000,6,0,1,-68,-14,-4,0,14
15005,14,-4,7,55,11,0,-2,-7
15010,12,-12,-10,26,4,2,1,1
15015,-37,-7,-12,-60,-21,-1,-2,-3
15020,-24,1,4,22,0,0,3,3
15025,41,30,16,-17,3,0,-1,10
15030,8,-26,-18,-16,-5,-3,-2,-4
15035,8,22,15,-62,-6,2,2,11
15040,-3,-14,-6,45,0,-4,-5,-16
15045,-32,-16,-14,-35,-2,-2,-3,-23
15050,41,-4,-1,-26,-7,1,0,37
15055,-46,-15,6,51,2,-6,1,-12
15060,19,-12,15,-34,-2,0,1,-4
15065,-6,1,-8,25,0,-4,-5,4
15070,-14,-19,-7,8,-7,-5,-3,-23
15075,10,12,-3,-48,-8,1,1,7
15080,-10,11,7,32,9,3,-1,11
15085,6,-30,-11,24,-1,-4,-2,-14
15090,11,32,-2,-41,-2,0,-2,-10
15095,1,-24,-1,16,6,5,6,6
15100,33,8,3,-53,-8,-6,-4,4
15105,0,-3,-6,-14,-10,-8,-8,-12
15110,-2,-7,5,20,11,0,-2,-7
15115,17,30,-6,-20,0,1,-3,-2
15120,14,-43,-6,38,9,1,-2,-6
15125,-13,34,1,-33,-2,1,0,17
15130,-17,9,-2,-45,-13,-1,2,-9
15135,13,-12,8,63,15,-1,-1,3
15140,-9,0,-13,4,-11,-2,1,-12
15145,15,-7,9,6,6,-1,0,0
15150,-5,-5,-7,15,-9,-5,-4,-3
15155,-16,9,5,15,12,4,-2,-16
15160,-6,33,1,-47,-19,-3,-2,15
15165,4,-38,9,25,16,0,0,1
15170,-17,7,-14,13,-6,4,4,-2
15175,11,-8,8,-37,1,-1,0,6
15180,-31,25,17,56,3,-5,-4,2
15185,42,-3,-6,-22,0,2,3,2
15190,-6,9,-14,0,-2,3,5,-4
15195,7,-2,3,24,12,1,-1,0
15200,-18,-13,-15,17,-6,-8,-6,-1
15205,40,-18,2,3,-5,-6,-6,-7
15210,-9,-1,18,46,8,2,1,-2
15215,-10,-2,-40,-111,-22,-7,-4,-2
15220,4,-8,5,64,19,8,3,-1
15225,50,20,-9,-39,-12,0,1,-13
15230,-7,-20,-4,0,5,1,-1,21
15235,37,28,17,20,-9,-9,-4,23
15240,-4,-7,-12,-16,2,0,0,3
15245,-13,6,3,11,-2,-3,-2,-3
15250,-2,-28,10,-13,7,-1,3,-7
15255,-21,1,5,21,6,-1,-3,-8
15260,29,9,8,-13,2,4,3,-10
15265,-49,18,-1,-9,-1,4,1,6
15270,6,4,-6,-13,-7,-7,-7,-2
15275,-14,-12,7,-1,2,6,0,-14
15280,-2,-7,-11,-7,-2,-2,-1,1
15285,-28,-7,-2,24,4,2,0,10
15290,21,11,4,-16,-6,-2,-3,-19
15295,-43,-9,-7,44,-17,-8,-5,1
15300,10,19,11,-18,4,6,4,3
15305,22,-17,-20,50,5,-1,0,-2
15310,-71,-9,10,30,-2,-3,-3,-2
15315,35,43,-2,14,13,6,4,-2
15320,7,-8,1,34,-3,-3,-4,-2
15325,-15,-6,5,-45,-4,-2,0,5
15330,28,14,1,9,1,1,-1,4
15335,-13,-24,-10,-46,-13,-9,-3,-2
15340,-9,-8,6,18,6,0,-3,-6
15345,14,13,10,-6,0,4,7,4
15350,-2,5,-8,-3,8,0,-1,-2
15355,-29,-33,-1,7,0,-1,2,-7
15360,2,21,0,-31,-1,-2,3,8
15365,13,13,14,13,0,-6,-11,-1
15370,-49,0,-4,-6,-14,-6,7,9
15375,1,7,1,-25,-3,4,-1,0
15380,-4,-12,-10,48,-1,-2,-1,-25
15385,-23,-32,7,19,0,1,0,31
15390,44,30,3,36,2,3,3,1
15395,31,16,14,77,21,4,1,-5
15400,9,-7,-2,-49,-22,-7,-5,1
15405,-29,0,-11,43,2,-3,-2,-18
15410,28,-12,-6,-13,0,3,2,-8
15415,-6,-4,10,6,8,1,2,10
15420,20,-1,-14,-36,5,1,-1,-6
15425,-16,-10,-6,-13,-6,-10,-7,-5
15430,48,8,17,2,10,-3,-4,6
15435,-5,-9,-15,-48,-16,1,5,-1
15440,-14,12,6,32,9,4,3,8
15445,9,-8,2,-24,0,-1,-1,-7
15450,-1,-4,-12,-23,-1,-3,-7,-6
15455,12,3,11,2,-2,-2,-4,-3
15460,-8,-1,4,-20,-5,-1,2,7
15465,9,1,-5,10,3,4,2,0
15470,-6,-14,-5,-1,-9,-5,-6,-9
15475,-5,8,12,65,13,-1,-2,-3
15480,24,-21,-20,-9,-9,-4,3,2
15485,-18,2,4,-79,-7,-2,-1,-5
15490,-10,-10,-1,54,12,5,3,3
15495,-4,-8,-7,-81,-14,-3,-2,-1
15500,0,1,12,-37,-4,-3,-7,2
15505,29,10,0,3,-3,-4,-2,-7
15510,25,10,-30,-36,-18,-15,-12,-9
15515,-4,-5,0,-12,5,5,3,-4
15520,1,2,14,39,9,5,7,10
15525,18,-14,-1,-32,-8,-2,0,1
15530,-78,7,14,-8,1,-1,0,-1
15535,13,-11,1,18,-1,-5,-4,-4
15540,-25,-3,-14,-1,-6,-8,-7,-7
15545,-16,2,-14,22,4,3,3,-4
15550,30,28,-1,-20,-10,-2,-4,-4
15555,13,9,3,6,2,-1,-1,4
15560,-35,-10,-1,9,8,3,2,-5
15565,9,5,-3,-12,-7,-3,-1,0
15570,4,-1,1,60,8,3,3,3
15575,-7,4,11,-69,-4,0,0,-3
15580,24,-2,-26,-64,-5,-6,-7,-4
15585,-43,-5,11,79,7,-2,-5,-7
15590,-4,-8,-1,-1,4,10,13,8
15595,-34,5,8,37,-2,0,0,0
15600,-10,-6,-9,24,4,-2,-1,-1
15605,7,-5,7,-5,0,1,-4,-4
15610,-11,-3,-6,-19,-3,-3,-1,1
15615,35,12,-8,34,3,0,-2,8
15620,10,17,-1,2,-16,-6,1,-17
15625,-4,1,13,12,5,3,0,27
15630,11,-13,-4,4,0,2,-2,-1
15635,9,1,-3,-12,0,0,-1,-3
15640,-8,11,-2,20,1,-2,0,-2
15645,27,-5,5,-28,-4,-1,3,-5
15650,-51,-4,-3,-26,-13,-7,-5,-8
15655,7,-4,4,48,3,-1,-2,0
15660,-8,-3,-11,-78,1,4,1,0
15665,-5,-5,-4,68,-5,-1,3,-6
15670,16,-7,2,-39,-4,-4,-9,-1
15675,1,-13,-14,-12,-5,-4,-3,-11
15680,-38,-6,8,58,8,6,1,7
15685,14,-6,-8,-75,0,-5,-6,-9
15690,12,3,12,37,8,2,2,4
15695,5,-3,-17,-12,3,1,3,2
15700,-2,-9,-10,-77,-15,0,1,11
15705,11,-3,-7,15,5,1,0,0
15710,-88,-38,2,13,4,-4,-7,-22
15715,19,-4,6,1,4,2,2,3
15720,-33,2,4,15,8,0,-3,3
15725,38,22,-2,25,-4,-5,-1,-20
15730,20,4,1,-23,2,1,4,22
15735,-61,-29,-20,-15,-5,3,1,6
15740,44,0,21,41,14,3,0,0
15745,-3,2,-9,-5,-13,-8,-6,-3
15750,8,3,-8,-25,1,1,-3,-11
15755,14,-7,24,28,2,2,4,2
15760,10,-3,-18,-53,2,2,-1,-2
15765,-25,0,10,75,5,-2,-1,-3
15770,46,6,-6,-43,-8,-3,-1,8
15775,-38,2,-2,-16,-3,-3,-1,-2
15780,36,19,11,6,-6,-6,-3,6
15785,-87,-20,-6,-15,5,0,-3,-19
15790,11,-5,4,23,-7,1,1,-1
15795,-21,20,3,-8,-3,-2,3,10
15800,-10,12,-3,40,2,0,-2,-9
15805,9,-6,-15,-16,0,-1,-2,9
15810,36,11,4,-62,-11,-3,0,-6
15815,-6,-3,2,27,3,-1,-3,-7
15820,-2,-6,1,2,-4,0,1,-11
15825,10,1,4,-18,0,5,4,14
15830,-8,-5,1,37,10,5,2,0
15835,27,11,0,-42,0,-6,-5,-4
15840,-11,-21,-24,1,-13,-5,-4,-6
15845,13,-1,7,-49,2,2,-1,-2
15850,25,4,0,21,3,-1,-1,0
15855,-5,30,-6,2,-4,2,-1,-7
15860,9,-4,16,54,8,1,1,1
15865,52,53,-11,-27,-1,0,-1,5
15870,-14,-25,5,6,-10,-4,0,4
15875,25,3,10,-17,0,0,3,2
15880,3,-11,-17,7,6,5,2,6
15885,15,7,-1,23,-6,-1,1,3
15890,-4,2,-8,-49,-2,-5,-6,-4
15895,1,-7,-2,20,-2,-4,-6,-3
15900,-1,1,6,12,4,2,8,3
15905,-13,-12,5,7,0,-3,1,5
15910,-26,2,-1,15,1,-1,-1,-7
15915,-13,-20,-21,-20,-2,-2,-5,-1
15920,14,12,0,6,-5,-3,0,4
15925,-10,-11,-1,25,11,-1,-6,-4
15930,2,-7,-19,-18,-8,-7,-3,-5
15935,0,2,-13,2,-3,-6,-5,-4
15940,-8,4,17,-15,9,4,1,-6
15945,-2,-18,-19,-30,-9,2,7,-11
15950,0,3,-2,19,5,3,1,32
15955,0,0,15,39,5,-3,-4,-10
15960,8,-6,-6,-44,-7,-5,-7,0
15965,-39,-16,-6,14,0,-3,-1,-1
15970,-33,0,17,60,4,0,0,-18
15975,-26,11,5,19,3,4,4,4
15980,-7,-1,8,57,-6,-4,-4,1
15985,20,1,-4,-36,1,4,1,6
15990,6,-3,-1,-32,-6,-2,0,0
15995,13,3,-11,-36,-8,-3,-5,-4
16000,-27,-16,-3,44,-7,-4,2,-4
16005,57,7,6,-41,-2,-2,-2,10
16010,-21,3,26,41,12,4,3,-5
16015,27,-7,-11,-17,0,2,-2,-5
16020,-39,-26,1,50,3,-5,-4,-3
16025,18,-16,-2,-39,-16,-8,-6,-6
16030,17,4,2,16,6,4,1,2
16035,-2,-2,6,3,-1,3,3,-5
16040,19,4,2,3,4,2,-2,10
16045,-22,5,-8,8,0,-4,-2,-16
16050,7,0,-11,-15,4,1,1,28
16055,-6,-9,-14,1,-10,-3,1,-2
16060,18,13,-5,-15,-5,1,-2,-4
16065,-24,-6,-6,-8,7,0,-4,-4
16070,1,6,8,82,-1,-5,-6,-14
16075,24,-1,1,-45,-6,-10,-6,-1
16080,-27,1,-5,-16,-6,0,-2,-2
16085,-20,-4,-6,-25,-3,3,4,5
16090,6,-3,2,55,10,4,-1,-6
16095,11,2,8,8,2,-4,-3,-1
16100,-27,8,-8,4,-10,-8,4,6
16105,8,4,8,-4,10,12,11,11
16110,1,8,-1,-36,-9,-6,-5,-10
16115,-13,-8,9,35,0,0,-7,-25
16120,6,3,7,7,12,0,-8,23
16125,-22,34,-2,45,0,-3,-2,-33
16130,-23,9,-25,-48,-9,-3,-2,34
16135,16,-14,-4,-62,-9,2,12,2
16140,10,-14,-23,28,-10,-7,-11,-14
16145,-4,-8,20,70,11,0,0,10
16150,4,3,7,-20,-6,-4,-2,-23
16155,-13,10,2,14,1,-4,-6,-1
16160,-1,-3,-6,-60,3,0,3,-5
16165,-5,-15,5,-2,-3,1,-1,5
16170,23,-4,-3,5,-2,-3,-3,-4
16175,-3,1,4,14,0,3,4,17
16180,20,-4,11,-20,11,-1,0,-4
16185,-3,4,-10,27,-6,-2,-2,4
16190,23,-9,11,-45,0,0,-1,-1
16195,-49,14,-4,33,-2,0,1,2
16200,8,7,-13,-68,-3,4,2,-5
16205,19,-37,3,32,-5,-6,-7,2
16210,-50,-13,-2,17,4,-5,-1,-17
16215,32,58,-5,14,4,4,-2,-7
16220,15,-3,1,-2,-10,-3,0,11
16225,-31,-7,3,-58,-2,-5,-6,-9
16230,33,-1,17,-1,5,8,7,9
16235,-25,-19,-27,29,-7,-10,-20,7
16240,52,24,7,-72,-10,3,14,-10
16245,26,-3,3,16,-3,-3,-3,-13
16250,45,18,1,-9,-5,-1,-1,0
16255,-4,-15,6,10,-1,0,3,3
16260,-7,-1,-13,6,7,4,-3,-3
16265,5,-6,4,19,-2,0,3,19
16270,-30,13,-2,-22,-3,-6,-7,-23
16275,12,-13,25,88,12,3,4,11
16280,-36,-21,-20,-40,2,1,-6,-5
16285,11,22,5,-50,-3,-4,-1,0
16290,-17,-7,-2,7,5,4,2,2
16295,7,-10,3,-13,-9,-4,-2,-9
16300,18,-15,-13,29,5,-5,-4,1
16305,-74,14,3,24,9,4,4,-1
16310,8,-2,-7,-35,1,3,-2,0
16315,20,-10,-4,-13,-4,-4,1,3
16320,-17,7,4,-47,-2,2,-1,-9
16325,7,2,-2,-4,3,0,-7,-3
16330,20,7,5,34,-8,0,7,0
16335,-22,-8,2,0,1,2,4,9
16340,32,34,-6,-21,-11,-3,-4,-4
16345,-18,-53,0,16,6,0,-3,2
16350,-19,-1,-9,-30,-4,0,-3,-3
16355,30,16,6,33,15,5,4,2
16360,-11,-4,10,25,-2,4,6,2
16365,31,6,0,17,-3,-3,0,4
16370,-11,-1,3,-1,7,-5,-3,5
16375,-40,-27,-21,-76,-17,-7,-4,-7
16380,18,-22,3,3,3,-4,-2,2
16385,-11,12,6,0,5,2,1,-4
16390,-10,-6,-1,3,0,0,1,1
16395,2,0,-2,2,2,2,3,-1
16400,2,-5,-3,34,2,-5,-6,-1
16405,19,12,-15,-35,-12,-4,-4,-8
16410,11,0,10,17,5,5,6,8
16415,-7,6,-1,-13,-5,-5,-10,-7
16420,-3,-6,8,32,1,0,6,1
16425,3,3,-7,-20,-1,-1,3,5
16430,-16,-14,0,-3,-7,-3,-6,-4
16435,-19,-7,6,28,4,6,3,-7
16440,-32,2,12,-21,2,-6,-7,-7
16445,-9,-3,-5,14,-8,-8,-8,-18
16450,20,1,-5,11,1,5,2,15
16455,-2,9,-2,-34,-3,0,8,5
16460,-6,-1,5,40,9,5,1,11
16465,3,4,7,11,3,1,3,-1
16470,-4,0,-5,5,-6,-5,-7,-14
16475,4,3,3,-20,0,4,2,1
16480,-8,-1,7,37,2,-3,-3,-4
16485,-2,0,-19,-8,-10,-5,-6,1
16490,3,-2,-4,-2,-4,0,4,6
16495,5,3,6,-3,1,-4,-3,-1
16500,0,0,4,-7,2,2,0,-2
16505,6,3,12,4,-3,-2,-6,0
16510,0,-4,-2,7,4,6,4,5
16515,4,-5,-14,-9,-8,-8,-3,-5
16520,1,6,10,10,6,1,-2,0
16525,-13,-4,0,-9,4,-2,-3,5
16530,27,0,-6,25,2,0,-2,-4
16535,36,9,6,-29,0,3,6,7
16540,-6,1,-13,1,0,4,3,-7
16545,-33,-21,-1,-14,-7,-5,-2,4
16550,-8,1,8,28,1,-4,-4,-3
16555,11,3,-12,-4,0,-2,-9,-6
16560,0,-2,6,-1,-10,-3,-2,2
16565,30,1,7,20,11,1,5,13
16570,-15,-12,-28,-86,-18,-4,-5,-11
16575,-56,1,0,21,3,-3,-5,-2
16580,-2,2,2,17,1,1,-1,-2
16585,-11,4,-8,5,1,3,3,-5
16590,30,-4,4,2,-3,-4,-2,7
16595,-15,1,-7,-4,4,4,6,1
16600,2,-3,-6,9,-2,-2,-5,-2
16605,4,4,4,14,4,1,-1,0
16610,-11,1,-3,-3,3,-1,-4,-6
16615,1,-4,-3,12,-1,-1,-2,-6
16620,9,1,12,18,4,2,4,5
16625,-13,-7,-25,-70,-13,-2,-1,-4
16630,-4,1,2,27,3,1,-1,-2
16635,32,-4,10,10,-1,-1,-2,3
16640,-47,34,-5,-9,-1,-3,-3,-4
16645,67,-40,-2,-31,-5,0,-1,8
16650,-27,5,-4,-20,4,2,6,1
16655,2,-2,11,56,6,0,-5,-3
16660,25,8,6,12,-2,1,1,1
16665,-14,9,-3,16,4,1,-1,-1
16670,12,3,-6,13,-4,0,2,5
16675,-18,-10,-9,-31,-4,-6,-14,-3
16680,-3,-19,-16,1,2,1,11,-14
16685,-17,12,17,22,6,0,-3,-13
16690,47,-1,8,46,-8,-6,-2,21
16695,-52,3,-11,-99,-18,-6,-2,0
16700,20,-6,9,21,12,1,-9,2
16705,-4,5,-12,8,-6,1,0,-4
16710,7,11,17,64,16,4,2,-3
16715,20,-7,0,-45,-7,-1,-2,-6
16720,-17,-8,-13,3,-4,-5,-4,0
16725,11,6,8,-6,0,-1,0,4
16730,-20,0,3,-33,-3,0,-1,-7
16735,-1,1,7,40,10,-2,0,-2
16740,-6,-13,-15,-32,-7,3,1,-3
16745,0,3,-1,15,0,-1,-1,4
16750,-17,-5,-2,-17,-1,-2,-5,0
16755,3,0,-2,12,4,1,3,-13
16760,13,0,-7,-15,-7,-4,3,15
16765,-7,4,0,1,0,-1,1,8
16770,-10,-2,-9,-8,-5,-3,-1,-10
16775,16,-3,-4,2,-6,2,-4,1
16780,-5,1,6,-8,0,-5,-8,-8
16785,4,-1,-5,-14,3,3,-2,-1
16790,-17,-2,2,35,-8,-3,9,5
16795,25,-4,-30,-61,-9,-3,1,5
16800,-4,-4,7,39,5,-1,-1,-4
16805,0,5,-2,-6,2,1,-3,2
16810,-7,-1,15,1,2,1,-4,-8
16815,16,3,-1,22,3,1,0,2
16820,-10,-9,-10,-22,-8,-1,-6,1
16825,1,4,7,25,5,3,7,9
16830,7,-4,-25,-26,-3,1,3,-1
16835,-10,-1,10,32,7,-2,0,2
16840,3,4,10,1,3,-2,-2,-9
16845,-19,-29,13,10,-3,0,2,-5
16850,12,11,-3,-26,-4,0,-4,0
16855,8,4,11,9,3,1,0,2
16860,-8,-2,4,30,6,2,-1,3
16865,7,1,-12,11,-6,-6,-2,-7
16870,11,-5,13,-15,8,2,-1,-1
16875,-8,-4,-2,-13,-11,-1,0,0
16880,18,9,12,-3,-2,0,1,-2
16885,-4,6,-4,22,6,5,3,-1
16890,-21,-15,-5,-18,-10,-10,-7,-4
16895,12,19,3,11,2,3,3,4
16900,-41,-11,-16,-17,-1,-2,2,-2
16905,6,6,6,21,-4,-4,-5,-2
16910,3,-3,-8,6,6,3,0,0
16915,27,10,-8,-61,-21,-10,-6,-4
16920,-12,-71,7,24,7,-5,-8,-13
16925,-8,3,-27,-17,-4,0,3,14
16930,14,5,3,-1,2,1,-4,-7
16935,-1,1,10,18,12,6,2,-2
16940,3,6,-2,5,1,-2,-1,-5
16945,4,4,10,-28,-7,-6,-8,-12
16950,-16,-9,-14,9,6,1,-4,9
16955,-4,10,2,14,5,3,10,-1
16960,-27,-36,-10,-18,-7,-6,-3,-1
16965,1,18,0,8,0,2,-1,-3
16970,-5,11,-9,-36,-5,-4,-1,-3
16975,-26,-12,-6,11,2,-1,-7,-4
16980,33,18,0,3,-1,2,5,7
16985,8,-6,-6,-39,-4,0,2,-1
16990,-14,0,21,75,6,-3,-3,-4
16995,3,-14,-6,50,-6,1,-1,2
17000,0,12,-6,-59,-5,-3,-2,-2
17005,-10,0,-5,36,10,4,-2,-8
17010,7,3,2,-38,-10,-1,-1,3
17015,-42,-10,3,10,8,-1,6,-12
17020,-9,27,9,22,0,1,-6,-2
17025,29,-29,13,-9,-1,-2,7,12
17030,-15,-21,-15,-19,-7,-2,-2,-10
17035,3,-1,5,0,-3,4,-1,8
17040,5,12,0,32,3,3,-5,-1
17045,-5,-15,-22,-29,-12,-10,-5,-31
17050,27,1,14,58,10,1,1,28
17055,7,27,-2,50,7,6,1,-2
17060,-1,-16,-16,-114,-9,-2,4,-1
17065,-13,4,11,42,-6,-5,-7,-1
17070,1,7,13,-19,0,-3,-1,-9
17075,3,-1,-7,-24,1,0,-2,1
17080,-37,-2,16,60,-2,-5,-2,-3
17085,44,14,-5,-44,5,1,-2,6
17090,-22,-7,-19,-29,-15,-3,-2,-11
17095,7,-15,7,15,10,-3,-2,3
17100,14,8,-1,-1,-2,1,-1,-1
17105,-15,-7,8,19,3,7,4,9
17110,-10,1,2,-17,0,-2,1,1
17115,4,-2,-5,4,1,-2,-7,0
17120,42,16,-3,13,-5,-4,-1,-5
17125,-1,11,-4,-12,-2,-4,-4,-2
17130,-50,-8,-7,2,5,3,4,2
17135,4,4,-5,-29,-8,-4,-1,-9
17140,13,-9,0,14,3,1,2,7
17145,-15,-4,5,-33,0,-1,0,9
17150,20,27,5,50,-4,-1,-3,-12
17155,-2,-9,-6,-17,-8,-5,-2,2
17160,-11,2,-4,-16,4,0,-1,-6
17165,-2,7,3,9,-2,1,5,1
17170,1,-11,-5,15,-3,-7,-7,2
17175,-5,14,5,-1,5,0,-2,-1
17180,8,0,-12,-24,-9,-1,0,0
17185,-6,-10,3,-3,5,2,2,7
17190,-4,1,-1,-31,-1,3,-2,-9
17195,6,-6,8,23,4,0,2,2
17200,-12,0,8,18,5,-1,-1,2
17205,23,7,-7,-40,-5,-3,-2,1
17210,-68,-17,1,12,-1,1,-3,-8
17215,-2,6,1,-14,5,-1,-1,1
17220,7,8,0,-17,-6,-2,3,8
17225,12,-9,7,44,3,-1,-5,-9
17230,-28,6,0,-51,-2,1,2,-3
17235,-1,-11,-4,-19,-4,-2,-2,-1
17240,-2,1,4,-3,-6,-2,-3,-5
17245,-9,11,0,-25,-2,-1,5,14
17250,25,-1,4,37,6,-3,-3,-4
17255,12,-5,-9,50,-3,4,3,4
17260,-23,-3,7,-54,-16,-4,-1,-20
17265,-36,-14,-6,-2,5,-2,-8,11
17270,7,31,-3,-14,-3,5,5,1
17275,21,9,4,38,6,4,2,6
17280,12,8,-17,-39,4,4,2,15
17285,-27,-42,1,10,-2,-10,-9,-22
17290,1,2,0,13,-6,-2,0,3
17295,-14,-8,-8,-22,-11,-2,0,1
17300,20,4,10,23,9,5,5,-3
17305,-8,9,-13,-22,-9,-3,0,-6
17310,22,-11,-3,11,-1,-6,-5,1
17315,-19,-9,2,-12,2,0,3,-11
17320,69,9,4,11,-1,-1,-2,15
17325,-53,-1,-1,18,0,-3,-4,3
17330,6,-8,-10,-32,-7,-5,-3,-9
17335,3,2,3,1,-1,1,1,3
17340,-22,-7,-2,11,6,0,-2,-1
17345,16,1,-13,-1,-4,-1,-2,-9
17350,8,-17,18,82,20,6,4,-5
17355,20,20,-22,-98,-21,-12,-6,12
17360,-13,-11,9,-21,5,-1,0,0
17365,14,12,4,40,11,10,6,2
17370,-7,-4,9,-59,-7,-5,-4,-1
17375,2,-6,0,50,10,-1,-9,-14
17380,-16,-2,-22,-4,-3,4,8,-7
17385,11,5,9,31,0,4,-2,6
17390,20,-3,-1,-63,1,2,8,1
17395,-33,-3,8,-21,4,0,-5,-8
17400,-29,41,-1,18,-7,-5,-2,11
17405,-9,-2,-3,-29,-10,1,2,-4
17410,26,-2,-4,58,4,-1,-1,1
17415,-4,-5,7,-1,-3,-1,-2,-2
17420,-12,-13,2,-6,1,-1,-4,3
17425,15,-4,-3,14,-5,0,5,-15
17430,0,14,3,-9,-2,-1,-2,10
17435,33,17,-8,-48,-8,0,3,-2
17440,-38,-50,1,31,4,-2,-7,0
17445,-8,3,19,-9,3,-2,-3,-7
17450,11,4,-5,27,-4,-3,-4,-4
17455,-12,-4,2,-12,7,2,3,3
17460,34,-4,-11,10,-16,-6,-5,-23
17465,-5,-11,-2,-16,4,0,6,29
17470,-77,20,10,53,5,1,0,-9
17475,6,-26,4,7,6,4,2,0
17480,2,5,-7,-52,-10,-2,-3,4
17485,9,-1,0,-3,3,2,1,-2
17490,10,-5,-13,-15,-7,-3,-5,-2
17495,-7,3,-1,39,3,1,3,1
17500,-4,-2,18,10,4,-1,-1,-2
17505,6,0,-4,36,-3,-1,-4,-8
17510,4,9,-3,-47,-4,-1,-2,8
17515,-1,-23,-7,-37,-7,-3,-2,3
17520,3,10,3,28,3,3,2,0
17525,-21,-14,-1,31,0,-9,-10,-15
17530,23,9,9,-3,1,2,6,5
17535,-3,-2,-9,-4,-4,0,0,-1
17540,11,3,7,-3,3,-2,-1,4
17545,-34,-3,-5,-12,-1,-3,-7,-1
17550,15,-16,-8,-44,-7,0,4,-3
17555,-4,0,9,49,2,-1,-3,1
17560,-21,7,-9,-47,-1,-1,3,-11
17565,20,13,3,-19,-5,-1,1,17
17570,-16,-16,-6,29,6,2,-3,-1
17575,-19,-20,-5,-12,-12,-11,-10,-14
17580,46,19,11,38,10,2,1,7
17585,7,15,6,-13,3,3,3,-2
17590,24,-4,-8,-44,-5,2,2,5
17595,-31,-29,-10,-2,-7,-2,1,0
17600,13,-5,-1,31,1,-2,-6,-16
17605,13,-5,2,-2,6,3,3,11
17610,16,9,9,33,-2,-1,-2,2
17615,30,18,-3,7,3,-2,-5,-4
17620,-27,16,-4,-32,-2,0,0,-2
17625,5,1,2,26,1,0,2,-6
17630,8,0,0,12,-1,1,0,4
17635,16,3,-11,-24,-7,-2,5,8
17640,-42,0,6,-1,2,0,-4,-9
17645,1,8,-8,37,2,-4,-3,-3
17650,-1,-13,4,-36,1,3,0,-6
17655,-8,22,24,79,4,0,-1,1
17660,-7,-30,-28,-81,-9,1,2,10
17665,10,-14,-12,27,11,4,4,-10
17670,-14,-18,-12,-9,-9,-4,-3,-13
17675,-10,17,17,31,12,5,2,21
17680,-16,-28,-5,43,3,-2,-1,3
17685,1,-9,7,-27,-12,-6,-5,-8
17690,14,20,-6,21,-2,-1,-1,2
17695,6,-9,2,-7,4,5,8,-4
17700,13,2,-6,9,5,1,-2,-6
17705,-34,9,-4,-38,-8,0,-2,6
17710,11,-7,-4,50,7,-1,-1,4
17715,-6,-1,-2,-17,-9,-6,-6,-9
17720,1,2,6,-6,0,-1,1,2
17725,51,-9,-9,-9,0,0,1,-15
17730,-6,-27,-1,-1,1,0,-3,6
17735,-24,-4,3,63,3,-2,4,2
17740,24,25,-3,-54,-4,-3,-5,3
17745,-5,-15,-5,33,-1,-2,-2,-3
17750,4,12,-12,-72,-5,-3,-5,0
17755,20,-5,6,61,10,1,4,-15
17760,-12,13,14,69,10,1,-2,11
17765,-19,22,-6,-28,1,-1,-7,-3
17770,-5,-7,0,-37,-8,1,9,2
17775,19,6,2,-48,1,3,0,7
17780,-3,-2,8,10,0,-3,0,-23
17785,6,2,-1,-17,0,-2,-1,32
17790,-7,0,6,61,5,1,0,-13
17795,-9,5,-8,-81,-9,-3,-5,1
17800,19,-1,-3,22,-3,-3,1,3
17805,-29,-11,-3,3,-3,0,0,-2
17810,40,0,2,6,-4,-2,4,-3
17815,-33,3,1,11,-4,-2,-3,-3
17820,10,-1,-3,20,-3,-2,-3,12
17825,8,-25,11,34,-4,-2,2,0
17830,-27,13,-13,-84,1,0,0,1
17835,-3,-34,8,90,10,0,-3,-4
17840,-11,-13,-3,-76,-15,4,1,6
17845,10,-4,-4,10,-4,-5,-4,-7
17850,-14,0,8,6,6,2,6,5
17855,15,2,-20,-21,-3,0,-3,-11
17860,27,-5,-6,17,2,-3,1,15
17865,-20,5,7,-17,-5,-1,-3,7
17870,-35,17,1,4,1,0,-6,-14
17875,-13,-11,11,-5,0,-1,2,13
17880,46,-16,-18,34,3,-2,-3,-13
17885,4,12,-5,-35,0,1,-2,-14
17890,11,0,-1,44,0,-3,-5,4
17895,-4,11,-2,-48,-9,-1,-1,-6
17900,-12,25,18,56,5,0,-2,2
17905,6,-5,-5,-79,-4,0,5,2
17910,-2,-12,-12,-36,-6,-5,-5,-8
17915,4,7,-5,37,5,-3,0,-2
17920,-25,-2,7,30,-2,-1,-1,-7
17925,29,4,-12,-41,-3,1,-1,3
17930,-12,0,8,4,-4,-3,-2,-11
17935,2,10,-5,-88,-9,-4,-5,-5
17940,-2,-1,7,63,7,1,7,11
17945,-2,-4,-9,-45,-9,-3,-4,-13
17950,49,-3,-5,11,6,3,1,13
17955,-30,19,-7,-18,-11,-2,-2,5
17960,38,-41,1,-6,2,5,5,11
17965,-111,28,23,84,13,-2,-9,-19
17970,-7,-36,-27,-62,-19,-6,-7,-4
17975,50,49,4,-13,-7,3,7,28
17980,-42,3,10,16,1,-1,1,-8
17985,44,-17,-3,-11,-1,-1,4,-4
17990,-22,1,4,8,0,-4,-3,0
17995,-3,-22,7,16,4,-2,-9,-27
18000,-17,0,-14,-51,-11,-2,1,16
18005,-19,4,1,14,3,3,5,0
18010,-11,12,12,51,-1,-3,-3,-9
18015,32,-19,-4,-14,1,3,2,-3
18020,-3,14,5,-27,5,2,0,-8
18025,17,-19,-5,74,6,-5,-5,-1
18030,-25,6,-3,-50,-7,2,0,3
18035,-9,7,-6,20,-5,-1,2,5
18040,3,-12,-20,-70,-15,-5,-3,-3
18045,16,11,14,28,11,5,0,0
18050,9,-3,3,48,6,-1,-3,-14
18055,21,-15,-2,42,0,-4,-7,8
18060,-53,-18,9,11,16,8,10,-1
18065,11,6,-4,-36,-27,-3,4,-16
18070,34,-5,-11,-46,3,1,-6,28
18075,-6,8,21,31,-4,-4,-4,-24
18080,47,8,-15,18,-5,-4,-5,0
18085,-45,-15,22,-17,10,4,4,8
18090,5,3,13,60,10,4,4,-3
18095,-25,11,0,-46,-2,1,3,5
18100,-8,9,3,34,-8,-3,-6,-14
18105,37,15,3,11,-2,-3,0,18
18110,-8,3,-2,-32,-3,0,2,-8
18115,17,-12,-1,18,1,-1,-2,2
18120,-10,24,-4,-39,-6,-3,-3,-3
18125,33,-25,-14,-36,-5,-1,1,1
18130,11,6,8,53,-7,-5,-3,-4
18135,-28,-6,-4,-12,10,-1,-5,-4
18140,5,-4,6,11,-3,2,-2,-7
18145,34,20,-11,14,0,-4,-1,-2
18150,-50,-40,-5,-65,-13,-3,3,8
18155,2,-6,0,-47,-11,-6,-5,-10
18160,-8,2,2,33,10,2,-8,-12
18165,19,-53,-8,3,3,4,13,13
18170,-11,27,4,44,-2,-6,-1,-3
18175,-8,9,-3,-50,-3,1,0,1
18180,27,0,-9,-48,-2,-9,-8,-8
18185,-23,-5,-16,-25,-12,-3,-6,-3
18190,27,5,3,21,8,4,0,2
18195,-5,-8,2,27,4,2,1,0
18200,-9,11,14,-1,3,1,2,0
18205,16,8,-1,40,-1,1,1,7
18210,-60,-13,-11,-58,-9,-6,-2,-17
18215,32,24,2,8,2,2,2,8
18220,-18,-38,-6,16,9,1,2,-5
18225,-28,-4,-10,-12,-11,-5,-8,11
18230,17,3,11,20,11,5,5,-1
18235,-9,-19,-5,-1,-3,-1,0,-3
18240,-11,6,2,19,1,-4,3,9
18245,30,33,11,28,8,-2,-3,-20
18250,-1,-6,-11,-71,-7,0,-5,10
18255,-11,-9,-10,58,1,-1,2,0
18260,9,3,-3,-66,-5,-3,-1,-2
18265,-11,7,7,37,4,-2,-1,-1
18270,5,5,-2,14,5,4,-2,-1
18275,21,7,-1,-7,-14,-4,0,-30
18280,24,17,0,-1,-3,1,11,43
18285,-83,-40,-3,26,3,-1,-5,-9
18290,11,15,9,45,8,7,5,3
18295,-23,-23,-20,-74,1,-4,-6,-11
18300,47,6,11,42,-3,1,1,-5
18305,4,12,3,-46,-7,-2,-1,-2
18310,8,-7,-13,14,-9,-4,-1,5
18315,3,-3,16,31,6,3,2,10
18320,-52,20,-6,-36,3,2,-5,-19
18325,58,-4,-10,-24,-5,-5,3,15
18330,-44,-33,7,16,-1,-1,-1,-9
18335,4,18,-2,36,5,1,0,8
18340,-2,12,5,17,2,-2,-4,2
18345,-37,2,3,44,5,2,-4,-35
18350,19,24,6,15,-3,2,1,21
18355,0,-9,-8,-10,6,0,2,7
18360,-21,-10,11,-8,-7,-2,1,-12
18365,23,10,-8,11,-1,4,1,4
18370,26,-1,-15,-61,0,-3,-3,-10
18375,-17,7,10,21,3,3,0,6
18380,0,-17,0,61,13,-1,-5,-15
18385,-8,7,-6,-34,-11,-5,-2,1
18390,-2,8,-3,2,2,2,1,1
18395,24,-7,-4,-5,5,0,-2,-1
18400,54,-9,6,3,-6,0,1,-3
18405,-5,22,-14,-39,2,-4,-5,-17
18410,-73,-16,-7,-66,-10,-8,-8,-1
18415,8,-3,-1,42,1,1,3,28
18420,19,5,5,33,4,2,1,6
18425,-17,-3,-5,-61,1,2,0,3
18430,62,12,2,43,5,1,0,-16
18435,-14,-2,-4,-25,-8,-2,0,-10
18440,-19,-12,-9,7,-2,-9,-6,-2
18445,7,12,10,-25,-6,-5,-5,5
18450,-4,2,3,54,10,1,1,-5
18455,-8,-8,0,1,-4,2,0,-4
18460,-5,-9,-4,18,2,1,0,-1
18465,9,-12,-1,-13,-5,-3,1,-5
18470,-16,5,24,14,3,1,0,-21
18475,-37,13,-12,-4,0,1,-1,16
18480,-46,-40,-17,-46,-21,-7,-5,-7
18485,7,20,7,24,5,3,-2,2
18490,-2,-32,-5,21,2,0,1,11
18495,3,1,0,-26,4,-2,-1,-22
18500,1,11,3,0,4,1,1,5
18505,21,1,4,52,4,5,5,14
18510,-28,-2,-11,-42,-10,-4,-4,-12
18515,-2,-14,-6,-10,-10,-8,-7,-9
18520,14,-3,-3,6,2,4,4,13
18525,-3,-2,-1,-19,-5,-4,-4,-10
18530,46,16,4,-12,3,2,4,9
18535,-14,-2,-2,-21,2,-1,-2,8
18540,-21,14,2,-53,-6,2,1,-6
18545,-20,-20,0,-15,-5,-10,-8,-8
18550,91,9,-7,11,-11,-8,-6,15
18555,-14,0,-20,-29,-10,3,6,-14
18560,15,-10,4,-34,-9,-1,1,15
18565,1,3,-9,-10,7,5,2,5
18570,-18,-10,6,-3,-2,-1,-4,-2
18575,20,7,9,31,2,-2,-3,-3
18580,-18,13,-3,22,5,-1,-2,-28
18585,34,-11,-4,-21,-11,1,10,42
18590,-19,11,-12,-1,0,0,0,1
18595,6,13,-7,32,3,-5,-6,-2
18600,24,-18,-6,-73,-10,-4,-2,-3
18605,-16,-8,3,-2,7,1,-5,-10
18610,-34,0,2,12,5,4,5,-4
18615,-8,-3,17,10,3,-2,0,4
18620,33,-7,-7,34,-17,-10,-5,0
18625,-25,4,8,-38,1,2,-1,-8
18630,34,16,-16,8,-7,0,1,6
18635,-57,-57,5,39,9,3,-7,-20
18640,1,2,5,20,16,0,4,19
18645,8,4,-1,23,-4,2,-1,-7
18650,-19,-2,5,38,7,0,1,-5
18655,-44,1,5,1,-8,0,2,6
18660,25,-2,-4,16,4,2,-4,-17
18665,-9,9,-4,15,-3,1,0,5
18670,-4,-8,-2,-13,4,0,-4,-7
18675,29,18,2,-29,-6,-1,4,7
18680,-32,-6,-5,-7,1,-1,-2,-3
18685,72,6,1,14,5,3,0,-13
18690,-78,-41,-1,0,0,-1,-1,11
18695,55,42,0,-22,-2,-4,-2,-2
18700,-15,3,-1,22,1,-1,1,6
18705,5,-12,7,78,6,-2,-2,-11
18710,4,0,-18,-31,-11,-7,-5,-6
18715,13,-3,-4,-29,4,5,2,6
18720,-14,-3,-1,-54,-16,-4,1,-2
18725,-25,9,13,40,0,-2,-1,0
18730,25,12,5,-4,2,3,1,1
18735,-6,-4,4,-9,1,0,-2,0
18740,-4,14,-9,-7,-1,-2,-5,-4
18745,-2,-33,2,18,2,0,5,-4
18750,0,10,13,18,1,-3,-3,1
18755,11,-11,-21,-17,-4,-1,-2,-5
18760,-20,-14,-7,-13,1,-1,-6,-3
18765,-35,3,-6,-7,0,0,1,5
18770,77,17,8,17,-1,3,2,2
18775,-71,-28,9,3,3,-2,2,0
18780,8,6,-9,37,14,0,0,-2
18785,-25,-2,-7,-39,-16,-8,-7,1
18790,-15,3,-1,-35,-6,2,-2,-11
18795,53,4,10,57,0,-3,-3,5
18800,-39,-33,8,24,1,1,-1,-4
18805,2,3,-4,-67,-3,-2,0,-5
18810,-6,3,-17,-54,-5,-5,-1,9
18815,-12,4,-4,23,-1,2,-1,5
18820,-2,0,2,-54,3,1,1,3
18825,16,-5,-2,30,6,0,-1,0
18830,-3,2,10,22,3,1,-4,3
18835,8,2,-6,-20,-2,-1,8,-1
18840,4,-33,-3,-11,-3,-1,1,7
18845,7,21,-6,-21,-5,-3,-1,-5
18850,21,25,6,18,2,2,2,1
18855,-27,-40,0,-10,-4,-1,-3,-1
18860,39,17,14,-9,-2,2,1,3
18865,7,-2,-5,-35,2,-2,-2,3
18870,-17,-17,-1,30,9,1,-1,-10
18875,20,21,10,1,-19,-2,-1,1
18880,-7,-3,-15,-16,-6,-7,-7,-11
18885,-12,3,14,97,11,7,4,2
18890,-4,-6,-14,-25,-6,-4,-3,-4
18895,3,3,-10,-14,0,1,1,4
18900,8,13,3,-7,7,4,1,-4
18905,-7,-4,-7,-47,-2,0,0,6
18910,-3,-7,6,18,-1,-3,0,-4
18915,-11,6,-8,15,4,1,0,-4
18920,18,25,13,-11,-7,0,2,6
18925,-28,-1,-3,28,1,-2,-6,-19
18930,17,-20,2,23,0,0,1,15
18935,-6,-2,2,-14,7,1,1,5
18940,24,30,-7,36,2,0,0,-2
18945,-3,-35,9,42,-2,-2,0,7
18950,37,41,-17,-31,-12,-2,-1,-10
18955,-4,11,3,42,9,-2,1,-20
18960,-17,-17,-10,-2,-9,-4,-5,10
18965,-13,4,6,-15,2,0,-1,-5
18970,-16,-11,6,-38,-6,-5,-1,-4
18975,24,5,-14,-22,-1,2,-3,8
18980,-15,-3,-5,20,5,-2,-4,-7
18985,0,-5,-6,7,4,2,2,3
18990,-47,12,0,24,8,2,-2,1
18995,2,-27,-28,-50,-5,-1,-3,-10
19000,-1,5,14,11,8,5,8,15
19005,17,24,-3,5,7,1,-1,1
19010,-31,-38,-12,12,-10,-7,-1,0
19015,24,9,12,-26,-5,-2,-1,-5
19020,-8,-1,2,32,12,1,2,-3
19025,3,-7,-2,-3,-5,-4,-5,2
19030,8,15,15,40,5,4,4,-4
19035,0,0,-5,17,-11,-3,0,2
19040,-33,-8,14,-20,4,-3,-4,-13
19045,8,34,-2,5,6,8,2,-26
19050,4,-7,6,-1,-5,-2,1,33
19055,-7,13,17,-14,-1,3,-7,-5
19060,-2,2,-12,53,-3,-1,3,5
19065,21,-7,-12,-77,-13,-5,-2,-10
19070,-41,-6,4,16,3,2,0,-11
19075,13,16,6,3,10,4,1,13
19080,14,0,-2,-33,-3,-2,-2,-4
19085,-33,-34,-21,-50,-16,-11,-10,-5
19090,-1,-34,-3,-35,-17,2,1,-5
19095,21,-4,4,43,7,3,5,9
19100,0,-4,0,-49,-7,-1,-1,-8
19105,-3,3,-2,82,5,0,-2,9
19110,12,16,3,-51,6,-2,-2,8
19115,-12,-1,2,71,-10,-5,-7,-18
19120,26,1,-11,-5,3,4,4,5
19125,-4,-16,9,40,0,-5,-2,2
19130,16,1,-5,25,0,3,6,-1
19135,6,12,-4,-20,-7,-5,-2,2
19140,1,-9,-2,1,-5,-3,-3,0
19145,17,3,8,-16,1,1,3,-4
19150,-27,10,1,17,-2,-2,3,25
19155,34,-28,7,-12,11,3,-1,-6
19160,-58,-7,-16,-12,-1,-6,-4,-1
19165,35,-13,13,-27,-7,2,2,-2
19170,-6,0,-12,104,24,3,-6,-16
19175,2,14,-8,-71,-19,-7,-5,5
19180,23,-7,2,12,0,0,-3,-1
19185,-31,-3,-1,-50,4,4,6,7
19190,22,15,12,6,4,3,0,-9
19195,-19,-3,-7,1,1,-6,-5,1
19200,9,-1,10,3,7,5,1,2
19205,-7,4,-1,28,0,-1,-1,-3
19210,16,6,-8,6,-7,-5,-5,-1
19215,9,2,-8,-47,-2,2,3,-6
19220,-51,-7,9,60,2,-3,2,-5
19225,35,2,-5,-21,3,0,0,11
19230,-16,15,-3,-44,-4,3,9,4
19235,-17,-40,-6,3,-17,-4,-8,-27
19240,10,-37,-8,-15,10,0,1,30
19245,-27,2,4,-24,-10,-5,-4,-3
19250,13,-11,-3,-17,-8,0,-5,2
19255,-20,14,7,46,6,-3,-5,-3
19260,-1,-1,-21,-51,-24,-5,-1,-14
19265,20,-8,-2,12,0,-2,-2,4
19270,-38,-12,-4,-34,-1,-2,-3,-12
19275,4,24,5,14,14,11,5,4
19280,0,-5,-5,-7,-16,-16,-16,-16
19285,2,2,-17,37,-1,3,4,15
19290,15,0,-13,-22,3,3,4,-6
19295,7,1,5,3,7,-1,1,10
19300,29,19,15,56,20,10,5,-1
19305,-2,16,-16,-49,-21,-6,-6,-3
19310,1,7,12,1,7,-1,-2,4
19315,-14,-4,-8,-1,7,3,1,2
19320,27,12,5,-12,3,2,-3,5
19325,-26,-6,-4,16,0,-1,0,-6
19330,11,3,-1,-53,-10,-1,-4,-6
19335,4,0,-19,13,-6,-4,2,10
19340,-14,8,0,1,0,-2,2,-6
19345,-2,-1,14,-1,5,0,-3,-1
19350,26,0,1,18,-4,-2,0,8
19355,-37,0,5,-3,-9,-3,-2,3
19360,-2,1,4,27,7,4,4,1
19365,-14,-14,-6,40,16,-5,-5,-9
19370,13,-2,-1,5,-5,-1,-2,-4
19375,-2,-1,-5,-52,-14,-7,-2,-1
19380,41,4,26,40,9,4,2,-14
19385,-13,13,14,-6,1,0,0,24
19390,-22,-15,-10,2,0,-1,-2,-16
19395,32,-3,8,-31,0,-4,-3,1
19400,7,16,-12,-19,-8,-1,-2,-6
19405,15,-35,6,5,5,1,8,-5
19410,-21,60,4,-2,-4,-4,-4,1
19415,10,7,-4,35,5,2,5,18
19420,-26,-7,5,-27,-4,-5,-5,-2
19425,21,-9,-7,-1,2,-2,-3,-25
19430,-33,3,-1,22,-3,2,3,7
19435,4,5,17,66,20,0,-1,5
19440,-20,9,-5,-8,-5,3,3,6
19445,11,12,2,-19,-3,0,2,9
19450,12,-20,-3,10,3,-2,-4,-20
19455,-27,5,6,4,7,2,-2,-6
19460,11,-11,-8,-45,-11,-7,-9,9
19465,-32,16,5,0,-7,-2,-2,-32
19470,47,-9,6,14,8,2,0,8
19475,-17,-1,-17,-29,-11,-2,1,7
19480,8,-19,-9,16,-2,-2,1,-27
19485,4,-36,-9,-30,-1,-2,-16,21
19490,61,34,13,-12,-3,1,11,-9
19495,38,-11,0,9,5,0,0,54
19500,-52,3,-6,-5,-5,0,-1,-19
19505,17,-4,-4,2,-1,3,3,10
19510,-14,-22,2,11,-2,-3,-5,-17
19515,14,-6,9,-27,-3,1,-2,-17
19520,-1,4,6,29,5,-1,0,4
19525,-23,24,5,10,-5,-2,1,-6
19530,-17,-42,-11,-34,-5,-4,-5,6
19535,-22,16,1,24,3,1,-5,-20
19540,18,7,8,0,-8,-2,1,20
19545,-46,8,-1,8,8,0,-1,-11
19550,14,3,-1,0,-8,0,-2,-1
19555,-6,-9,6,22,2,0,3,-6
19560,-14,-14,-4,-58,-4,-3,-9,-6
19565,5,6,6,10,1,2,4,2
19570,1,5,6,65,4,0,8,17
19575,-21,4,-10,-33,-5,1,-4,-17
19580,17,5,0,17,13,5,3,11
19585,16,9,-2,-4,-9,-2,-1,1
19590,-17,8,0,-7,6,-5,-10,-6
19595,31,17,0,23,-8,-1,5,2
19600,17,9,-1,-48,1,-1,4,-10
19605,23,-29,-10,5,4,2,4,27
19610,2,-2,8,32,5,1,-4,-2
19615,-15,-6,3,-18,-8,-1,-2,-5
19620,-11,-6,-10,-72,-3,-1,-7,-9
19625,19,32,3,9,4,3,10,9
19630,5,-15,5,6,-3,-4,-3,5
19635,-18,-23,-6,-4,5,0,-3,-6
19640,-38,15,7,24,-9,-9,-8,1
19645,31,-5,8,11,-11,3,18,13
19650,-58,8,-3,-36,-8,-2,-5,-7
19655,-30,0,9,2,4,4,2,-6
19660,44,1,-5,19,-1,-3,-5,-2
19665,-20,-42,-3,8,-1,-8,-13,-16
19670,-30,-2,-5,-21,-2,-7,-4,-28
19675,21,24,2,1,3,-2,0,22
19680,-13,-22,2,32,0,4,6,6
19685,-4,16,-10,-69,-11,-4,-12,-7
19690,17,-1,-3,34,4,1,5,-16
19695,9,-7,-4,-12,-3,-1,-5,-6
19700,12,-2,-7,11,2,-2,-5,-1
19705,6,8,-13,7,5,3,13,-4
19710,-39,3,3,-1,-3,-2,-9,-7
19715,-9,0,-9,5,9,-2,-2,-8
19720,5,-19,-8,10,-10,-3,6,18
19725,-4,2,9,6,2,-1,-13,-7
19730,23,-20,-16,-9,-1,-1,1,11
19735,-11,-3,-7,-3,0,-2,12,4
19740,13,16,8,28,11,5,0,-5
19745,12,-1,10,6,-3,-3,-4,1
19750,22,-12,3,-24,1,0,-3,12
19755,-19,5,12,-9,-12,-7,-7,-23
19760,-18,-1,-13,-13,-15,-2,3,15
19765,2,9,12,66,7,3,-4,-2
19770,12,5,-6,-46,-3,-1,3,9
19775,2,-12,4,-40,-2,-1,-2,-10
19780,-5,5,-3,-12,-2,-2,-4,-4
19785,-32,1,-11,-22,-9,-1,7,8
19790,-10,0,5,5,2,-1,-5,2
19795,7,-7,-4,-4,2,4,4,-4
19800,-7,-5,0,28,3,3,0,1
19805,-13,1,0,10,-3,-5,-7,-7
19810,1,-7,-16,-62,1,1,5,-4
19815,11,-6,-12,33,-10,-5,-14,-1
19820,-9,11,6,33,12,2,1,-4
19825,-1,2,-10,-11,7,10,11,10
19830,8,1,7,21,3,-2,3,0
19835,13,-3,5,-16,-3,-6,-7,-12
19840,9,12,-8,-27,-10,-3,3,8
19845,-41,-32,14,7,2,-3,-12,-8
19850,1,8,11,45,14,4,2,14
19855,-17,-5,3,44,-32,-8,0,-24
19860,29,-32,-8,-71,-9,-2,-4,11
19865,4,14,-6,-6,-4,0,2,1
19870,13,6,4,37,6,1,-16,6
19875,-35,-63,3,38,13,0,11,-18
19880,20,21,3,-4,4,6,0,20
19885,-2,-1,-10,-16,-9,-2,-4,-6
19890,22,-10,5,19,-4,-1,2,-1
19895,-6,12,-3,-26,5,1,-3,12
19900,-14,-2,2,17,-5,-2,2,-14
19905,8,9,1,-33,12,4,-5,-6
19910,-3,-3,-6,-26,-4,-1,-1,6
19915,31,4,1,-5,-1,-2,-1,15
19920,-25,2,1,12,13,1,0,-12
19925,9,23,2,-2,-22,-1,7,-4
19930,20,-5,-8,5,-8,-5,-1,0
19935,13,6,4,3,9,2,-4,10
19940,-9,-3,-1,13,-1,1,-6,-1
19945,2,9,6,23,9,-1,-5,-1
19950,-3,1,3,-8,-7,-2,7,-6
19955,-1,3,-19,-42,6,2,0,13
19960,6,0,8,34,-10,-5,-3,-8
19965,18,-4,-12,-13,0,0,1,-2
19970,-18,4,-5,27,5,-3,0,0
19975,6,8,17,10,5,3,-1,-1
19980,-21,0,-8,-5,-9,-6,-8,-11
19985,-6,-16,-21,-45,-14,-2,-5,-7
19990,13,0,0,-4,-2,4,8,7
19995,19,25,1,5,2,-1,-4,-1
20000,-20,-37,2,-3,2,-2,1,-18
20005,31,13,13,25,5,-3,0,22
20010,-23,0,-2,-40,-1,-5,-8,-10
20015,-3,-1,-4,13,-8,-1,0,1
20020,10,9,-2,-49,-6,4,3,0
20025,-10,32,-5,51,5,-5,-6,-8
20030,22,10,7,6,2,2,-2,13
20035,-5,-6,-4,-15,3,5,12,2
20040,3,9,7,38,-10,-1,0,13
20045,-13,-12,-11,-31,-4,0,-5,-6
20050,-51,11,4,-16,-10,-5,4,0
20055,-6,15,1,23,11,-2,-14,-6
20060,12,-6,4,8,16,9,6,-10
20065,13,4,3,32,-10,0,6,18
20070,5,-12,-3,11,6,2,0,-19
20075,6,-17,-8,4,1,-5,0,35
20080,-21,43,1,-24,9,0,-2,-7
20085,6,-4,5,-13,6,0,-8,-9
20090,27,-6,-3,44,-5,-4,-4,1
20095,-39,-22,-5,-33,-2,0,1,-12
20100,15,-4,-3,-22,-9,-4,-7,-1
20105,2,-6,5,6,7,0,2,3
20110,-43,-1,-10,-18,-3,-3,-6,-3
20115,10,3,9,17,1,2,3,0
20120,0,-10,-2,-12,-3,-5,-4,2
20125,-18,0,5,-2,-6,0,0,-9
20130,9,-11,-10,-27,-7,0,-1,2
20135,-6,11,-5,-47,-5,1,-3,-2
20140,-11,-5,7,49,12,-1,-4,-8
20145,6,2,-2,-8,1,-3,4,15
20150,20,1,5,41,5,2,0,-2
20155,-28,-3,-15,-81,-13,-5,-4,-1
20160,4,-4,-4,20,-3,2,6,6
20165,17,-4,3,48,6,1,1,2
20170,-19,3,6,-36,8,1,1,6
20175,-44,-17,-3,17,-27,-8,-3,-3
20180,21,-6,-6,-20,8,0,-3,1
20185,-19,5,-1,-13,-3,-3,-2,-3
20190,6,-9,-9,3,0,0,-4,-14
20195,31,7,13,4,3,2,-5,-7
20200,-18,-8,-8,-11,-7,-1,7,8
20205,-10,-36,-3,27,5,-2,-3,-14
20210,-2,16,1,6,1,1,-1,0
20215,7,-5,3,-13,2,-2,-1,-18
20220,-4,1,-7,16,-3,-3,-2,7
20225,-4,10,-1,-17,4,1,-3,-13
20230,-3,-1,3,-27,4,3,2,8
20235,13,-8,-5,-12,-14,-9,-8,-2
20240,11,3,-4,28,0,-2,2,-5
20245,22,-1,-8,-108,-11,-5,-2,2
20250,-48,-8,-2,44,-6,-1,-5,-4
20255,28,6,-2,12,9,6,1,-1
20260,-21,-1,4,-8,0,-3,-3,-5
20265,20,6,3,28,-1,0,-3,-7
20270,-10,-5,-13,-83,-10,-9,3,17
20275,60,7,-3,29,-7,0,-3,3
20280,-11,2,0,-22,-1,0,3,8
20285,0,6,4,63,11,2,-1,-4
20290,-4,-2,4,-36,-10,-3,-4,-21
20295,-6,4,-3,-29,7,-2,3,6
20300,10,2,0,10,2,2,-4,-5
20305,-20,-4,4,-22,-8,4,-1,3
20310,21,-4,-19,14,-10,-6,-4,-14
20315,-8,5,8,48,1,-5,-8,-4
20320,-2,-7,-7,-51,-27,-8,-6,-6
20325,-6,2,-3,12,15,3,0,1
20330,11,-5,-3,26,3,0,0,-1
20335,-33,-7,2,-1,7,2,3,-1
20340,2,-1,-6,-16,4,-3,-4,-1
20345,-18,-4,-5,30,-6,-2,-5,-5
20350,1,-1,10,-31,-6,-2,-3,-4
20355,21,0,-1,29,11,1,6,9
20360,-20,7,4,-24,0,0,2,-1
20365,-12,-12,-4,16,-9,-3,0,4
20370,14,4,-3,20,13,2,0,3
20375,1,-1,9,-8,-21,-5,-4,0
20380,0,-3,8,67,23,6,-1,-4
20385,-2,-1,-15,-93,-5,-5,5,6
20390,-8,-3,6,48,12,2,1,1
20395,8,-1,-8,-11,8,4,-2,6
20400,9,-3,0,34,3,-2,6,2
20405,2,-16,1,-33,-25,-3,2,-18
20410,18,31,0,5,12,1,-8,5
20415,4,-21,-5,-15,-20,-7,1,0
20420,7,4,3,13,8,3,-7,-3
20425,0,3,4,21,0,0,-3,-2
20430,6,4,-4,-19,-2,-1,-1,-19
20435,-4,0,4,29,3,-3,-1,15
20440,-2,-6,-2,10,0,-1,-6,-2
20445,4,3,1,-45,-8,-4,-1,4
20450,7,-9,4,52,3,4,3,0
20455,-56,3,-1,2,7,0,0,-12
20460,8,-6,-6,-14,-2,-4,1,4
20465,-14,4,-1,22,14,3,-3,3
20470,1,-7,4,-1,-13,-2,-1,5
20475,4,0,0,30,7,3,6,-6
20480,5,1,-12,-97,-19,-8,-6,-1
20485,-15,-3,-2,44,7,-1,-2,-6
20490,0,-6,0,33,-7,-2,-3,2
20495,7,2,-1,20,12,1,-2,-6
20500,10,0,3,22,-3,3,2,1
20505,-22,5,0,-18,10,4,3,10
20510,2,0,-2,-29,-8,-1,2,6
20515,-21,7,0,16,8,1,-2,-4
20520,5,-8,-11,-56,-26,-10,-5,-5
20525,-1,-2,5,66,20,5,0,2
20530,3,0,0,-57,-12,0,1,7
20535,7,-2,-4,-11,0,0,1,-7
20540,-39,-1,0,16,7,4,3,8
20545,13,1,7,29,-9,-4,-1,-3
20550,-11,-5,-4,-5,1,-6,-4,-8
20555,6,-20,-6,-24,5,0,-1,0
20560,10,-1,7,26,2,1,1,0
20565,-11,7,0,-4,-7,-3,-3,2
20570,-7,-3,-6,-74,5,2,8,13
20575,-1,2,0,-35,-18,-8,-2,-5
20580,9,4,7,54,8,4,2,3
20585,9,-4,-3,-1,1,0,-6,-3
20590,-3,0,5,1,6,2,0,9
20595,-5,1,-6,4,0,0,6,5
20600,9,-9,-5,-25,2,-2,-1,-3
20605,-17,8,5,-1,2,-3,-3,-3
20610,-22,-11,-5,-4,-7,-1,-2,-7
20615,13,7,8,40,15,6,1,1
20620,14,1,2,41,-5,-1,-2,-9
20625,-31,15,-15,-69,-8,-5,3,15
20630,58,-20,6,23,2,-2,1,9
20635,-8,-1,6,36,3,-3,-7,-8
20640,-3,9,3,7,1,2,7,0
20645,25,4,6,16,2,-3,-3,-9
20650,-9,0,-7,-2,-3,-3,-2,-8
20655,1,-1,-1,-6,-7,0,-3,6
20660,-20,-10,3,53,11,-2,-8,-2
20665,48,3,0,1,-4,4,9,-4
20670,-61,5,-3,-15,4,0,-5,-24
20675,32,-8,3,30,3,6,0,27
20680,7,-2,-4,-28,-10,-3,3,-1
20685,-33,-6,-8,-8,11,0,-4,-1
20690,8,3,3,40,3,-1,-3,-2
20695,-3,10,-8,-54,-10,-3,-2,-13
20700,5,-27,1,20,7,-1,-5,-1
20705,2,-12,-5,-11,-8,-2,-1,-7
20710,9,5,3,11,3,0,0,10
20715,-11,-4,-5,-3,2,-2,4,-4
20720,9,11,3,-8,-4,-2,2,6
20725,3,-4,0,-51,-4,-1,-1,-8
20730,-8,-8,-8,-6,-1,-5,-7,-5
20735,10,6,1,24,1,-3,-2,-4
20740,-24,7,-7,-39,-2,6,5,0
20745,14,-17,11,50,6,2,0,2
20750,-5,13,3,3,-4,-1,1,3
20755,25,-1,5,18,5,-2,-4,1
20760,-27,5,0,-76,-28,-8,-4,-9
20765,-4,-4,-8,-12,2,-2,-2,1
20770,26,-4,-3,19,3,1,2,3
20775,-25,1,3,13,1,5,5,-7
20780,-57,16,0,9,6,2,-2,21
20785,30,-2,-2,2,-7,-3,3,7
20790,-17,9,3,5,11,3,-1,-9
20795,-2,-5,7,39,-4,-3,-4,7
20800,17,-2,-1,-62,-4,-2,-4,-7
20805,3,15,-1,11,1,-1,-1,2
20810,-5,-8,0,34,10,4,3,-4
20815,12,4,-4,-50,-5,1,-1,2
20820,12,-21,-19,-16,-3,-4,-2,-4
20825,-3,0,1,21,1,-1,-5,-2
20830,0,0,1,-27,-6,-3,-2,-4
20835,28,1,-3,4,-8,-5,1,-2
20840,10,3,11,56,9,6,-1,4
20845,-11,-7,-16,-59,-10,0,8,9
20850,1,1,-1,-32,-8,-5,-3,-1
20855,-26,-9,-5,-1,-2,0,-2,-10
20860,19,-8,4,39,6,3,3,-1
20865,-12,26,7,19,-11,-1,-8,-5
20870,7,-32,0,23,6,0,0,3
20875,-7,14,-5,2,-12,-6,-2,4
20880,9,-1,0,1,1,-1,-1,-14
20885,-15,-4,-13,28,7,0,-6,-7
20890,2,4,-7,-76,-10,-2,-2,-8
20895,0,0,-1,-30,2,-1,-4,5
20900,12,3,-7,23,1,-3,-3,-3
20905,5,-9,4,16,-5,0,1,7
20910,-7,20,7,13,-1,-1,2,-3
20915,3,-19,-8,-28,9,1,-2,-3
20920,9,11,3,-31,-8,2,-3,-3
20925,-5,-13,3,58,16,2,1,-6
20930,-17,-3,0,27,-3,-2,3,16
20935,-2,2,4,-8,0,-1,-3,-4
20940,-5,0,-4,33,-11,-6,-3,-1
20945,23,7,8,-53,6,0,-5,-2
20950,-35,-3,0,42,3,0,1,-9
20955,-11,0,3,23,4,2,5,1
20960,5,12,-2,-40,3,-4,-4,-21
20965,-17,-49,-8,8,-16,-2,1,21
20970,-3,3,0,-48,1,1,-1,0
20975,-5,7,1,-3,3,2,2,-5
20980,3,0,1,2,10,1,1,1
20985,-14,7,-8,-7,0,-4,-6,-14
20990,29,4,4,56,-22,-9,-7,7
20995,-50,-7,-5,-95,-1,2,2,10
21000,7,10,5,98,12,4,8,0
21005,18,-17,-14,-1,-11,2,3,3
21010,12,-1,3,2,1,-1,-3,1
21015,-35,-7,9,27,-5,1,-2,-12
21020,21,37,-5,-2,1,-6,-4,17
21025,2,-39,12,40,2,-3,-3,-23
21030,-10,14,10,-46,-4,6,5,27
21035,4,-4,8,36,-3,-6,-3,-3
21040,-7,-14,7,66,21,2,0,-1
21045,3,15,-10,-45,-12,-2,-3,-5
21050,29,-5,-9,-6,2,2,0,-2
21055,-11,-1,6,-45,-4,-2,-1,-4
21060,-12,-3,2,17,6,3,2,7
21065,3,17,-8,-91,-11,-4,-5,-3
21070,-5,-7,-5,38,-1,-4,-9,-21
21075,8,14,-15,-33,5,3,7,4
21080,22,1,6,74,-12,-3,-7,-8
21085,-22,4,-7,-78,-1,-3,2,0
21090,5,1,10,92,22,1,-8,-7
21095,17,-5,-15,-10,-10,-2,-4,-4
21100,0,-8,-7,-80,-13,0,-1,-8
21105,35,43,29,86,17,1,0,9
21110,-32,-19,-24,-66,-16,-5,-3,-5
21115,18,19,10,84,9,3,4,1
21120,-12,-17,-7,-45,-2,1,2,-3
21125,13,6,3,51,-4,-2,-7,-3
21130,-6,-4,-16,-50,-3,-5,-5,-4
21135,29,6,4,37,2,0,-2,-3
21140,-42,-13,3,-14,-9,-5,-2,1
21145,0,3,-12,-25,-3,3,-2,-5
21150,1,5,-3,22,3,3,5,8
21155,-71,-6,6,-9,-12,-8,-5,-15
21160,28,8,2,-9,21,6,2,20
21165,0,-2,-3,12,-28,-9,-5,1
21170,15,2,3,-28,2,1,2,-8
