time,emg1,emg2,emg3,emg4,emg5,emg6,emg7,emg8,hand,pose,orientation,testPerson
0,10,29,7,1,-23,-5,-2,4,1,0,100,BueBaby!
5,17,-5,-4,-25,10,2,-2,-2
10,-2,-1,5,10,8,-7,-6,-5
15,-2,-7,-3,12,-13,-4,0,-3
20,20,-4,-7,-27,-6,-2,-6,-4
25,0,15,17,62,20,5,2,0
30,-20,-11,-23,-66,-8,-4,-5,-21
35,41,19,9,25,24,15,15,33
40,-35,-13,-8,27,-24,-18,-10,-8
45,8,-13,-9,-52,5,4,3,-1
50,36,14,5,-7,-4,0,0,0
55,-86,-7,2,23,20,3,-2,-2
60,40,-6,-10,-18,24,16,10,3
65,9,33,19,16,-13,-5,-3,6
70,7,-4,-11,-5,1,-3,-5,-7
75,23,-10,-16,-65,-26,-5,0,-14
80,-77,9,32,71,25,6,-2,-7
85,5,-42,-15,17,-21,-15,-8,11
90,20,2,-4,-20,-5,3,5,7
95,-5,-13,-5,37,-7,-7,-7,-8
100,12,8,-25,-105,-6,-1,1,-4
105,-9,15,24,113,27,0,-2,-9
110,-11,-4,1,18,-3,-3,-2,1
115,-18,2,-9,-30,6,3,3,-9
120,2,-1,0,74,-5,-9,-3,2
125,-1,-8,-14,-78,-14,-9,-5,-3
130,-3,-28,6,80,39,12,2,-4
135,12,31,11,48,5,1,-4,-18
140,9,-16,-17,-57,-2,-1,1,20
145,10,-2,21,112,29,6,4,-4
150,-2,32,-10,-73,-44,-7,-3,-18
155,31,-35,10,52,2,-4,-10,-9
160,21,20,6,18,6,10,9,30
165,-12,62,-1,-18,12,1,-3,-10
170,12,-12,-15,-5,-8,-5,-3,-3
175,-7,-12,-2,-23,-13,-5,0,-34
180,-57,-2,2,24,-2,0,-3,24
185,6,-19,-22,-63,-26,-9,-6,19
190,-48,-1,4,-7,26,3,0,-11
195,-19,0,4,-30,-19,-6,-5,-17
200,58,-30,14,117,29,2,1,1
205,7,12,-4,-6,-9,-3,-1,1
210,33,21,10,42,-3,1,1,-3
215,8,-28,3,67,23,3,5,28
220,-55,-17,-20,-128,-22,1,-1,1
225,61,23,11,57,4,-2,2,-17
230,-68,-29,5,79,-8,-8,-6,25
235,24,19,-1,-64,-10,-2,-2,14
240,3,10,3,67,-3,1,-2,-20
245,16,-20,-9,8,-9,-1,1,-8
250,-3,-3,10,-49,5,0,0,-5
255,-49,3,-18,-111,-37,-8,-4,-21
260,16,26,15,-8,15,5,4,15
265,-37,-23,-8,41,-14,-4,-3,-16
270,77,-2,13,2,5,4,3,19
275,-46,1,-6,52,8,5,-1,10
280,14,27,-14,-120,0,-7,-7,-37
285,-36,-17,21,37,15,5,4,17
290,36,5,-5,33,10,2,-1,-14
295,22,17,-12,-3,1,1,1,12
300,-1,-12,-3,-21,-7,-6,-1,-16
305,-5,-1,4,38,2,2,-1,2
310,35,9,-5,-27,-1,-7,-4,-3
315,-55,-12,-3,72,23,10,6,4
320,9,-1,-8,-19,3,-2,0,9
325,-15,-13,11,-39,-7,-1,0,2
330,0,-23,-17,-66,-25,-6,-5,-1
335,34,13,17,22,10,4,4,12
340,12,0,0,21,-4,3,2,-12
345,-44,22,-13,-3,12,2,-3,-18
350,8,53,-3,-6,-8,-5,-4,13
355,-2,-2,2,-12,4,2,7,20
360,-36,-15,-3,-5,-45,-7,-6,-16
365,46,-4,15,70,23,2,5,17
370,-55,-19,-29,-73,-22,-6,-6,-18
375,52,4,9,22,2,2,-1,12
380,-37,54,6,25,-1,-4,-2,-21
385,0,5,-4,7,-1,4,3,4
390,-29,-30,14,49,-6,-4,-2,-5
395,23,22,0,25,3,-3,-3,23
400,-28,-49,-4,0,-2,0,-3,-28
405,12,29,-12,7,-5,-7,-5,23
410,-7,27,10,-56,-2,4,8,-3
415,0,-20,-26,-25,0,-9,-12,-36
420,39,14,13,55,28,11,12,24
425,-83,-3,-8,-47,-36,-8,-5,-13
430,9,-12,9,65,27,6,-3,12
435,-26,-10,-4,3,2,-1,3,-17
440,20,-11,-9,-46,-12,-8,-5,14
445,-15,19,-14,12,13,7,1,-14
450,63,-4,1,32,-15,-1,2,6
455,-25,-42,7,55,12,0,-1,-15
460,-9,16,6,9,-3,4,2,13
465,16,-26,10,72,11,-5,-9,-12
470,2,-4,-14,-8,-3,3,1,8
475,19,18,-8,-44,-3,3,3,3
480,-45,-27,11,49,5,-1,-1,-13
485,34,-9,-3,2,5,-5,0,12
490,-74,1,2,-30,4,6,3,-30
495,32,-19,-1,-28,-32,-13,-6,42
500,9,18,-9,-50,5,-6,-6,4
505,48,-21,-4,-69,1,6,0,-55
510,-11,6,-20,29,-28,-9,-1,64
515,-20,14,14,55,20,3,4,-32
520,62,8,5,-4,0,2,1,29
525,-40,-37,-23,-46,-3,1,0,-5
530,14,-76,0,-8,20,-1,-4,-32
535,1,23,12,-3,-33,-1,0,-5
540,1,-15,-14,-3,9,-2,3,23
545,7,-12,-2,-13,-16,-2,-2,18
550,28,18,4,12,36,5,3,-3
555,44,-15,-37,-121,-34,-6,-3,25
560,10,-15,12,-38,6,-3,-7,-32
565,-10,-21,6,10,-1,0,0,24
570,-55,30,-7,12,-31,-1,0,4
575,0,4,29,126,54,14,5,-13
580,-2,-15,-36,-102,-37,-9,-7,-24
585,53,15,24,32,0,2,3,19
590,12,10,12,55,18,1,-7,-22
595,-24,-1,-1,-29,4,1,3,-20
600,41,-13,-1,41,0,0,-1,33
605,-31,24,-12,64,14,-2,1,7
610,-60,-16,16,-51,-2,0,2,-1
615,39,18,-7,28,15,5,-2,-11
620,-11,65,11,52,-24,-7,-3,0
625,6,-37,-11,-54,4,-3,-2,7
630,55,17,-2,77,20,1,2,50
635,-24,-9,2,-38,-8,-3,1,2
640,11,4,11,112,27,4,-1,-6
645,-16,28,13,-36,-8,5,4,-4
650,-12,-41,-11,-66,-16,-5,-4,-18
655,28,9,-2,-24,-1,-3,-2,15
660,-24,-33,-6,33,19,1,-1,-40
665,20,31,5,15,5,-1,0,49
670,17,-30,7,-62,-35,-4,-1,-20
675,3,1,-10,5,0,-2,-1,0
680,-52,-2,6,-19,20,8,5,-11
685,42,-52,-7,-2,-31,-11,-3,-13
690,17,45,-4,71,19,8,0,-17
695,-29,0,25,70,5,-1,-2,9
700,-4,-12,-31,-71,-17,-6,-5,0
705,-6,4,8,-34,11,7,6,-19
710,-5,3,5,36,11,-1,1,9
715,15,-2,0,-63,-14,-3,-2,-5
720,-5,9,-17,43,9,-2,-1,4
725,-22,-29,4,-69,-5,1,-2,-9
730,55,-45,-9,9,-5,-7,0,-8
735,-70,15,16,99,25,5,2,16
740,42,4,20,-91,-18,0,6,12
745,-76,-15,-40,92,10,-8,-12,-17
750,0,22,11,-105,-20,-2,3,8
755,57,14,-5,58,1,-8,-7,-9
760,-15,-8,20,34,2,4,1,7
765,-31,55,7,-12,-13,0,4,-16
770,27,-6,-15,-3,10,1,-4,3
775,6,-9,-7,-104,-23,-1,-1,-2
780,-20,52,-4,27,12,-1,0,-7
785,13,-51,2,-67,-12,-5,-6,5
790,34,-5,4,76,5,1,-3,-18
795,0,-20,-5,-47,-3,-2,-1,1
800,44,3,12,52,0,2,4,8
805,-30,30,1,43,0,1,-2,-7
810,-36,16,10,61,-6,-3,-1,4
815,11,-18,-10,-25,1,1,0,11
820,33,-31,-16,12,-8,-4,-5,-6
825,22,-3,-11,13,-9,0,4,5
830,-21,-4,6,47,14,2,-1,-8
835,35,25,1,-13,1,2,3,4
840,-61,-68,3,14,1,-2,-3,-16
845,23,-2,12,-51,8,-1,0,7
850,-37,29,-4,-38,-1,6,0,0
855,55,-16,4,83,-13,-5,-2,-6
860,-28,-33,-11,-118,10,7,0,0
865,-9,-2,-4,17,-23,-7,-5,-11
870,-33,-1,-1,-3,0,1,4,8
875,-10,1,4,-72,5,6,1,0
880,-7,3,5,55,-6,-9,-8,-8
885,32,-10,1,56,15,7,4,-17
890,29,58,9,-15,-9,0,3,23
895,-91,14,-24,-89,-29,-7,-5,-25
900,24,19,10,109,30,6,5,20
905,-13,-38,-15,-49,-12,-6,-7,-10
910,68,27,8,-45,14,9,6,6
915,-77,-30,-2,82,-7,-12,-10,-18
920,-8,7,-12,5,-16,-3,0,-3
925,-2,5,15,-4,6,4,2,3
930,-13,-16,-13,22,-18,-8,-6,6
935,13,-16,2,-4,6,3,1,10
940,4,24,15,102,11,2,1,-8
945,14,-15,-16,-21,-3,-3,2,9
950,-6,-8,4,-29,-11,-3,-1,-8
955,12,9,2,84,18,-2,-5,-2
960,-5,-5,-7,-81,-16,-4,0,5
965,28,21,1,22,-3,3,0,-8
970,4,-6,-1,7,-2,-2,-2,-3
975,-39,-15,4,9,21,4,2,5
980,44,1,-5,0,1,4,1,-4
985,10,15,9,-1,-1,-1,-1,8
990,-16,-8,-7,-26,8,-2,-3,-10
995,-4,-11,-13,14,-2,-4,0,5
1000,33,-1,-10,-56,-22,-3,0,0
1005,-7,15,16,27,10,2,-1,4
1010,-14,-38,16,77,11,2,2,2
1015,19,5,-37,-98,-23,-1,2,-1
1020,11,-12,4,77,-1,-12,-12,1
1025,41,31,24,-26,29,13,9,5
1030,-14,28,-16,-33,-33,-9,-6,-12
1035,-41,-5,-1,-23,-2,-3,3,0
1040,-34,-3,-6,25,12,0,-2,-13
1045,-15,-15,-7,6,-3,-3,-2,30
1050,-35,-49,-13,-26,2,1,0,-1
1055,19,18,4,35,4,-2,-4,-9
1060,-26,-72,-1,-62,-18,1,-1,-6
1065,-3,9,6,113,22,1,1,-1
1070,-7,15,2,-110,-15,0,0,-4
1075,44,-4,-14,70,4,-4,-3,7
1080,-42,5,-1,-35,-22,-6,0,-10
1085,-35,7,-7,-46,-8,-2,-4,-8
1090,9,-5,8,35,21,2,-2,-2
1095,21,7,-7,-46,-20,-6,-1,-1
1100,24,10,24,60,13,5,6,10
1105,10,-18,-27,-43,-12,-4,-4,-5
1110,-17,76,-7,46,-11,-6,-1,1
1115,-11,-13,38,57,41,14,3,-11
1120,18,8,-30,-93,-9,-7,-2,15
1125,-27,3,14,25,-13,1,6,20
1130,12,-21,-12,44,10,-2,-5,-12
1135,18,-42,7,-5,3,2,-3,5
1140,15,32,11,22,5,5,6,-10
1145,7,-9,-12,0,-1,-5,-3,-8
1150,53,16,12,-10,5,4,3,9
1155,-45,-17,-4,-19,-11,1,-3,-9
1160,-21,29,-23,-70,-12,-10,-2,2
1165,-18,-41,-13,39,0,0,-1,-6
1170,-3,5,3,35,-5,-3,-4,-10
1175,82,10,-1,-12,-8,0,4,16
1180,-57,-9,-9,36,11,6,1,-3
1185,-4,22,8,-31,-10,-7,-5,-8
1190,26,-16,-8,-69,6,2,0,1
1195,-8,28,18,45,-20,-2,-1,2
1200,57,12,4,13,13,-6,-7,-2
1205,-9,8,12,75,-1,-4,1,-5
1210,-6,-17,5,1,14,4,0,5
1215,-27,3,-15,-17,-6,-4,-2,-4
1220,6,-8,3,-12,0,0,-1,-2
1225,7,-1,12,30,12,6,0,-6
1230,-14,20,6,-12,-9,-8,-2,-2
1235,4,-31,17,-66,14,1,3,6
1240,-40,17,3,96,12,1,2,12
1245,14,19,-11,-87,4,3,-4,-11
1250,-7,13,-10,5,-8,-4,2,2
1255,35,-10,-2,-9,3,4,5,11
1260,0,-5,2,-37,-7,-2,-3,-3
1265,-26,-1,5,104,8,-11,-11,-8
1270,12,-31,-7,-91,-8,-1,-1,-7
1275,-12,74,-4,29,12,9,3,-6
1280,24,-21,1,-26,-21,2,2,6
1285,53,43,7,16,11,1,2,7
1290,-13,-57,-15,63,12,-1,-2,-3
1295,-5,49,5,35,-14,-12,-8,-3
1300,-29,6,4,-7,-13,-5,-9,-14
1305,25,-19,-12,-59,-4,2,7,3
1310,-48,-28,4,28,-5,-2,-3,-8
1315,-35,-12,-8,-38,3,2,1,-4
1320,10,8,7,30,-9,-1,-2,1
1325,-10,-22,2,-13,1,-1,-1,-1
1330,0,25,7,30,3,3,0,2
1335,47,-5,-6,-42,-7,0,0,5
1340,-26,-22,-12,-5,-8,-9,-7,-3
1345,46,10,-11,-57,-9,-1,5,11
1350,3,2,4,47,12,4,4,6
1355,-46,57,14,-11,-3,-2,0,-2
1360,40,-38,-18,15,17,1,-1,-4
1365,8,-10,2,-54,-12,-4,-5,-1
1370,-67,9,-9,-33,-19,-9,-8,-11
1375,6,-17,-2,42,-6,-3,-1,13
1380,-5,5,-2,-44,-1,1,1,-7
1385,-4,1,9,-13,-1,2,0,2
1390,-8,6,-14,-1,5,-2,-3,-7
1395,33,-46,11,35,9,-3,-4,-5
1400,-20,30,-4,37,7,7,4,3
1405,-25,-36,7,23,4,7,3,-5
1410,22,77,-9,-7,0,-3,-2,5
1415,19,-18,3,-6,-5,-3,-1,-2
1420,1,-4,-5,-3,15,-1,1,7
1425,31,6,-9,15,-10,-6,-5,-6
1430,-49,-28,14,53,9,5,2,-4
1435,-31,-43,-23,0,-6,-2,-3,-18
1440,6,8,16,22,1,-2,-3,7
1445,-38,-11,-4,30,7,0,1,5
1450,38,-3,1,-39,1,0,-2,0
1455,-35,-39,-11,-32,0,-2,-1,-10
1460,27,21,22,-24,-1,-9,-3,6
1465,15,1,6,-1,-1,4,3,-3
1470,34,-10,7,7,-1,-4,0,6
1475,-5,-4,-8,15,9,2,-2,-6
1480,-12,-7,-12,-38,-13,0,-2,-2
1485,-46,-3,-10,10,-1,-6,-8,9
1490,7,10,6,15,7,10,14,1
1495,3,8,9,13,4,-4,-4,-2
1500,-42,-14,-8,14,-14,-8,-6,0
1505,-5,-30,1,17,9,0,-4,-45
1510,52,-4,-2,15,-3,-3,-13,29
1515,-3,27,18,19,-10,-3,5,11
1520,11,0,-3,21,8,4,4,-4
1525,-31,7,-13,-98,-23,-7,-1,3
1530,33,-21,-6,-13,5,0,0,-4
1535,68,27,3,7,-2,-2,-6,-28
1540,-59,-12,4,16,12,3,2,17
1545,-10,13,-8,-31,-15,-2,2,8
1550,53,40,3,0,-15,-4,-1,-5
1555,-45,-42,2,43,4,1,1,13
1560,15,6,10,9,3,0,4,-13
1565,23,28,-9,38,4,-4,-7,-4
1570,-82,-30,-11,-55,-12,-3,-5,3
1575,11,27,-3,-21,1,7,8,-1
1580,9,10,12,37,19,3,3,13
1585,34,-6,10,-26,-27,-8,-5,4
1590,0,5,6,64,12,-1,-1,-8
1595,-18,-31,-11,6,-1,-5,-5,-2
1600,40,16,-15,-27,4,4,2,8
1605,-10,6,-7,48,1,-1,-4,3
1610,59,-66,2,-84,-39,-14,-5,-5
1615,-34,-1,-14,-33,-4,-2,-3,-1
1620,24,16,6,55,9,6,1,-6
1625,-23,5,12,28,6,2,3,-13
1630,-12,-10,-19,14,3,-4,-7,3
1635,-7,81,6,-44,-9,-1,0,2
1640,3,-35,2,-14,-13,-3,-1,-1
1645,-6,-7,6,57,12,4,1,4
1650,-15,35,22,-27,15,4,1,-13
1655,27,-10,-13,-16,0,2,9,19
1660,46,6,-12,3,5,0,-4,-7
1665,-20,6,9,-36,1,2,4,8
1670,3,-3,-9,45,5,-2,2,-8
1675,-12,24,-11,-67,-24,-6,-9,-5
1680,-16,4,12,14,-2,1,-1,-11
1685,12,-35,-6,4,2,3,3,5
1690,-42,8,4,37,3,1,3,5
1695,11,8,5,34,2,2,1,0
1700,-39,-27,-23,-77,-16,-6,0,3
1705,64,47,-1,-69,12,3,0,4
1710,-29,-3,6,60,-4,2,0,-3
1715,51,38,8,80,16,-2,-10,-1
1720,-30,-29,-5,-80,-24,-6,-4,-11
1725,20,-2,2,73,11,1,2,2
1730,18,-11,-16,-50,3,2,5,11
1735,20,3,-8,16,1,-1,1,0
1740,5,-13,3,15,9,0,-3,-6
1745,-19,11,-9,-1,-5,-5,-7,-23
1750,11,-19,-5,16,2,-2,-3,18
1755,4,-68,10,-6,-6,-2,-4,-2
1760,14,19,1,-5,9,0,0,1
1765,-18,10,-4,-19,-3,7,9,7
1770,29,15,8,55,4,-2,-3,-5
1775,-58,-30,-3,-33,0,0,1,0
1780,24,27,1,-23,-7,-5,-5,2
1785,-41,-13,5,62,5,-3,-5,-6
1790,11,-21,1,2,3,5,5,5
1795,-26,-16,-16,-24,3,-1,-2,-3
1800,2,6,-5,-10,-20,-10,-9,-10
1805,5,-4,-8,-54,-4,-3,0,-6
1810,-17,14,-1,-16,-10,-4,-3,-1
1815,-26,-70,3,18,10,0,1,-7
1820,6,-8,3,64,14,4,1,0
1825,-4,-26,-11,-19,-4,-3,-4,13
1830,6,14,13,30,-3,-1,-1,-10
1835,54,16,-13,-43,-9,0,-2,-16
1840,-37,-3,8,-2,-15,-8,1,5
1845,-36,-18,-1,1,-6,-8,-10,-5
1850,2,-1,-11,-51,4,4,3,-4
1855,-13,16,-1,32,6,-4,-3,-3
1860,-2,13,7,83,15,7,6,4
1865,4,12,-7,-58,-15,-7,-4,-1
1870,-10,-1,-1,-2,0,1,0,-1
1875,-40,27,1,-51,-12,-7,-3,-7
1880,7,8,-14,-46,-3,0,-1,9
1885,-13,2,15,84,20,5,4,6
1890,-23,-17,-9,-34,-9,-2,-3,-5
1895,9,38,6,15,-8,-3,-1,3
1900,40,1,3,33,0,-4,-6,-3
1905,8,-13,3,31,-8,0,-1,-2
1910,4,24,-16,-20,6,5,1,2
1915,2,26,10,13,4,3,3,2
1920,-7,-18,2,-5,9,-3,-6,-7
1925,10,11,23,-26,-5,2,1,-4
1930,-25,-5,-11,6,7,-2,-2,-4
1935,18,-1,-26,-5,-18,-10,-8,2
1940,-22,-37,2,-20,-1,4,0,-14
1945,-7,-14,12,-52,11,1,-1,4
1950,-33,0,-15,38,-17,-7,-2,-11
1955,-2,-10,3,21,3,0,-1,-1
1960,-24,15,-8,-2,0,1,0,12
1965,21,4,-4,21,-1,1,-1,-16
1970,35,0,-3,-55,0,7,9,9
1975,14,-28,2,-9,13,-1,-3,-1
1980,-3,6,8,8,-9,1,-2,-5
1985,10,20,-10,57,6,-2,5,10
1990,-11,-13,-11,-71,-17,-3,-3,-10
1995,4,-2,-6,-29,-7,-9,-6,5
2000,11,-15,6,37,3,-2,4,12
2005,-14,-14,-16,-10,3,4,-2,-17
2010,52,23,21,26,7,0,1,12
2015,-32,-9,-7,40,-4,0,-2,7
2020,-5,6,-4,-41,-1,-1,3,16
2025,7,1,7,28,-11,-5,-1,-2
2030,-7,-10,17,-8,21,2,0,-5
2035,-15,42,-2,4,-9,3,2,-9
2040,1,-13,-2,15,4,-1,-6,-16
2045,18,10,-19,-51,-16,-2,1,10
2050,-47,-44,12,6,11,-1,-3,-6
2055,3,-11,0,96,0,-2,1,5
2060,44,15,0,-111,-11,-1,0,-6
2065,4,-2,6,8,6,2,-2,10
2070,12,33,2,28,-11,-5,-4,-31
2075,-26,26,12,-24,17,5,5,21
2080,-4,-23,-25,47,4,-2,1,17
2085,-18,25,-1,-78,-31,-11,-5,-6
2090,51,35,21,10,17,6,-1,4
2095,-67,-23,-20,-7,-3,0,-1,-15
2100,19,-28,2,43,7,2,1,-8
2105,-6,-4,-25,-91,-12,-8,-4,21
2110,-22,-19,3,-8,1,-7,-6,-25
2115,26,-2,14,6,17,9,4,16
2120,-32,9,-7,-23,-21,-1,4,13
2125,-4,-14,8,67,19,2,-4,-15
2130,16,-38,7,36,-6,-7,-3,9
2135,-21,-17,-1,13,4,-1,-3,-20
2140,47,40,-2,-67,13,2,1,-3
2145,-64,1,10,61,3,5,1,-7
2150,15,20,-8,-26,-3,0,1,13
2155,2,-3,5,40,8,0,-1,-3
2160,25,-10,3,65,8,2,-3,-11
2165,-38,-36,2,-51,-12,-1,4,-26
2170,13,20,-7,56,5,-3,-4,57
2175,21,-14,9,-25,-11,0,-3,1
2180,-1,5,-16,-59,-9,-4,-2,-9
2185,12,-11,-11,62,11,5,2,-1
2190,-28,23,17,79,11,0,-4,-22
2195,21,-10,-7,-89,-33,-8,0,-12
2200,20,32,6,105,7,-3,-2,28
2205,-21,-47,5,-29,8,-1,-2,-10
2210,-24,-17,-13,19,-2,-7,-6,-9
2215,38,-39,-4,-19,-3,-2,-2,4
2220,-58,-1,11,21,9,2,-2,-24
2225,52,13,9,-70,-1,5,3,12
2230,14,-1,-25,-39,-20,-1,1,16
2235,-35,23,3,24,18,-2,1,-8
2240,5,-27,-14,-1,-6,-4,-2,-3
2245,11,15,17,-29,9,6,1,11
2250,30,-8,3,7,-1,-1,0,-16
2255,-39,-15,9,40,1,0,1,3
2260,-29,-7,3,-43,3,-2,-3,-6
2265,9,15,-13,57,-7,-5,-6,-10
2270,-27,0,-9,-4,-1,-1,-1,-10
2275,37,3,-6,-55,-8,-3,-2,0
2280,4,5,12,3,7,6,1,-4
2285,-5,-11,6,47,-3,-4,-3,-21
2290,-10,-2,-19,-22,5,3,2,26
2295,15,-29,9,31,-11,-6,-8,-11
2300,-53,-35,-8,-22,-3,0,0,-3
2305,36,44,-16,-41,1,-8,-4,0
2310,-8,-21,-4,-8,-9,3,3,-2
2315,-25,33,4,46,16,10,8,13
2320,47,11,4,26,-10,-3,-3,-9
2325,17,-4,12,31,1,-1,2,6
2330,35,0,2,-34,13,1,-3,-2
2335,-8,29,1,17,-24,-13,-7,-11
2340,-2,63,-7,-62,0,1,-1,4
2345,29,-13,4,81,11,4,2,19
2350,-10,7,5,-84,1,3,6,7
2355,-5,-46,-24,43,0,-6,-4,-9
2360,49,62,5,-37,-5,-5,-3,-14
2365,-56,16,0,22,-7,-5,-5,16
2370,12,3,10,17,9,3,-4,-14
2375,14,16,-11,-53,-3,6,11,22
2380,-27,-31,8,68,-10,0,0,-14
2385,-19,-26,-3,-44,-13,-4,-7,-1
2390,-31,-13,-15,-42,-21,-4,5,-7
2395,-2,11,26,16,17,3,-1,1
2400,16,-22,-7,2,0,0,-2,3
2405,21,49,-3,27,-4,-3,2,-6
2410,57,18,22,51,6,-2,-3,3
2415,-43,15,6,8,19,7,5,-1
2420,8,-21,-21,-30,-2,-7,-7,-3
2425,-34,6,13,14,13,4,-1,0
2430,-16,-5,-4,-13,-20,-10,-4,-12
2435,21,-9,7,47,22,8,3,1
2440,-20,-14,1,-38,-6,-3,-2,1
2445,-28,-16,-24,-5,-1,4,2,-2
2450,-11,-23,-6,-23,-17,-14,-8,-6
2455,25,-14,-3,64,21,1,-3,-4
2460,-49,-5,-5,-58,-51,-8,-2,-11
2465,-24,-26,-8,-37,6,0,1,0
2470,77,45,9,10,2,4,2,1
2475,5,-2,-3,-18,-5,-2,-1,15
2480,3,-28,14,49,21,6,5,-7
2485,29,11,-21,-12,-4,-5,-2,-1
2490,-71,-29,5,2,-7,-3,-5,-1
2495,19,63,-1,-15,-12,-3,-3,-10
2500,8,4,8,-10,24,8,4,6
2505,20,0,12,55,6,1,2,6
2510,-46,-4,-6,18,2,2,2,-10
2515,54,2,-10,-32,-6,-8,-5,-21
2520,-32,8,5,16,8,-3,0,41
2525,0,-1,-3,17,-18,-6,-5,-10
2530,-19,4,-5,-50,2,0,1,-11
2535,27,-56,4,30,2,-1,-2,0
2540,-26,14,-15,3,18,4,0,-4
2545,1,-49,-14,-51,-55,-19,-14,-10
2550,24,14,16,59,22,3,0,10
2555,-33,1,-4,-25,-5,3,0,0
2560,-11,-31,-14,58,-5,-8,-3,-23
2565,43,-6,2,-68,11,3,-1,13
2570,-91,40,2,7,-5,-1,-2,-8
2575,41,-15,6,-12,13,4,0,18
2580,14,9,-8,-25,-32,0,1,-7
2585,32,21,13,-35,30,9,7,5
2590,-15,0,-16,-38,-7,-5,-3,-10
2595,-57,-62,4,-57,7,1,2,10
2600,-8,57,2,17,-26,-8,-6,2
2605,-90,-32,5,65,23,-4,-3,-6
2610,-5,-29,-23,-35,-31,-4,-3,-6
2615,-4,-9,-4,-31,-3,-1,2,-1
2620,69,-14,-9,-73,2,0,-1,-8
2625,11,-23,-5,1,8,-2,-4,5
2630,26,-17,-3,80,9,-5,-2,-11
2635,4,26,4,-42,-11,0,-2,9
2640,37,26,-3,20,17,8,7,-8
2645,-5,37,13,16,-33,0,5,28
2650,23,-5,-5,-2,9,3,1,3
2655,-35,10,-23,-26,-7,-8,-8,-16
2660,0,-17,33,86,15,-6,-7,-6
2665,22,5,-6,-13,16,-1,-4,-20
2670,1,1,2,0,-8,5,5,13
2675,-5,6,-2,34,-14,3,6,0
2680,-39,-31,-11,45,22,-4,-5,-5
2685,-7,39,13,17,-13,-7,-6,-19
2690,55,10,4,17,5,1,4,13
2695,-53,3,-10,-30,-2,2,1,13
2700,9,-27,14,50,9,6,4,6
2705,-31,-69,-11,-4,10,1,1,2
2710,-11,52,-3,-30,-24,-11,-8,-19
2715,36,10,8,43,8,-2,-5,-2
2720,-27,16,14,-4,-3,9,6,13
2725,14,6,-18,-22,-21,-4,3,4
2730,8,-22,3,-27,14,3,-2,1
2735,-40,-43,-6,12,-13,-10,-6,-13
2740,11,21,9,-13,-8,-6,-6,-8
2745,89,36,7,24,23,8,1,5
2750,3,-11,13,6,5,10,7,15
2755,22,33,-1,6,1,-5,0,-4
2760,7,-26,-12,30,10,0,-1,0
2765,-29,5,6,11,-7,-2,1,-28
2770,-78,10,18,70,11,0,-3,18
2775,42,22,-5,-68,-6,4,3,22
2780,7,5,1,25,-6,-4,-1,0
2785,27,-45,-6,-18,-2,2,2,-3
2790,-56,-18,-2,14,11,-4,-5,-4
2795,-17,-20,-16,-37,5,4,1,-14
2800,-9,39,15,56,-20,-7,-6,2
2805,7,18,-6,-72,-10,-2,0,8
2810,3,-49,-5,23,7,2,1,13
2815,-7,-7,0,-13,3,1,-3,-5
2820,-23,6,-7,-10,-4,2,3,-2
2825,9,4,-10,50,6,-3,-6,-7
2830,38,44,7,-41,-16,-2,4,7
2835,9,23,-4,45,6,-3,-4,-48
2840,30,-16,9,-15,3,1,-2,37
2845,-19,4,10,43,8,9,9,-3
2850,25,-14,0,54,11,5,4,2
2855,-28,0,-27,0,-9,-8,-8,-14
2860,56,-23,1,-73,-21,-10,-7,14
2865,-49,-33,-11,-27,0,0,-2,-18
2870,-9,-6,4,30,19,3,-1,7
2875,6,8,17,-1,2,2,4,10
2880,-26,-79,-20,-38,-7,5,4,-5
2885,15,9,5,28,-27,-14,-5,2
2890,-45,-41,-10,-21,-8,-5,-4,-20
2895,5,-12,21,30,19,13,9,7
2900,-85,-1,-29,-98,-33,-13,-4,-8
2905,82,32,-1,62,7,0,-4,21
2910,14,-37,-14,-4,3,-5,-3,-20
2915,-4,1,-2,36,-13,-8,-4,20
2920,-10,-12,11,62,19,10,5,-19
2925,-7,12,13,-11,15,-1,0,9
2930,-3,10,-31,-32,-19,-12,-9,-16
2935,40,-20,2,-46,-9,0,0,1
2940,0,23,-5,20,12,-3,-5,-11
2945,7,-1,6,10,0,0,-2,-5
2950,70,21,-1,-8,9,6,5,10
2955,-9,-7,7,19,-16,-5,0,-5
2960,7,20,1,29,17,3,1,-10
2965,15,14,-5,-11,-14,-4,-2,17
2970,-42,51,14,46,-4,-2,-2,-17
2975,28,-7,-13,-64,-8,0,0,13
2980,51,46,9,27,-6,0,-3,-9
2985,-88,-37,1,24,16,7,5,7
2990,-41,-72,-19,-29,-14,-3,-2,-28
2995,0,16,21,31,15,4,0,40
3000,-1,-11,-18,-42,-14,-2,1,5
3005,-6,-12,-16,-51,10,0,0,-11
3010,40,19,8,34,-9,-7,-3,-3
3015,-60,23,-1,18,3,-1,-1,5
3020,3,-32,7,20,13,3,1,6
3025,3,33,0,-98,-11,0,-1,2
3030,24,12,6,26,17,-1,-2,2
3035,-9,14,-18,5,-1,1,0,-7
3040,40,-35,9,-5,4,2,-3,-7
3045,-17,34,17,68,17,2,3,26
3050,-32,-52,-19,-19,-32,-8,-7,-2
3055,14,26,9,-67,-2,2,1,-19
3060,-17,4,-17,-21,-14,-6,-2,26
3065,-33,-27,9,28,24,3,-2,-35
3070,-9,7,10,-16,9,0,4,24
3075,12,-18,0,29,-11,-1,3,-30
3080,-30,-16,10,28,28,7,5,-2
3085,-29,3,-16,-40,-31,-8,-7,-8
3090,15,58,1,-3,15,4,4,17
3095,26,-21,2,57,5,-7,-7,-6
3100,11,45,11,-64,-1,2,5,36
3105,37,-11,-11,13,-3,6,5,-19
3110,-29,-12,-7,-43,-4,-3,-4,11
3115,7,-1,17,9,10,3,-1,14
3120,3,0,-1,96,-6,-14,-11,-21
3125,-5,-1,-13,-41,-6,-2,-1,9
3130,15,9,4,4,-4,5,2,-9
3135,-48,-30,-2,-14,-19,0,2,-20
3140,5,17,-7,-68,-18,1,2,37
3145,26,12,16,91,18,-5,-6,-11
3150,12,-7,19,8,5,-1,0,-6
3155,-12,-47,-32,17,-16,-13,-10,-2
3160,4,5,10,-21,13,8,4,-18
3165,-31,7,-12,-12,-8,-2,-3,-2
3170,34,-2,17,41,16,1,-2,11
3175,20,32,0,8,6,-2,-1,2
3180,-4,-9,-21,-45,-11,-6,-4,-13
3185,18,12,15,47,2,-2,-2,-1
3190,0,3,-5,-33,-4,-3,0,-5
3195,-2,4,-3,11,-2,-4,-1,0
3200,0,-3,4,10,1,1,-2,-15
3205,19,-40,-1,6,16,5,3,5
3210,-100,-24,-22,-12,-44,-8,-6,0
3215,92,63,-4,20,-3,0,1,5
3220,-7,-1,14,-4,-1,1,-1,-3
3225,-4,-37,-18,0,-2,-4,-3,10
3230,18,10,2,-4,9,6,0,1
3235,28,27,5,25,2,-2,-4,-3
3240,-31,-20,-3,79,-2,-6,-5,-30
3245,46,20,-13,-33,-13,-2,0,20
3250,20,-2,0,61,11,1,1,-25
3255,-18,0,4,-33,-19,-2,0,24
3260,61,18,0,63,16,3,-2,-3
3265,-2,4,7,-36,1,0,2,-6
3270,42,-18,-17,-26,-5,-1,-1,-5
3275,5,-16,8,60,8,3,2,1
3280,-84,-7,-21,-50,-19,-6,-5,-9
3285,-35,-11,23,2,-2,-5,-2,-10
3290,13,15,11,-12,10,3,0,11
3295,-19,-13,5,-5,18,0,-2,-10
3300,0,-1,-22,-2,3,12,11,13
3305,15,8,-3,-14,2,1,-2,-3
3310,-39,3,4,-49,-28,-3,1,4
3315,3,-8,-2,19,18,0,-4,-3
3320,-3,7,15,2,-1,-12,-6,-6
3325,40,10,-4,2,7,7,2,-21
3330,40,-6,3,-36,-34,-9,-1,34
3335,2,-12,-10,-32,1,3,1,-3
3340,-1,15,12,29,25,8,6,9
3345,2,4,4,66,-17,-9,-4,-8
3350,15,3,1,11,12,0,-1,-7
3355,-45,-9,10,20,-4,-3,-3,-5
3360,9,-6,-18,-19,-3,0,2,4
3365,-17,-8,-3,-37,-1,5,4,11
3370,-27,-23,7,72,14,-3,-4,-8
3375,-26,42,-9,-64,-27,-11,-5,-2
3380,38,14,7,-15,0,-3,-5,-3
3385,4,-3,-4,50,12,4,0,4
3390,3,-1,-13,-68,-33,6,6,-2
3395,2,-5,-1,-35,-21,-2,-2,6
3400,50,6,15,44,18,-2,-1,4
3405,43,45,3,-37,-11,-6,-1,2
3410,9,11,2,64,27,7,0,5
3415,-3,-25,-21,-25,5,-7,-6,-12
3420,-3,-1,5,-9,-15,1,-4,1
3425,-20,-30,-10,-27,-17,-1,-3,10
3430,12,5,13,32,39,8,11,-11
3435,-5,-6,-11,-62,-16,2,6,4
3440,-3,-10,23,67,19,-9,-10,4
3445,-13,4,1,-13,-17,-8,-7,-10
3450,-8,0,-18,-42,-3,-4,-2,3
3455,6,-13,5,24,9,11,3,-6
3460,-9,-4,-4,-50,-17,0,2,2
3465,-56,-21,-5,-60,-6,-4,-5,-5
3470,14,6,1,39,0,-7,-3,-7
3475,8,-6,9,32,-7,-3,-5,0
3480,-3,1,5,-12,10,3,1,10
3485,14,20,4,41,-6,-2,-1,-4
3490,-24,35,-10,-82,-4,-4,-2,6
3495,-36,14,-6,34,12,-2,-7,-6
3500,19,-9,1,26,-8,-1,0,-8
3505,13,-32,-5,34,9,6,2,-22
3510,1,-11,-5,-58,-4,-4,-3,48
3515,5,39,1,42,16,2,6,-5
3520,-58,2,-8,-44,-20,-2,-4,-13
3525,14,27,8,27,11,-4,2,10
3530,-14,0,20,87,23,2,-4,-23
3535,11,-20,-20,-83,-46,-10,-5,-3
3540,1,-10,-3,2,17,-1,2,0
3545,12,14,1,5,3,6,2,1
3550,8,2,-1,3,-6,3,0,-4
3555,21,-17,2,24,15,-3,-2,3
3560,-8,-2,-7,-19,-12,-2,-4,-15
3565,-35,-1,9,-2,-21,-5,-4,-2
3570,16,-31,-17,-12,12,2,3,-6
3575,-6,-15,10,12,5,5,1,-1
3580,6,5,-1,34,0,-3,-1,2
3585,-9,-1,2,1,-1,-4,-5,0
3590,-3,18,7,38,1,-1,-2,-3
3595,15,-14,-19,-25,6,-4,-1,-22
3600,5,58,-8,-14,-17,2,1,9
3605,-15,-10,-1,7,14,5,-1,15
3610,-27,17,-8,10,-17,-5,-5,-27
3615,3,-8,15,29,-8,-9,-3,10
3620,-17,-48,-7,21,-3,0,-5,-11
3625,14,12,0,2,5,4,4,8
3630,-23,-16,1,6,-1,1,-1,-11
3635,8,30,7,35,31,7,1,-8
3640,-22,-44,-10,-104,-45,-13,-17,-8
3645,79,15,8,52,14,3,16,-7
3650,-47,17,-3,-76,19,-6,-10,-11
3655,0,5,-8,-87,-25,0,3,17
3660,15,12,0,35,18,5,1,-1
3665,-6,-7,3,4,-14,-3,-5,-2
3670,48,0,-1,-2,-5,2,14,16
3675,-4,-30,-15,10,18,-1,-14,-40
3680,-53,32,25,66,7,4,20,27
3685,20,-16,-26,-73,-16,-2,-3,8
3690,6,2,-1,-36,-21,-7,-7,1
3695,-25,-15,11,49,22,5,0,5
3700,33,-15,-16,-26,-9,-3,-6,-13
3705,4,31,26,-20,3,-4,-5,12
3710,-47,-31,-18,6,0,-3,-4,-48
3715,37,-2,-13,48,-11,3,14,48
3720,2,6,-19,-97,5,-5,-5,-7
3725,-5,-5,-6,-44,-6,-8,-6,2
3730,23,-2,21,9,-11,1,-3,-4
3735,-17,0,6,-7,3,-3,-5,-7
3740,9,-11,14,38,11,0,-2,-8
3745,26,-3,-3,3,2,4,6,13
3750,-24,36,-21,-47,-15,-4,-6,9
3755,20,-4,2,14,4,1,6,6
3760,11,3,22,76,2,0,0,-3
3765,-15,-14,-19,-79,-25,-9,-24,-24
3770,21,-27,-9,58,8,-1,20,18
3775,27,48,12,49,11,6,2,-18
3780,18,-32,-2,-73,-14,-5,-3,51
3785,-31,-11,-8,43,29,5,2,-5
3790,5,-19,-23,-27,-28,-11,-11,3
3795,-7,3,-6,-6,-5,0,-1,-3
3800,-33,-2,-1,-21,-20,-1,5,-8
3805,-18,-2,5,13,6,-1,0,-3
3810,70,-14,19,32,11,4,-6,4
3815,-15,-8,-4,-69,3,-2,9,3
3820,9,10,12,49,3,6,5,16
3825,-14,-15,-27,-31,-11,-6,1,1
3830,-38,8,8,24,16,3,-4,-13
3835,2,-19,11,51,-2,-3,-7,-4
3840,-8,7,-6,3,1,0,-4,-12
3845,-14,2,4,10,17,2,2,-1
3850,11,-10,9,33,-6,-4,2,8
3855,-28,-4,-2,-19,-1,-2,-9,3
3860,4,1,-5,6,-10,0,10,-2
3865,16,4,-3,26,19,5,1,0
3870,-17,-25,1,-13,-2,-2,-5,0
3875,10,26,15,51,-15,-7,-5,5
3880,3,-5,4,-40,40,9,-8,-20
3885,-13,-46,-12,-18,-49,-1,8,-2
3890,14,20,11,11,15,5,1,13
3895,-12,-3,6,7,-7,-2,4,-3
3900,5,-6,-8,11,6,-4,-5,-6
3905,-6,20,7,3,0,-3,-4,-3
3910,-1,-4,-7,-11,-6,-2,-3,-4
3915,11,-5,0,5,7,7,4,8
3920,-13,10,-16,-15,-13,-7,-6,-18
3925,-20,1,6,20,5,-2,0,10
3930,-11,10,2,-5,-6,-6,-8,-2
3935,1,-10,-13,-36,-1,-2,-2,-2
3940,21,9,4,41,11,-1,4,8
3945,-8,0,-2,-25,6,6,3,5
3950,9,-2,16,53,9,1,1,3
3955,-7,-6,-16,-12,-8,-3,-1,1
3960,-2,-8,0,-35,-2,-5,-8,-11
3965,-22,-43,-4,31,-2,-10,-10,-41
3970,44,-48,-2,16,2,5,16,39
3975,-12,-16,23,23,9,9,6,11
3980,25,-10,-55,-41,-20,-9,-3,1
3985,16,12,6,34,5,0,-5,-3
3990,-32,-7,9,-103,10,0,-7,-16
3995,-3,-4,-25,-53,-31,-16,-8,-16
4000,16,0,13,19,8,4,5,0
4005,-44,9,-1,5,18,11,7,11
4010,83,26,12,19,-21,1,4,-9
4015,-26,29,-28,-71,-8,-9,-11,2
4020,-27,24,19,-6,3,4,0,-25
4025,26,17,-13,17,-6,-7,-2,29
4030,-17,12,-7,8,4,-2,-7,-12
4035,18,-2,21,27,8,3,1,0
4040,-7,-10,-1,29,5,-1,-2,-6
4045,-13,5,-1,-49,-32,-10,4,0
4050,26,13,-5,19,18,3,-4,6
4055,-29,0,-3,40,9,4,2,-10
4060,-15,-41,0,-35,-2,0,-1,1
4065,16,36,16,60,12,4,1,1
4070,-24,-3,-22,-25,-10,-10,-8,-14
4075,23,-13,1,-9,0,-2,-1,8
4080,-11,20,9,-42,8,9,3,6
4085,-27,-39,2,54,-10,-11,-6,-12
4090,-32,-31,-4,60,0,-4,-3,-2
4095,0,3,2,-7,8,2,0,-15
4100,-3,13,6,-2,2,-1,2,28
4105,21,-13,-10,-40,-3,1,-1,-3
4110,-32,22,3,6,-1,2,4,-10
4115,44,-16,5,49,-4,1,2,2
4120,13,3,2,2,-3,1,3,0
4125,0,-3,15,21,-3,-2,-2,-4
4130,-19,2,-13,-31,7,1,-4,0
4135,1,10,11,-18,-11,-2,3,5
4140,16,3,-6,8,-1,1,5,-3
4145,14,49,-5,-16,-5,1,-2,0
4150,-7,-24,7,-7,5,0,3,5
4155,-15,-12,15,29,10,1,-4,-7
4160,2,-25,-11,-23,-30,-9,-4,2
4165,49,9,-2,-77,17,1,0,1
4170,-34,5,12,25,-5,-2,1,-17
4175,-54,61,-18,-39,-14,-9,-8,7
4180,-18,4,5,85,20,3,2,-3
4185,5,-2,2,-95,0,7,5,-4
4190,30,19,12,48,6,3,3,-3
4195,22,-20,-27,-90,-17,-5,-5,6
4200,-1,-44,3,22,1,-6,-8,-7
4205,-33,-9,-14,0,-18,-6,-14,-30
4210,8,8,-4,15,25,16,30,42
4215,-13,-2,8,23,-13,0,-1,-14
4220,37,20,6,-20,9,3,2,29
4225,31,-10,2,42,2,-4,-7,-23
4230,-11,-3,0,1,1,-2,-11,10
4235,1,-11,-1,3,-13,-8,-1,-2
4240,-20,11,-8,-3,-9,-2,-6,-4
4245,15,-25,-12,5,8,1,1,-6
4250,25,38,4,-3,-11,-6,-5,-6
4255,-9,5,6,8,23,8,6,7
4260,8,15,0,31,-10,-1,-3,-13
4265,-57,-43,7,11,6,-2,0,18
4270,11,-34,-18,15,1,-5,-1,-9
4275,17,-3,13,-17,-1,-2,2,10
4280,6,7,-4,-63,-2,-3,-1,-6
4285,-7,17,14,63,0,-4,-2,10
4290,1,7,-6,4,6,3,-5,3
4295,20,-16,-1,-31,-10,-1,0,-9
4300,-69,-29,-7,8,13,2,4,-3
4305,9,15,2,-20,-20,0,4,-9
4310,6,7,4,-7,4,-7,-9,17
4315,31,-2,-14,79,-4,-6,-7,-4
4320,-9,11,17,17,14,3,0,-11
4325,22,-10,-5,2,-8,-3,-4,22
4330,-28,16,-7,-53,-16,0,2,-18
4335,9,-21,17,25,29,6,1,-18
4340,4,-5,-39,-10,-18,-3,-2,36
4345,17,13,-2,-23,-2,-1,-2,-5
4350,17,14,0,5,-3,-6,-4,5
4355,-20,-25,4,50,4,-3,-4,-16
4360,63,6,10,7,-16,-4,-2,20
4365,19,10,-2,23,20,9,7,10
4370,-10,-11,-16,-33,-24,-5,-4,-5
4375,-22,1,0,16,19,3,0,-6
4380,3,4,4,-37,-8,-6,-5,-15
4385,-12,-15,5,32,10,2,-2,1
4390,45,37,3,-7,-16,-1,1,3
4395,15,-27,3,-14,-14,-3,0,2
4400,-7,15,-1,33,14,0,-3,-5
4405,2,-3,11,7,14,7,8,13
4410,-66,22,-18,-58,-18,-4,-4,-16
4415,-21,8,7,34,11,1,1,8
4420,-14,-11,-12,9,-30,-12,-6,-10
4425,-7,-3,3,-18,10,-1,-2,-3
4430,21,-29,4,34,8,4,3,0
4435,-5,24,6,-12,8,2,2,16
4440,-10,-20,4,25,-4,-3,-2,-19
4445,18,39,-14,-14,-2,1,8,20
4450,16,-16,3,15,15,2,1,1
4455,-11,16,-3,-41,-12,-1,-5,1
4460,-5,-1,-2,-29,5,-2,-5,-8
4465,4,23,0,7,5,4,0,-13
4470,-8,-91,-2,-1,-3,-5,-8,-14
4475,17,14,-8,-31,-6,0,1,20
4480,-14,0,4,-4,-18,-3,-2,-10
4485,-7,-1,-13,15,8,-1,-7,-7
4490,-20,6,-4,-28,5,4,4,0
4495,4,-5,-5,-4,-12,-3,-3,-5
4500,6,5,3,46,14,1,2,-3
4505,-22,-1,3,24,-27,-9,-7,-1
4510,19,18,7,4,6,3,1,2
4515,-18,-11,-10,-5,8,1,-1,-1
4520,-5,53,11,33,26,5,3,0
4525,-13,-18,-2,-3,-24,-12,-4,-4
4530,-13,1,5,15,15,5,1,-1
4535,45,7,-10,-33,-9,-3,-1,0
4540,-18,-9,-7,51,16,0,-5,-14
4545,-10,27,6,-2,-5,-3,1,10
4550,14,-26,-5,-22,-5,-3,-3,-19
4555,19,-3,14,60,22,4,4,51
4560,2,-32,-22,-119,-25,-2,0,-15
4565,-28,2,9,-4,14,4,2,8
4570,24,6,-12,6,-15,-8,-5,0
4575,-19,6,10,33,2,2,1,-21
4580,-20,-9,-6,-69,-5,-2,-2,-2
4585,6,-20,-11,-9,4,0,-2,-4
4590,-32,-6,6,-8,8,3,1,-3
4595,23,32,-4,8,-8,-4,-3,-14
4600,-40,-14,2,5,-3,-6,-3,2
4605,36,-25,12,92,6,0,-2,-7
4610,4,-19,-17,-20,-15,-7,-4,0
4615,-2,4,-7,35,2,4,2,-10
4620,11,11,8,-15,-5,0,4,10
4625,2,-15,-12,-11,3,-3,-3,-1
4630,-6,28,9,15,8,2,-3,3
4635,-31,-22,-8,-27,-17,-2,3,-3
4640,28,8,4,11,15,8,3,8
4645,-17,-8,-7,-13,-11,-6,-3,-7
4650,17,8,5,-11,5,0,-2,3
4655,-5,-3,-12,-50,-10,-10,-11,-12
4660,8,-3,10,23,3,3,5,5
4665,2,14,3,-10,4,6,8,0
4670,-4,1,-17,-46,-10,-2,-2,4
4675,-20,14,20,90,32,6,4,-3
4680,27,7,-5,-23,-35,-15,-12,-9
4685,-20,-15,-8,-21,4,-1,-1,-1
4690,-2,10,2,-9,-16,-1,1,0
4695,-17,-8,0,29,12,-1,-3,-4
4700,-1,-45,4,-8,1,3,3,4
4705,34,33,5,-24,-4,1,5,5
4710,0,9,4,22,4,1,2,1
4715,7,-20,-11,-33,-5,-2,-4,-20
4720,20,12,-1,36,5,2,3,31
4725,19,-11,-3,-29,-10,-6,-5,-13
4730,-9,-11,-7,-23,-13,-6,-3,3
4735,-7,2,11,47,12,0,-2,-8
4740,-3,8,5,47,9,7,2,-5
4745,-30,20,1,-8,0,-2,-3,-7
4750,30,25,-11,-6,-18,-3,-1,6
4755,-38,-3,-8,-40,-5,2,2,2
4760,6,9,-4,-10,3,-2,-2,-4
4765,-1,-1,6,31,-20,-6,-6,1
4770,-25,17,6,0,14,1,1,-1
4775,81,-29,-15,-44,-13,3,5,10
4780,-83,-35,-16,-21,1,-4,-2,-3
4785,-4,0,2,5,3,2,0,-2
4790,-4,-9,-13,12,5,-9,-8,-12
4795,3,0,12,37,-2,2,2,-5
4800,34,21,5,-21,-8,-4,0,10
4805,15,18,7,41,1,6,4,1
4810,-17,-22,-7,-66,1,-2,2,-3
4815,-7,6,-3,-1,21,4,-1,8
4820,14,-3,2,-24,-17,1,1,-15
4825,1,-15,0,32,9,-1,0,5
4830,-59,-46,6,-11,-8,-6,-3,-9
4835,18,15,0,-32,-10,-4,-5,-6
4840,6,17,-6,3,21,3,0,-19
4845,-7,-35,-8,-5,1,0,-2,24
4850,-6,35,4,-1,-34,-3,2,7
4855,-41,-36,-1,-11,2,-9,-6,-3
4860,-8,-5,2,24,12,4,2,-4
4865,16,-16,-4,36,52,15,4,-8
4870,37,16,9,21,-48,-11,-1,14
4875,-42,-9,-6,16,-7,-4,1,3
4880,12,17,0,67,29,4,-2,8
4885,-7,6,-4,-50,-35,-5,-1,-19
4890,-20,12,1,8,28,2,-3,-4
4895,33,31,5,23,5,5,1,1
4900,-10,-6,8,-19,-17,-5,0,-6
4905,2,0,-25,-36,5,2,-1,0
4910,15,-22,5,127,22,-2,-8,-13
4915,3,-15,-6,-76,-32,-4,4,11
4920,7,-8,2,-18,11,0,-4,-16
4925,8,18,4,-16,-7,-3,0,3
4930,-27,-16,3,-10,11,1,-1,-3
4935,-11,34,0,71,36,7,2,-14
4940,0,0,1,-40,-38,-3,3,40
4945,9,20,9,-40,-36,-10,-1,-16
4950,10,-12,4,35,40,5,2,35
4955,-2,-6,-9,15,-8,-7,-6,-7
4960,-58,39,3,-20,12,4,5,-10
4965,10,1,7,-8,-12,-4,-2,-2
4970,18,-5,-13,-38,19,7,4,-9
4975,-8,4,2,-14,-23,-3,-1,-1
4980,54,-5,11,10,13,-2,-1,8
4985,-11,-14,0,-6,-10,-4,-2,-2
4990,-1,12,-9,-47,-35,-3,-1,-12
4995,6,-6,1,16,5,-1,-1,6
5000,9,-14,-17,-26,-8,-2,-4,-4
5005,-5,-12,-5,2,9,-1,1,0
5010,10,27,26,52,18,4,-1,-4
5015,-1,-21,-18,-18,-17,0,4,12
5020,-9,18,4,-46,1,-1,-3,-9
5025,-13,4,-5,7,-22,-4,-3,-9
5030,52,-3,-1,19,7,0,2,20
5035,41,20,21,24,23,7,5,5
5040,-45,-14,-10,11,-26,-7,-3,-8
5045,-3,-12,-11,-5,15,3,-2,9
5050,28,-9,-5,-31,-34,-1,1,-11
5055,-9,-22,2,5,4,-6,-4,-6
5060,9,-14,-20,-23,-24,-8,-6,1
5065,-10,0,6,89,32,6,0,1
5070,-9,-21,-8,-82,-17,1,2,-4
5075,-8,-4,-4,53,5,-4,-5,-2
5080,23,-17,-5,-23,-7,-1,-4,-8
5085,-16,-9,-6,-33,17,4,2,2
5090,-10,14,15,95,27,0,0,-5
5095,11,-4,-22,-82,-33,-3,0,1
5100,-8,3,24,89,20,3,-2,1
5105,29,51,-4,-43,3,0,1,5
5110,-37,-24,5,31,-9,-7,-2,-3
5115,36,8,2,-8,-1,-4,-5,-4
5120,1,-25,6,20,13,8,6,4
5125,-18,-13,2,-4,-7,-2,-1,0
5130,-13,9,-7,-29,-4,-2,-2,-24
5135,-3,28,-11,-13,-3,-2,-1,29
5140,22,12,4,5,-4,2,5,3
5145,-18,7,10,36,8,3,1,0
5150,-35,-27,-28,-88,-15,-6,-5,-7
5155,-19,-14,23,64,5,-1,-6,-16
5160,5,26,-14,3,0,-2,0,5
5165,3,-18,-2,-19,-9,-1,-2,2
5170,11,19,-3,18,0,3,4,6
5175,-3,7,-4,-36,12,8,6,-4
5180,27,31,1,31,-18,-11,-4,-2
5185,9,-1,9,10,-3,-7,-3,-1
5190,-34,-33,-9,27,19,-1,-6,-2
5195,0,10,1,-68,-7,-1,-2,-3
5200,25,13,3,14,3,2,0,0
5205,8,1,9,-52,3,4,1,1
5210,33,7,11,29,7,5,5,8
5215,-59,-20,3,14,-25,-9,-4,-7
5220,-26,-22,-12,-7,2,-3,-2,-5
5225,31,-12,4,52,6,-2,-3,-2
5230,-2,6,-10,-43,-3,0,-1,1
5235,-7,-11,-3,-18,2,2,2,-16
5240,0,2,3,-3,-5,-1,-2,25
5245,9,-8,7,-3,-2,-2,-2,-7
5250,-43,27,5,53,1,-2,-1,0
5255,18,-1,-12,-63,-11,-4,-3,-5
5260,21,-31,-4,47,4,-3,0,6
5265,-45,-22,4,59,12,0,0,-6
5270,14,23,6,-44,-6,3,-1,6
5275,-5,-1,-2,36,3,2,0,-2
5280,2,-15,12,2,2,2,1,-10
5285,-44,-15,-17,-21,-21,-9,-4,0
5290,32,16,16,54,17,4,1,1
5295,-18,-9,-11,-44,-5,1,-2,0
5300,2,-3,-3,-19,6,4,1,-6
5305,3,13,-4,16,10,0,1,2
5310,-2,-14,-8,-1,5,0,3,-3
5315,22,16,4,-49,-33,-3,1,10
5320,2,31,9,56,20,5,0,-2
5325,-1,-18,-23,-52,-18,-6,-6,-8
5330,-38,-13,4,14,0,-6,-4,-8
5335,-39,25,12,77,19,8,2,5
5340,48,16,-13,-30,-1,-2,-5,-8
5345,33,-1,6,-58,-42,-7,0,12
5350,36,-9,-7,17,8,-2,-3,-3
5355,-5,-5,12,50,11,-1,2,2
5360,-21,-20,-9,-34,-12,-1,0,-6
5365,-24,20,-7,-11,12,2,0,-2
5370,9,2,-12,-26,-9,-4,-4,-7
5375,1,-50,7,28,3,0,-1,-5
5380,-17,-5,3,-44,0,1,1,0
5385,57,-19,-6,-14,11,-8,-6,-5
5390,-12,-11,9,9,-22,-1,5,6
5395,6,2,-32,-31,5,-1,-3,-4
5400,-12,-3,8,2,-1,2,2,5
5405,0,5,-1,7,8,6,2,-1
5410,-6,-9,14,32,7,-1,-3,-2
5415,23,-3,-11,-51,0,-7,-4,-19
5420,-7,11,-1,28,-1,-3,-4,26
5425,4,32,-2,-45,0,0,4,2
5430,29,-13,-2,-57,-4,1,-1,4
5435,-13,0,1,-2,-5,-1,-1,-8
5440,-10,0,11,42,16,-3,-4,-21
5445,-40,8,2,58,-5,-3,-4,-3
5450,26,-12,0,15,-12,-1,2,13
5455,14,-11,-30,-33,-14,-4,-4,3
5460,0,-7,1,-17,-4,-1,-1,-6
5465,-43,-2,19,70,22,7,0,-1
5470,3,-5,-40,-44,-32,-8,-3,-9
5475,-6,5,25,-63,1,-1,-1,-11
5480,-4,-14,-5,42,13,2,2,23
5485,-11,-3,-1,-16,-13,-7,-6,-2
5490,-40,18,10,36,15,3,-3,-8
5495,-11,-10,17,46,19,12,9,5
5500,-7,-16,-25,-75,-35,-11,-3,-7
5505,1,-11,3,-29,6,6,1,-2
5510,1,49,-1,27,12,4,3,3
5515,1,27,3,30,-9,-9,-3,0
5520,-48,-39,4,-8,2,3,1,-16
5525,22,0,-6,20,7,1,-2,2
5530,-2,-11,0,-22,-4,-1,-1,-1
5535,27,10,12,50,7,4,5,6
5540,19,6,-8,-19,0,-2,-4,-7
5545,-2,13,-6,1,5,1,0,1
5550,-6,-35,-10,-9,-11,-9,-4,-1
5555,15,24,17,-2,1,-3,1,8
5560,-15,-4,-23,-6,2,-6,-5,-3
5565,1,-9,6,45,6,1,0,-9
5570,10,2,10,49,1,4,1,-1
5575,2,-8,-8,-11,-10,-4,-3,6
5580,-22,15,9,15,-5,0,-1,-4
5585,22,5,4,-14,-5,0,3,5
5590,6,23,-8,5,2,-1,-1,-2
5595,-4,-76,-4,-3,-4,-8,-5,0
5600,35,9,-1,4,1,8,6,6
5605,-46,-7,-13,-34,3,-4,-7,-8
5610,6,1,8,21,5,0,-1,-7
5615,29,14,-5,-78,-6,2,1,14
5620,4,8,15,30,21,6,3,-1
5625,-11,-50,-8,-10,-37,-18,-5,3
5630,57,34,6,-27,6,1,1,-1
5635,-27,7,-8,58,2,4,0,2
5640,7,3,-3,-8,-5,-1,-1,-8
5645,10,6,1,0,3,4,4,17
5650,-25,-15,0,-15,3,1,-2,3
5655,-3,5,22,29,6,-1,-4,-1
5660,9,8,-15,0,-10,1,1,-1
5665,55,49,-7,-23,13,3,-3,-17
5670,-18,-38,6,-13,-8,-4,6,26
5675,-4,9,-1,64,20,-2,-3,-4
5680,-13,-3,8,-10,-11,-3,-1,-6
5685,24,18,10,39,16,7,3,5
5690,-3,-1,-6,-50,5,3,-2,-4
5695,-8,5,1,-2,-11,-2,0,-4
5700,4,7,8,13,3,-6,-2,5
5705,-16,-17,-11,-19,-5,-2,-2,-8
5710,1,3,14,7,6,4,3,0
5715,-21,-13,-22,12,4,7,7,3
5720,21,-9,10,-24,-18,-12,-11,-14
5725,-36,-6,-15,6,-9,0,5,11
5730,-11,-18,-1,-15,2,-9,-5,-20
5735,19,22,14,16,5,3,2,7
5740,-3,16,4,21,19,9,4,2
5745,5,-16,2,3,7,0,0,-5
5750,48,18,10,31,-39,-6,-4,14
5755,-16,-3,-12,-95,9,-4,-2,-9
5760,-1,-7,-4,2,-9,-2,-2,2
5765,-22,-16,-4,-22,-8,-2,-2,-6
5770,9,1,-11,0,26,4,-4,-6
5775,-55,-3,-2,-44,-25,-5,-6,-4
5780,34,-4,3,17,1,5,4,5
5785,-19,2,4,36,13,1,1,-1
5790,-6,39,2,-4,-1,-1,3,-6
5795,21,-10,-12,26,-3,-4,-6,9
5800,1,0,0,-43,-14,-5,1,-3
5805,-25,9,2,5,-1,-1,0,-2
5810,-13,-4,-11,31,8,2,0,-1
5815,-14,-4,-4,-64,-28,-9,-2,-15
5820,-1,8,6,40,14,7,1,3
5825,37,0,1,-32,-4,1,-2,5
5830,-19,-8,0,25,2,-1,-2,-9
5835,19,5,-2,51,14,2,0,-1
5840,-41,-4,-6,-11,-24,-6,-1,8
5845,17,45,18,34,10,3,2,3
5850,-35,-37,-14,-96,-15,0,0,-2
5855,-8,26,-19,-20,-11,-6,-3,-4
5860,8,5,9,27,14,0,-2,3
5865,-1,3,-2,18,0,-2,-3,-5
5870,15,-4,1,23,1,0,-1,2
5875,-1,20,-3,-12,-3,5,1,0
5880,-10,-54,-4,-12,-18,-11,-8,-35
5885,21,11,0,-14,0,2,4,47
5890,0,-6,1,14,-5,1,0,-3
5895,2,-8,4,49,-2,-2,-1,-1
5900,9,15,-5,-47,8,1,-2,-4
5905,-12,-42,-17,-43,-25,-5,-3,-11
5910,24,7,4,44,6,1,-1,4
5915,4,-7,8,-14,18,3,-2,-1
5920,1,5,2,16,-20,-3,2,3
5925,14,-50,-4,5,11,-2,-3,-9
5930,-22,-38,-5,37,0,-1,1,2
5935,16,-11,-2,5,5,1,1,-2
5940,-2,-4,-6,-48,6,4,1,5
5945,4,10,5,13,-6,1,0,-16
5950,-6,6,-6,-17,-2,-5,-5,3
5955,17,-19,14,35,4,0,2,12
5960,-39,18,-8,6,12,-1,-2,-2
5965,-6,5,-3,3,-10,-2,2,-2
5970,-3,2,-8,-14,4,-2,-3,-6
5975,27,5,2,-20,-8,1,0,-4
5980,25,12,11,75,18,8,1,9
5985,-19,-5,-5,-74,-15,-4,-2,-15
5990,-32,-14,-15,8,-9,-7,-5,-2
5995,23,-3,-1,6,13,0,-1,0
6000,6,-1,-3,-5,-19,-4,-1,-1
6005,-9,-14,3,11,15,4,0,-6
6010,10,4,5,-10,-1,1,1,4
6015,-17,5,0,-7,-12,-5,-3,-1
6020,-2,-3,6,34,20,6,1,0
6025,7,-8,-16,10,-8,-1,-2,-10
6030,30,-8,-14,-72,-13,-6,0,17
6035,-42,0,14,97,-7,-7,-6,-3
6040,0,-2,-9,5,0,-6,-2,1
6045,-1,10,4,38,12,0,-2,5
6050,21,2,1,-28,8,3,3,-6
6055,2,-2,-4,-52,-1,0,0,-4
6060,-6,-3,6,33,3,5,5,6
6065,4,-3,-5,3,-7,-3,-1,3
6070,-10,6,7,-1,4,0,-1,-9
6075,1,-9,-9,-6,-11,-5,-5,-2
6080,1,10,-3,15,12,-2,-1,2
6085,-26,-7,-25,-105,-20,-6,-4,-6
6090,-16,5,16,69,-12,-5,-1,-4
6095,-3,6,11,41,15,4,-3,1
6100,2,0,3,-16,1,2,0,-4
6105,12,-11,-1,10,5,3,2,2
6110,-4,3,-10,-1,-1,-1,0,2
6115,12,-11,-5,-22,-3,-1,0,-8
6120,0,-7,-6,18,0,-3,-7,-13
6125,10,38,8,-42,6,6,2,15
6130,4,-5,-19,-53,-28,-10,-7,-9
6135,13,-10,8,69,23,4,2,-1
6140,-18,-4,-14,-55,-21,-5,0,1
6145,-2,14,24,127,33,0,-2,-2
6150,13,3,0,-45,3,3,-1,-4
6155,-7,15,-9,-19,-1,2,-2,1
6160,5,-55,10,19,2,-5,-4,-14
6165,-47,-2,-19,-33,-15,-6,-3,12
6170,10,2,6,21,11,9,8,25
6175,24,23,0,3,-3,-1,-1,2
6180,-36,12,1,-16,-2,-1,0,1
6185,30,0,9,36,-5,-4,-4,-12
6190,-17,-11,5,51,18,2,2,5
6195,-5,5,-18,-65,-14,-6,-3,-2
6200,57,-19,-1,8,-5,-4,-2,-14
6205,-24,31,1,-18,-7,-3,0,26
6210,12,15,7,47,18,1,-1,-7
6215,-20,-12,2,-9,1,1,1,-3
6220,-3,7,-4,-53,-18,-5,-3,3
6225,9,8,-7,27,6,1,1,-15
6230,9,18,5,-13,-9,0,0,-1
6235,-12,10,6,22,7,3,1,-6
6240,26,11,5,8,2,2,4,33
6245,10,-6,-5,-1,-7,-3,-1,-15
6250,-7,11,3,-7,4,-2,-3,-8
6255,-4,-10,4,-19,-5,-2,0,19
6260,-2,-1,-1,47,2,2,1,-1
6265,-3,-26,-6,-16,3,3,0,-4
6270,-8,-14,-5,16,-20,-6,-2,-12
6275,-7,-15,-5,21,-1,-2,0,-6
6280,-1,-5,8,-6,10,1,-1,2
6285,-3,-9,4,34,2,-1,-1,1
6290,-23,-15,-9,13,3,2,-1,-7
6295,3,1,2,-22,-10,-3,-1,3
6300,-13,12,-5,8,-2,-1,-4,-2
6305,15,-3,6,18,7,1,-1,-16
6310,32,26,-8,7,0,-5,-3,16
6315,-33,-24,-2,-5,7,6,2,-9
6320,-13,11,1,-55,-11,0,0,-1
6325,-10,-16,-20,-68,2,-6,-6,-6
6330,2,-9,1,-2,5,0,-2,-4
6335,15,0,-1,13,5,4,2,0
6340,-57,-2,-13,6,-13,-8,-6,-10
6345,78,7,9,18,6,2,3,6
6350,-54,-4,10,-34,-17,-2,-1,-10
6355,-4,-1,-2,11,8,-4,-3,-1
6360,7,13,2,46,8,2,2,0
6365,4,-10,-8,-93,-19,-2,-1,7
6370,31,5,2,32,19,-3,-4,-2
6375,-35,2,10,-8,-13,-2,-1,-4
6380,-21,10,-4,14,14,5,1,-5
6385,-17,2,2,-9,-25,-2,0,-8
6390,22,-4,-2,9,12,1,1,27
6395,-1,-19,-3,-30,-3,2,1,-4
6400,23,8,-10,-11,-3,-3,-5,0
6405,-27,-19,9,74,11,-2,1,1
6410,-30,-13,-14,-53,-9,-4,-4,-23
6415,20,19,4,8,-2,-2,0,8
6420,-6,-8,-15,-42,-13,-4,-2,3
6425,23,6,21,41,12,1,0,1
6430,-5,-16,-7,6,-2,2,1,-8
6435,12,-7,-8,1,-10,-6,-4,2
6440,8,7,8,16,20,5,-2,-7
6445,-20,0,-11,2,-21,-2,-2,0
6450,-7,0,-5,-49,-4,2,3,1
6455,0,-2,8,35,10,1,-2,-2
6460,12,-2,-4,12,-10,-4,0,1
6465,-8,-8,3,0,-3,-3,-1,-7
6470,21,41,9,15,13,4,3,8
6475,-3,-3,-13,-22,1,2,0,-6
6480,1,-14,10,-13,-4,-3,-3,-3
6485,-2,-34,-14,10,13,2,0,-2
6490,24,14,10,55,7,3,2,-4
6495,39,3,-3,-112,-23,-4,-3,16
6500,-16,-4,1,25,9,1,0,-8
6505,4,1,1,-9,-1,0,0,-16
6510,-9,-36,-5,0,-3,-3,-4,14
6515,-1,-22,1,43,4,-1,2,12
6520,-7,44,-1,-12,2,-1,-1,-3
6525,12,6,-3,-49,-10,3,-1,6
6530,-11,-13,-3,13,-22,-6,-3,-9
6535,-11,18,-29,7,6,-2,-6,-9
6540,-20,-16,14,-56,-4,2,2,7
6545,-26,5,-4,59,5,3,2,5
6550,0,14,4,23,5,-1,-3,-8
6555,48,21,1,-105,-49,-3,0,-2
6560,-19,4,4,61,12,-2,-5,-6
6565,12,7,8,47,23,6,1,3
6570,-21,-3,-6,-38,-8,1,4,5
6575,-15,-18,5,49,14,3,1,-23
6580,51,19,-4,-39,-14,-4,-1,13
6585,-39,20,13,17,3,1,0,8
6590,-11,-9,-12,-4,-4,0,1,0
6595,-7,35,10,63,16,-2,-3,-22
6600,-2,-5,-17,-78,-8,-2,-1,12
6605,0,-5,1,16,-1,-4,-6,2
6610,-21,3,9,15,14,3,1,-6
6615,-11,-71,-2,15,-2,-1,2,-10
6620,-6,5,-10,-25,-11,2,4,10
6625,17,17,0,10,-1,-10,-8,-6
6630,-7,-11,3,-3,16,8,2,-1
6635,-64,6,18,49,-2,-4,-2,-3
6640,39,-4,-8,4,-35,-7,-3,-6
6645,-10,-2,-9,-34,-1,-3,-2,-7
6650,8,5,0,-51,3,4,1,4
6655,-26,-8,-5,97,8,-3,-2,7
6660,-4,17,1,17,14,-2,-4,-5
6665,-17,4,-7,-26,-25,-6,1,4
6670,28,-22,5,42,-19,-2,-2,-1
6675,39,4,4,-125,4,0,-1,10
6680,-63,-6,2,41,20,3,1,-5
6685,50,-23,-5,-23,-7,3,1,-24
6690,-28,47,-16,-25,3,-7,-2,27
6695,25,18,8,43,-11,-1,-2,1
6700,0,-2,-9,-13,12,1,-3,-5
6705,9,-35,3,41,-2,1,2,4
6710,-59,-43,-4,-19,9,2,-1,-9
6715,29,19,-7,-21,-28,-7,-2,2
6720,9,-7,9,43,20,1,0,-3
6725,-39,12,-2,-30,-22,-2,0,4
6730,27,13,-2,15,21,3,-1,-6
6735,19,43,0,-85,-49,-6,-2,12
6740,-29,-13,12,40,31,6,5,-3
6745,-1,-16,-22,-15,-14,-12,-9,0
6750,4,-1,6,5,-6,1,-1,-8
6755,-9,-11,0,-5,7,3,-2,-22
6760,36,9,2,-63,-7,7,7,33
6765,-4,26,1,59,15,-3,-3,-1
6770,20,0,-1,-61,-13,-4,-2,-3
6775,-3,-7,-5,43,10,5,1,3
6780,5,-16,7,-19,-23,-9,-4,-9
6785,-24,-26,-7,-2,16,5,2,3
6790,31,-7,-4,24,7,-3,-4,-5
6795,24,24,5,-12,7,4,6,18
6800,-46,-6,-7,48,-19,-6,-3,-14
6805,41,3,3,-66,19,2,0,6
6810,-27,67,19,23,-21,-9,-4,-9
6815,1,-9,-19,-54,24,11,4,4
6820,-9,-10,7,76,-15,-13,-10,-9
6825,-21,29,4,21,12,7,2,5
6830,5,-45,-10,-6,-3,-1,-1,0
6835,-16,-16,4,10,13,2,0,-3
6840,22,22,5,25,16,4,2,-3
6845,8,-21,-11,8,-17,-5,-2,12
6850,17,3,-3,-67,-24,-7,-3,-1
6855,-81,-8,5,52,10,-3,-4,-13
6860,17,-9,4,45,28,9,3,-5
6865,-33,12,-1,-89,-32,-6,0,-4
6870,11,-21,0,10,6,5,0,-5
6875,-63,-31,4,18,9,-4,-2,-6
6880,45,62,-6,-33,-7,-1,-1,17
6885,1,3,11,30,13,5,3,5
6890,2,6,3,9,5,0,1,5
6895,26,-9,3,-9,-4,3,-3,-3
6900,9,7,-4,33,18,-2,-1,-5
6905,24,8,10,32,-3,-5,-2,-15
6910,11,-5,4,47,12,7,3,9
6915,-16,5,-11,-74,-29,-9,-4,-1
6920,9,-2,-6,17,3,5,3,-2
6925,71,9,12,6,-2,3,-1,0
6930,-22,-22,6,8,-14,-1,-2,-10
6935,12,12,-11,46,-9,-6,1,4
6940,-9,-16,10,-53,1,-2,-2,0
6945,-31,-15,-21,-25,-2,-4,-2,-6
6950,19,2,1,2,8,2,1,4
6955,43,10,4,33,11,4,0,5
6960,-5,-20,-17,-43,-26,-3,-2,-12
6965,-9,-8,-2,25,16,-4,-1,0
6970,4,17,8,-26,-15,-2,3,13
6975,-3,5,-5,-8,-21,-11,-7,-23
6980,-6,-24,2,2,9,3,1,23
6985,-21,-2,-6,-3,4,3,0,-4
6990,-38,-4,-9,2,-2,0,0,-3
6995,30,5,-3,10,13,6,1,3
7000,23,-2,7,22,-33,-10,-6,-6
7005,8,-3,-2,-45,2,0,1,2
7010,-5,-4,0,5,-27,-10,-6,-7
7015,21,-2,-1,18,15,4,0,7
7020,-14,-11,-1,-25,-1,1,3,-3
7025,1,9,-7,16,2,-1,-1,3
7030,4,13,-6,-35,3,-3,0,-5
7035,-11,6,-1,1,3,-10,-8,-7
7040,-5,-18,-14,-16,-1,5,3,-1
7045,-16,-2,16,-13,-6,-6,-3,-3
7050,22,-3,-8,-13,-2,-3,-2,-3
7055,-26,6,2,8,0,-1,1,3
7060,-11,16,3,4,13,2,-2,-10
7065,42,-10,-7,-38,-29,-1,2,8
7070,-25,-5,-23,32,5,-3,-5,10
7075,-1,-27,2,-29,1,1,3,13
7080,-17,12,1,34,9,-7,-6,-6
7085,-46,-15,13,48,14,7,1,-3
7090,22,14,11,4,3,2,3,1
7095,0,-9,-3,-25,0,2,1,-4
7100,-26,-19,-3,36,7,1,0,2
7105,39,-1,-5,-19,1,1,-2,-9
7110,13,-16,7,-83,-17,-11,-5,15
7115,-13,0,0,-4,-18,-5,-2,-5
7120,6,-15,-11,-25,-9,1,1,-1
7125,8,19,3,57,15,1,-2,-3
7130,-10,-6,1,26,7,5,-1,-9
7135,8,-3,3,-7,3,2,-1,4
7140,18,8,4,-31,-7,1,2,3
7145,-14,-11,-7,33,-3,-2,0,3
7150,15,-6,3,-55,22,6,3,-19
7155,-44,29,4,68,-29,-10,-8,20
7160,41,-16,-31,-49,-11,-9,-7,-9
7165,-15,17,2,-65,-5,-1,0,1
7170,-10,-1,2,63,1,3,3,-3
7175,8,10,0,-14,24,7,2,-7
7180,-11,-5,5,4,-6,-1,-2,-1
7185,-6,-3,1,-9,-2,1,0,7
7190,2,15,-1,72,15,2,2,0
7195,10,-12,-9,-80,-40,-9,-4,-5
7200,14,-3,1,58,25,4,1,7
7205,-10,3,13,0,-7,-3,-3,-8
7210,-8,-32,-4,10,-8,-3,-1,-5
7215,22,-5,-9,12,19,3,-2,8
7220,5,5,13,-23,-8,-4,0,-3
7225,-8,12,5,51,4,2,-1,-2
7230,7,-2,0,16,4,1,0,0
7235,-11,0,-6,-61,-7,-3,-1,-11
7240,-11,13,-6,14,-7,-2,-5,-10
7245,14,-10,3,-2,4,0,1,13
7250,7,18,-4,-9,-16,-1,-2,-5
7255,12,-1,4,17,22,2,0,-3
7260,-25,-4,3,11,-6,-2,-4,-5
7265,18,-2,0,35,-1,1,0,-1
7270,5,4,-6,-26,-5,-5,-5,1
7275,-37,-6,4,51,8,4,3,-3
7280,-13,17,-12,-19,3,3,0,3
7285,-19,-43,-8,-20,-9,-5,-5,-19
7290,-4,7,-2,-3,6,-1,1,31
7295,21,-2,7,-42,-4,2,2,-5
7300,-5,-10,14,93,-5,-9,-5,-4
7305,-11,21,-13,-50,5,3,1,0
7310,-18,-2,0,-42,-7,0,-3,-12
7315,0,-9,-7,10,0,0,-1,-19
7320,6,-16,-5,-20,0,-1,2,38
7325,4,14,2,26,3,-3,-3,-2
7330,8,0,-2,8,4,0,0,-2
7335,14,2,-1,-42,-7,-2,-1,-6
7340,-38,-26,1,-44,-14,0,1,-14
7345,30,-7,4,20,5,2,3,5
7350,-10,-7,8,32,9,-1,-5,-2
7355,-23,-19,2,47,1,0,0,4
7360,49,24,-12,-98,-23,-2,1,3
7365,-19,8,-1,19,8,-3,-2,-4
7370,-12,-7,-13,22,-1,-2,-3,-12
7375,6,-1,4,51,15,0,-1,5
7380,-2,4,12,18,-2,3,1,-8
7385,-7,1,-3,-3,-10,-3,0,-3
7390,8,20,2,-2,1,0,4,10
7395,7,1,0,4,9,-1,-1,11
7400,-4,-6,-1,-4,-10,-3,-1,-5
7405,15,-3,-8,-79,-5,-3,0,5
7410,18,2,2,41,-2,-3,-4,-7
7415,-52,-3,-20,-39,1,-4,-4,-8
7420,-11,-4,8,27,15,1,0,-22
7425,6,-22,-21,-53,-18,-11,-4,6
7430,-6,-9,3,-47,-5,-3,-2,-1
7435,39,2,5,6,3,0,0,4
7440,-22,-4,1,39,18,-1,-2,-9
7445,-1,-20,-7,-61,-16,-6,-5,-7
7450,-18,-17,3,2,16,6,3,-4
7455,16,-8,-2,1,-10,-1,-2,-2
7460,-8,12,-2,7,-10,-3,-2,5
7465,-13,3,3,34,0,3,1,7
7470,0,0,4,0,-3,0,1,-2
7475,47,7,15,36,4,2,5,3
7480,-20,13,-4,-94,7,0,0,0
7485,16,-29,-14,68,-10,-6,-6,-16
7490,-40,17,4,-9,-1,0,-2,12
7495,-8,19,9,40,4,4,4,2
7500,13,2,-11,5,1,3,4,0
7505,70,8,20,9,-14,0,3,28
7510,-12,12,-7,32,9,-3,-3,-10
7515,-16,-10,-5,11,0,-4,-3,-6
7520,25,-4,4,-39,2,2,-2,5
7525,-20,2,-4,-9,-1,-2,-5,-10
7530,6,-19,-5,18,6,2,2,-3
7535,-1,5,-1,-57,-9,3,4,7
7540,-27,-20,-5,17,-4,-4,-5,-15
7545,-25,35,5,16,11,4,3,-16
7550,8,-3,1,-5,-8,-6,-3,16
7555,-9,6,2,8,-2,-3,-1,-8
7560,11,-11,-6,33,1,2,0,7
7565,-3,2,3,10,13,0,-3,-10
7570,-14,-4,3,-5,-9,2,4,-2
7575,0,13,8,37,10,1,-4,0
7580,8,-12,-11,23,7,-2,-2,1
7585,-7,26,14,-4,-3,0,1,6
7590,-3,-6,-12,-25,-7,-3,-2,-12
7595,-45,13,-4,-8,-2,0,-1,8
7600,39,-26,11,13,3,3,3,1
7605,-25,32,-9,-49,-26,-5,-6,-7
7610,10,-10,-2,-42,3,-4,-3,-1
7615,-8,0,-3,3,5,-2,-3,-25
7620,4,28,7,19,29,9,2,17
7625,20,-65,-10,-52,-40,-1,5,35
7630,24,27,20,110,3,-5,-4,-5
7635,35,4,-8,-53,-1,0,0,-1
7640,-6,16,0,31,2,-4,-3,-7
7645,2,-2,-4,-3,23,5,2,-6
7650,7,-6,5,48,-1,-1,-2,-3
7655,-24,-5,-19,-61,-9,0,-3,2
7660,22,-18,6,22,-8,-3,0,-2
7665,-41,9,9,34,28,2,-1,-4
7670,-14,-9,-7,-49,-38,-12,-4,-9
7675,24,-43,-8,9,8,-3,-1,1
7680,-30,13,-3,-12,-7,-2,0,-2
7685,43,14,-1,5,16,1,-1,1
7690,0,6,4,32,17,8,4,-5
7695,1,-24,-8,-41,-26,-7,-3,-2
7700,-4,3,1,44,16,0,-3,6
7705,-21,-12,-6,-11,-40,-8,-3,-13
7710,19,-8,-12,-37,-1,2,2,-7
7715,18,16,11,33,7,3,2,25
7720,27,-10,3,36,8,-4,-5,-6
7725,-62,13,-1,-53,8,0,0,-4
7730,20,-12,-8,-7,-2,1,-1,0
7735,-7,1,-3,9,-4,-4,-1,-5
7740,15,3,1,-27,-15,-3,1,-4
7745,15,-4,-2,37,12,-2,0,5
7750,-24,-10,-13,-58,6,-1,-3,1
7755,-16,-3,7,3,-25,-3,0,-13
7760,-16,-7,-10,-47,-12,0,1,12
7765,-14,-7,0,45,6,2,-1,-3
7770,6,7,3,-4,9,-2,-1,7
7775,-2,12,0,3,19,7,1,-6
7780,3,-20,3,15,-23,-5,-3,-8
7785,13,9,9,-10,15,-2,2,-1
7790,-12,11,-7,44,14,3,0,7
7795,24,-7,-5,-46,-14,-8,-6,0
7800,-49,7,2,-18,13,5,2,-2
7805,1,-19,1,26,8,2,-1,0
7810,1,-3,3,-3,-19,-6,-2,-7
7815,-9,12,-5,11,7,-1,-2,0
7820,43,1,-2,-32,-8,1,5,3
7825,30,-15,-1,24,3,0,-2,9
7830,-24,-5,-4,-7,-17,-8,-6,-8
7835,-14,-8,11,20,5,-2,-1,3
7840,-6,18,-2,-23,-1,2,-2,-13
7845,-14,7,-12,-26,-7,-1,1,-5
7850,15,-3,19,-2,10,7,4,7
7855,13,2,2,29,-2,1,1,6
7860,1,-34,-3,0,-4,-6,-3,0
7865,-31,9,2,-38,12,4,2,-2
7870,-6,-6,-10,6,-2,-3,-2,1
7875,1,5,7,-11,-16,-1,0,-8
7880,11,0,-10,4,8,1,-1,13
7885,1,3,4,21,-5,2,0,2
7890,-5,-13,-12,-37,4,-3,-2,-8
7895,6,2,14,20,9,3,2,-2
7900,-7,32,0,16,2,0,-2,-4
7905,-6,-21,-10,-37,-3,-5,-5,-12
7910,-4,-7,-1,-5,-10,2,4,27
7915,31,-12,-4,5,5,-2,0,5
7920,-52,34,6,17,8,1,3,0
7925,-46,-9,-13,53,7,-1,-2,-9
7930,22,4,16,10,4,4,2,-14
7935,-11,-12,-7,-6,-2,-3,-1,11
7940,33,8,3,-53,-11,-1,-2,0
7945,36,16,7,-15,5,1,-1,-1
7950,8,-1,11,72,-22,-3,-3,-4
7955,-31,14,-9,-23,3,2,4,-5
7960,-3,-12,-9,-23,-13,-5,-3,1
7965,27,43,7,-3,1,0,0,5
7970,-21,-17,9,-7,12,1,-3,-3
7975,5,25,7,47,17,4,3,-1
7980,-20,-8,4,19,9,3,1,-7
7985,36,-8,-17,-91,-57,-14,-5,12
7990,-55,0,7,12,20,4,-1,-10
7995,-23,-2,0,-6,-3,2,-1,4
8000,35,-6,-3,11,12,-1,-3,-15
8005,-54,-22,-1,18,0,-4,-2,-10
8010,13,22,4,2,-5,1,2,0
8015,-12,-30,-21,-48,-7,-6,-3,-1
8020,5,54,2,2,-2,-1,-1,-7
8025,-3,5,12,53,2,4,1,-4
8030,-1,-9,-12,-56,0,-5,-3,4
8035,13,-2,0,20,4,4,0,-4
8040,-14,-20,-4,-39,-10,-4,-2,2
8045,45,-6,2,69,-3,0,-1,3
8050,-8,40,2,-56,0,1,0,-12
8055,-35,-12,-9,-55,0,-2,-2,8
8060,8,13,-10,-8,-11,-4,-2,3
8065,-11,-15,15,24,23,7,3,6
8070,-11,-22,-16,-21,-26,-2,-2,-11
8075,59,12,8,20,2,-3,-1,3
8080,-73,-12,8,39,5,-1,-3,-3
8085,11,14,-3,-23,3,-3,0,-6
8090,43,-3,-3,26,10,2,2,16
8095,-27,-7,18,39,12,3,-1,-8
8100,40,-4,-12,-52,-44,-11,-5,4
8105,-14,18,15,23,9,1,-1,-11
8110,38,-14,-21,28,8,2,-1,-1
8115,-4,-5,-9,-35,-14,-5,0,14
8120,-5,-22,13,64,25,3,1,4
8125,11,29,-10,-64,-19,-1,-3,13
8130,22,-8,-5,21,-1,-4,-2,-6
8135,2,0,1,19,8,3,0,-5
8140,-13,0,8,20,4,0,1,-2
8145,6,-25,-19,6,6,-3,-3,-8
8150,-8,7,-1,-67,-8,-1,-2,5
8155,12,-4,3,71,4,-3,-1,-5
8160,5,-4,-3,-15,7,1,1,3
8165,12,-27,4,20,-2,1,0,-5
8170,-2,-6,9,23,9,1,2,2
8175,-28,45,-6,-7,-16,-11,-6,-10
8180,12,-11,7,37,22,7,5,-10
8185,-25,-17,-15,-35,-22,-3,-1,3
8190,-2,-4,16,76,5,-7,-4,8
8195,19,1,-2,-45,-8,2,3,14
8200,-28,1,-7,-3,-15,-3,-2,-6
8205,-3,9,4,-61,9,0,0,-1
8210,-4,-6,-8,-24,-8,-3,0,-3
8215,-11,3,-15,-6,1,-4,-5,-10
8220,35,-9,-1,-7,13,1,2,9
8225,-18,8,-1,29,3,-1,0,0
8230,-7,-17,6,7,-16,-1,-1,-5
8235,-11,19,12,17,11,-3,-4,-5
8240,-26,-19,-19,-88,-11,-2,0,22
8245,27,16,5,71,14,3,2,1
8250,-12,13,-3,-52,0,-2,-1,-5
8255,-15,-29,-8,-3,-16,1,0,-6
8260,47,-34,6,25,0,-4,-5,-16
8265,-42,-13,5,44,-2,-1,1,9
8270,13,13,-11,-22,8,1,-2,-1
8275,23,-24,-1,-36,-19,-6,-2,4
8280,10,4,-8,29,1,3,0,0
8285,31,5,-3,-41,-10,-5,-2,-5
8290,12,-6,0,25,16,4,2,0
8295,3,-35,0,-2,-17,2,1,-2
8300,-51,-25,-10,-15,7,-1,-2,-1
8305,1,-1,7,50,6,-1,0,-6
8310,-26,-16,-10,26,-7,1,3,-5
8315,9,27,3,9,5,2,1,11
8320,-31,-3,-6,41,5,-3,-1,2
8325,-8,31,6,-59,1,-1,-2,-14
8330,-15,-4,-6,-54,-17,-4,-4,11
8335,-20,-4,4,51,20,-1,-1,-5
8340,29,13,2,3,-2,3,3,-2
8345,-12,-5,0,6,5,0,-1,3
8350,56,27,6,14,3,-5,-3,-7
8355,-54,-3,-2,2,-3,-4,-4,0
8360,9,20,-6,-92,-23,-5,1,2
8365,18,-17,-7,61,6,0,-3,1
8370,4,-4,3,24,17,6,-2,-20
8375,-8,46,6,-42,0,2,2,14
8380,1,-19,-2,6,-37,-14,-8,-13
8385,-4,-10,1,37,12,2,2,3
8390,-9,10,7,24,5,5,5,13
8395,8,-5,-6,78,15,3,0,-11
8400,19,15,-2,15,2,2,0,-1
8405,-26,-37,-15,-82,-5,-5,-1,1
8410,-19,11,11,44,-27,-8,-6,-1
8415,16,-18,-10,-53,-3,0,2,-2
8420,7,31,17,26,5,3,0,3
8425,7,-30,-17,16,-9,-3,-3,-6
8430,22,13,-1,-9,10,5,0,-5
8435,-29,-10,-2,-77,13,-1,0,14
8440,15,-11,6,28,-19,-4,0,-14
8445,62,86,18,-6,25,6,2,16
8450,-62,-46,4,-5,-15,-1,3,4
8455,50,-11,-10,51,11,-4,-7,-13
8460,-3,-27,3,10,11,0,-1,1
8465,11,0,3,-12,-15,0,3,2
8470,-33,-4,2,-85,3,2,2,-2
8475,48,5,6,-1,-2,1,2,-6
8480,-66,-13,-2,-21,13,0,1,11
8485,16,1,12,43,-2,0,0,3
8490,-15,8,-18,24,2,-10,-7,-1
8495,-51,-23,-21,-80,-29,-6,-6,-16
8500,52,24,8,2,-9,1,0,15
8505,-3,0,8,46,36,5,-2,-8
8510,4,-6,-3,-73,-26,-8,-7,2
8515,24,-3,-11,37,1,0,0,5
8520,34,19,5,-9,-12,0,3,-1
8525,-15,-3,-19,-20,-12,-5,-4,-7
8530,-30,2,19,-10,-1,3,0,-2
8535,32,36,18,99,18,-2,0,19
8540,10,-14,-21,-24,-18,-7,-4,-3
8545,-79,-8,8,-30,-18,3,3,-2
8550,6,-4,-26,69,9,-3,-5,-4
8555,2,11,0,17,7,8,2,-13
8560,-17,-10,5,-1,9,-6,-6,10
8565,7,26,-5,-37,-2,0,-2,5
8570,0,24,8,15,0,2,4,0
8575,-9,-22,6,8,1,3,-2,-5
8580,-78,-26,-28,3,-12,-6,-5,-18
8585,1,28,7,-30,1,3,1,-6
8590,57,-20,-12,-63,0,-5,-2,9
8595,-41,-17,3,54,12,0,-2,-13
8600,6,33,1,-28,1,3,2,-4
8605,36,-8,-5,50,-5,-4,0,5
8610,4,-6,-5,37,8,1,-2,-4
8615,2,1,-3,-110,-32,-3,-1,3
8620,-61,-25,-2,65,19,-2,-4,-14
8625,-28,-27,1,48,-9,-2,1,1
8630,11,7,3,-36,-3,-4,-2,9
8635,18,6,-7,-49,-7,0,1,-6
8640,13,-8,6,-2,-4,1,0,1
8645,-59,-6,-6,16,13,-3,-5,-16
8650,-32,-9,-2,-9,0,0,1,-2
8655,26,22,10,34,12,2,1,8
8660,-21,12,9,75,3,1,2,-7
8665,30,-8,-3,-83,-9,-5,-2,-6
8670,-1,-9,-12,-4,11,5,1,-6
8675,-37,11,14,54,-24,-7,-5,2
8680,86,18,-24,-64,2,-3,-4,0
8685,-30,-23,-14,4,-9,-3,2,2
8690,7,-17,12,1,6,2,1,-9
8695,19,21,-14,10,-13,-3,0,25
8700,-1,-7,6,3,11,4,1,0
8705,18,1,-6,-94,-7,-2,-2,2
8710,19,14,12,53,-5,0,0,-5
8715,-53,-22,-7,-38,1,-10,-7,-10
8720,-5,-10,7,-35,-15,3,0,1
8725,25,1,3,3,4,5,5,8
8730,-43,-4,-9,12,16,0,-3,-7
8735,53,6,14,30,10,6,2,6
8740,3,27,-5,-15,13,-5,-6,-9
8745,-13,-31,12,15,-9,-6,-7,-7
8750,14,-6,-10,-23,-12,-2,0,5
8755,-1,-16,-15,-26,-7,-3,-3,-6
8760,19,-1,-1,30,19,4,2,2
8765,-25,-13,-2,0,-7,4,-1,-10
8770,20,15,14,-11,-23,1,3,13
8775,-44,-13,-17,38,12,-10,-11,-17
8780,17,6,4,12,-2,2,1,8
8785,17,-18,-13,-51,-27,-2,2,-8
8790,7,15,2,-18,17,-2,-4,19
8795,-26,8,6,-60,-10,1,1,-3
8800,-14,-6,14,28,4,0,-2,-4
8805,17,27,5,47,15,2,0,8
8810,-13,-30,-33,-80,-18,-10,-10,-10
8815,29,-5,9,46,18,9,4,-2
8820,-6,-4,-1,-55,-34,-10,-1,4
8825,-14,9,-5,15,6,-1,-2,-3
8830,11,0,9,34,6,2,3,2
8835,5,-4,8,9,4,0,-1,-24
8840,23,18,-7,-13,14,1,0,37
8845,-7,-5,8,-32,-20,-3,1,1
8850,11,4,-6,70,-1,-3,-2,-5
8855,3,-5,-4,-37,0,-2,-3,-5
8860,5,-11,-6,18,-13,-3,3,-6
8865,10,4,-2,5,8,1,-2,6
8870,21,30,12,43,16,8,2,-1
8875,14,-40,2,15,-36,-12,-7,9
8880,14,13,0,-34,6,0,-1,-4
8885,-4,-2,11,46,3,-4,-3,0
8890,13,-17,0,6,0,3,3,-1
8895,-20,3,-25,-23,0,1,2,-6
8900,-10,-7,-2,-47,-9,-4,-5,11
8905,-18,34,3,68,-3,-3,-4,-6
8910,3,9,1,-45,6,7,3,-3
8915,47,-46,-7,-32,3,-1,-1,2
8920,-59,10,-8,12,-19,-4,-5,-7
8925,12,-7,1,-36,13,0,0,2
8930,-15,6,-5,13,-19,-7,-3,4
8935,-18,-26,6,-4,6,2,0,-9
8940,12,-14,1,43,7,2,2,-7
8945,-21,-16,-13,16,11,3,0,-9
8950,-40,0,13,-41,-19,-7,-2,22
8955,13,10,-13,28,-3,-3,-3,-2
8960,24,-23,-1,14,23,-2,-3,-11
8965,0,4,-3,-30,-25,-7,-2,10
8970,-10,6,-10,24,24,2,-3,-12
8975,-2,24,13,8,-14,3,5,10
8980,2,-12,4,0,9,3,3,0
8985,-19,-24,-8,-4,-1,-1,-2,-7
8990,9,-12,-3,3,-12,-4,-3,-11
8995,41,-6,6,28,22,4,1,9
9000,-51,20,-17,-29,-19,-9,-6,-16
9005,-7,-40,-5,-1,-6,-3,0,2
9010,22,-10,3,7,13,6,2,-12
9015,32,9,7,37,-4,-2,0,6
9020,-10,-4,-16,8,9,-1,-6,-10
9025,33,18,7,-26,6,1,-3,-10
9030,-44,-22,-13,30,-5,-7,-5,6
9035,8,20,0,-100,-3,0,0,-7
9040,11,3,10,52,9,7,4,6
9045,12,6,-8,28,10,-1,-2,-4
9050,27,15,9,10,2,1,1,-1
9055,6,12,4,12,7,1,3,7
9060,-5,3,12,-12,-10,-5,-3,-5
9065,-45,0,-11,-34,-2,-1,0,6
9070,12,-1,9,-15,7,7,4,1
9075,11,6,-10,-6,-5,0,0,7
9080,-50,4,16,20,-3,-5,-7,-11
9085,33,15,-2,3,0,5,5,6
9090,6,19,4,27,8,-2,-3,5
9095,-8,-9,9,18,-3,-6,-4,-16
9100,-34,-36,-17,-15,6,3,3,6
9105,-33,-11,10,-20,-7,0,-1,10
9110,27,31,10,57,3,-4,-2,-6
9115,-49,1,-15,28,10,1,-6,-7
9120,43,-16,-9,-77,-15,-2,1,8
9125,-10,20,9,52,0,-2,-1,-6
9130,-3,-11,-2,-22,-5,-1,2,-3
9135,-25,7,-2,29,7,1,-1,4
9140,28,3,1,14,-11,-6,-1,-2
9145,18,-9,-15,-15,-8,-3,-6,-14
9150,-10,0,10,56,-7,0,-4,-3
9155,-4,4,1,-17,8,2,4,1
9160,1,-1,-5,3,22,11,7,3
9165,13,32,7,-2,5,-10,-5,-18
9170,-21,-15,-3,-67,-9,-3,-3,17
9175,0,6,-8,-7,-22,-3,-1,-3
9180,-3,4,4,23,11,-1,0,-6
9185,39,-1,8,31,10,4,2,8
9190,27,8,0,-67,-11,0,-1,-3
9195,-49,-45,7,-9,4,-4,-3,-6
9200,15,-9,-7,-33,-3,4,4,5
9205,11,7,-4,87,-5,-1,-3,-1
9210,-19,-1,-3,-36,4,-5,-1,7
9215,6,-3,4,19,6,1,1,-4
9220,41,16,7,-12,-5,1,0,4
9225,-95,-6,-3,40,17,4,0,-2
9230,56,-3,-6,4,-26,-5,-3,-7
9235,33,23,10,41,10,2,1,-4
9240,-12,3,11,57,13,-1,-1,22
9245,19,-22,-14,-28,-13,1,3,1
9250,-41,-3,-7,-21,-3,-4,-6,-5
9255,-5,7,-9,9,12,-6,-4,0
9260,0,0,6,25,7,3,3,-5
9265,-25,16,-7,-112,-12,-2,-2,-8
9270,-17,-1,2,35,10,2,1,1
9275,9,-7,-8,-29,-18,-2,-1,-3
9280,6,9,-10,-40,-11,-2,-1,-3
9285,18,-15,10,8,-15,-8,-3,4
9290,26,14,0,17,-1,0,2,-8
9295,-11,8,5,2,7,4,0,9
9300,24,-8,-8,4,-2,-2,-4,-10
9305,7,-8,-12,-16,-8,-8,-4,0
9310,-11,-9,3,-9,4,0,-3,-19
9315,5,4,1,63,-19,-2,-1,17
9320,-27,-39,-15,-76,-1,-5,-5,-12
9325,30,9,3,20,14,8,6,13
9330,29,18,12,87,17,-1,1,-4
9335,-37,-23,-2,24,28,6,-1,-11
9340,-48,22,2,-39,-57,-15,-7,-9
9345,55,7,8,40,17,0,-2,0
9350,-5,-8,-12,-52,-4,4,3,3
9355,12,17,-6,-42,-4,0,0,1
9360,-41,-25,-1,19,13,2,1,-1
9365,13,60,17,30,3,5,2,1
9370,-1,-45,-12,-71,-35,-4,-1,1
9375,12,-3,10,79,15,-9,-7,10
9380,-21,-6,-5,5,3,4,-1,-5
9385,-9,-11,-2,-16,-2,0,0,-1
9390,-8,17,4,0,7,2,1,-2
9395,-15,1,-18,-68,-11,-3,2,18
9400,42,2,7,1,12,1,0,2
9405,-20,-15,5,47,9,-1,0,0
9410,25,-2,-9,-32,-4,-5,-3,3
9415,-19,1,6,-11,1,-2,-2,-11
9420,39,28,-15,-47,-4,-4,-4,6
9425,26,-20,-2,23,13,5,0,-4
9430,-30,-8,-3,-2,1,-1,0,-2
9435,-21,17,-4,-5,-8,-4,-4,-10
9440,15,8,12,12,5,2,-1,18
9445,-31,-14,-11,-15,-9,-7,-3,-3
9450,0,-2,13,-16,-1,0,1,4
9455,5,-19,-21,4,0,-1,-1,-12
9460,18,-25,-4,34,-7,-6,-1,-8
9465,-7,6,-3,-16,0,2,-1,0
9470,9,-2,5,29,0,-4,-3,5
9475,4,8,8,10,9,1,1,-1
9480,-8,2,-4,10,-13,-4,-3,-7
9485,23,-2,-7,-10,5,2,1,3
9490,-11,6,5,30,20,8,4,1
9495,40,-2,0,-30,-21,-7,-5,-4
9500,-17,-2,7,68,14,4,2,-4
9505,-5,-10,-4,-51,-10,-1,0,1
9510,-8,12,-7,36,3,-1,-2,-9
9515,14,0,6,-11,-6,1,5,15
9520,26,31,11,20,13,2,3,-13
9525,-20,-11,-14,5,-9,-11,-9,15
9530,14,19,2,-9,7,0,-3,-5
9535,7,-7,-3,-20,-1,1,0,-1
9540,-5,3,8,57,0,1,1,-4
9545,-14,2,12,-90,-5,3,7,-1
9550,-11,-3,-31,16,3,-4,-4,-4
9555,36,8,7,4,-18,-3,-2,-1
9560,-7,-12,-9,13,5,-1,-2,1
9565,0,-7,7,33,8,-1,-3,-5
9570,-5,-3,4,-33,-19,-2,-3,0
9575,1,-8,0,42,25,3,1,-5
9580,-34,-7,-16,-62,-15,-4,-2,1
9585,30,6,1,-5,1,2,3,1
9590,-3,6,19,38,-2,-1,1,-14
9595,-23,-5,-4,20,5,0,0,24
9600,-19,-10,5,-36,-1,0,-1,0
9605,26,27,1,-1,-7,-4,-2,-8
9610,-33,-37,-13,7,7,-7,-6,10
9615,0,2,5,-49,-6,-1,-3,-15
9620,-31,-9,-5,6,3,3,5,2
9625,4,1,1,29,9,5,1,0
9630,7,4,5,20,0,-2,-3,-4
9635,14,7,-7,-12,2,-1,2,-3
9640,15,-13,5,23,0,2,-3,2
9645,-12,24,10,-10,-13,-6,-2,-1
9650,-12,-5,-19,-49,-8,-2,1,5
9655,-1,-4,13,48,-6,-4,-3,-3
9660,15,17,4,-6,6,5,3,-3
9665,-66,-20,4,46,6,-1,-3,10
9670,34,0,-4,-66,-7,0,2,-4
9675,-11,-34,-6,13,13,-2,-5,-3
9680,0,32,10,0,4,4,3,5
9685,-4,-23,-15,5,-10,0,0,-8
9690,-2,13,11,11,6,1,-2,0
9695,-14,2,-3,-23,-20,-2,1,-1
9700,-1,-26,-11,-55,-8,-7,-7,-8
9705,-5,13,2,9,10,0,-5,3
9710,-62,-14,-5,12,1,1,2,-3
9715,-7,42,-2,-6,-1,3,1,-3
9720,2,-7,8,1,4,1,0,4
9725,15,-9,-10,-9,-16,-6,-3,-4
9730,-18,-20,2,18,3,-1,-4,-1
9735,-16,27,10,-5,1,3,0,-26
9740,18,-45,-8,33,4,-1,0,28
9745,-17,-4,-10,-45,6,0,-2,-6
9750,8,10,6,35,-3,-5,-3,-10
9755,3,10,-1,-3,4,2,3,9
9760,-3,-6,-16,17,-5,-3,-3,-13
9765,56,-15,8,19,-13,-1,-1,12
9770,-61,-9,-7,16,6,1,1,-5
9775,17,9,8,25,5,-1,-2,-1
9780,-6,9,-6,-71,-8,-3,0,-3
9785,9,-15,8,47,-3,-2,-2,2
9790,-1,20,-8,-41,-11,1,0,0
9795,6,19,4,47,6,0,-1,2
9800,4,-17,0,-4,0,-3,-2,-9
9805,-31,48,3,-18,-7,0,-4,-8
9810,26,0,2,45,-1,0,0,11
9815,-7,-11,-5,-1,2,0,-1,0
9820,5,9,-2,44,-1,-2,-2,-10
9825,-6,-13,-4,26,9,3,3,-5
9830,-20,2,5,-15,-14,-1,1,5
9835,3,-21,-4,-37,-12,2,1,-9
9840,-7,1,-4,45,8,-9,-9,-11
9845,-5,-13,-4,23,1,-3,1,34
9850,9,-2,-1,14,5,-1,-2,-1
9855,5,-6,3,-24,-1,1,2,-8
9860,-10,15,-11,-3,6,3,3,25
9865,23,-10,6,-20,-14,-5,-2,-7
9870,7,3,-2,-6,2,-1,-2,-6
9875,-31,2,-3,32,1,-3,-2,1
9880,22,-32,16,45,10,3,1,-1
9885,-3,-1,-15,-16,9,0,-2,-10
9890,30,-1,5,-49,-2,2,2,4
9895,19,-30,-2,16,4,0,-2,2
9900,-30,17,-9,-68,-16,-5,-1,-4
9905,3,-1,9,51,11,4,1,-8
9910,12,-12,-10,-13,8,-2,-3,-6
9915,14,-11,-6,-51,-28,-2,2,6
9920,5,35,12,33,18,3,0,21
9925,-15,4,0,15,-20,-5,-2,-13
9930,32,14,2,14,20,3,5,12
9935,-18,-5,-23,-64,-13,-4,-5,-3
9940,-33,12,8,41,7,-5,-6,-15
9945,-18,-6,3,-69,-9,3,2,0
9950,-2,-21,6,57,10,2,1,3
9955,1,-3,-4,-48,-19,-11,-11,-9
9960,10,5,-5,11,-1,3,1,1
9965,5,-1,-1,-31,6,-2,0,-3
9970,10,-1,0,22,1,0,1,-6
9975,-25,-10,-4,20,10,0,0,-8
9980,10,-7,4,-18,-20,-1,0,17
9985,29,6,-10,18,10,-3,-5,6
9990,-47,8,-5,-34,-10,-2,-3,-3
9995,29,13,10,35,22,1,2,8
10000,8,-20,-3,-22,-13,-4,-2,-12
10005,-37,61,-12,-21,-1,0,2,-9
10010,31,-7,-8,0,2,1,1,17
10015,2,10,-3,-7,6,3,1,2
10020,6,-33,-9,51,11,-1,-2,-30
10025,6,-5,6,-83,-12,-4,1,22
10030,7,6,16,50,3,0,-5,-6
10035,-26,8,-9,25,5,1,0,1
10040,42,5,-9,-22,0,-2,-3,4
10045,-23,-31,-5,-2,-13,2,1,-20
10050,22,17,16,43,-1,-1,0,6
10055,-14,-33,-5,-71,0,-2,-3,4
10060,-25,18,-8,10,-16,-3,2,0
10065,-7,-31,7,47,14,-5,-9,-8
10070,36,15,15,-1,-6,1,1,-1
10075,2,3,-6,-3,9,3,1,-2
10080,-6,9,-11,-37,-15,-4,-3,-9
10085,7,8,-5,-13,12,5,2,24
10090,-12,-21,-4,-2,-8,-8,-3,6
10095,-13,-6,-4,81,15,-5,-2,-9
10100,-5,0,0,-57,-32,1,4,-6
10105,21,9,14,32,23,5,3,12
10110,-32,-13,-16,-36,-12,-1,-5,-11
10115,21,3,6,4,-6,-2,2,0
10120,-60,1,-6,-21,8,-2,-2,3
10125,-25,-14,-8,-4,-6,-4,-4,-12
10130,0,15,15,50,9,4,6,2
10135,-9,1,-22,-45,-17,-4,-6,-5
10140,31,-8,14,50,17,3,0,-11
10145,7,36,7,14,-9,-4,-1,22
10150,-38,-55,-19,-87,8,-4,-7,-12
10155,-31,-2,-8,-8,0,1,0,3
10160,-9,-12,3,-45,-12,-2,0,0
10165,-14,-5,1,51,16,5,1,-14
10170,-31,39,12,74,5,4,2,-1
10175,29,-22,-22,-92,-36,-14,-8,18
10180,-18,18,-1,10,16,4,-1,1
10185,14,-11,-2,3,-14,-2,-2,-11
10190,25,6,5,4,6,-1,2,3
10195,-19,-2,4,4,8,7,1,-30
10200,-6,2,-8,-42,-25,-7,-3,33
10205,44,1,-17,-25,2,-4,-5,-11
10210,-9,33,-2,-13,-23,-6,-3,-8
10215,20,4,27,70,18,5,2,1
10220,15,12,19,59,22,6,2,-4
10225,-30,-21,-19,-52,-3,1,2,-9
10230,47,-30,-13,-3,-1,-2,-2,8
10235,-55,15,12,20,4,-1,-3,-3
10240,3,7,12,-35,-6,-2,3,-1
10245,-1,-11,9,30,4,0,0,-2
10250,6,0,-23,-34,-7,-5,-5,-10
10255,9,2,15,65,10,2,3,6
10260,19,-46,-5,-7,11,-1,-1,-6
10265,-28,27,15,50,-1,2,1,15
10270,2,-10,-7,-82,1,4,0,2
10275,-1,-2,-31,-45,-17,-13,-9,-19
10280,-4,14,6,-12,5,5,4,34
10285,19,-10,1,-19,3,5,4,4
10290,4,16,11,69,5,-2,0,-4
10295,16,-5,-1,-10,-2,1,1,4
10300,-26,37,4,22,1,-4,-4,-19
10305,43,-17,4,18,2,-1,0,-9
10310,13,5,-7,-58,-17,-1,1,36
10315,-65,-30,-7,-27,-3,-1,0,-1
10320,-6,21,0,49,0,1,1,-10
10325,8,7,12,83,22,4,-2,0
10330,-12,-25,-18,-85,-29,-7,-4,-14
10335,27,6,13,29,13,-1,1,6
10340,-3,-4,8,16,-6,2,1,3
10345,-23,-10,-7,11,-8,-8,-5,11
10350,-7,6,-5,-8,-2,4,4,-4
10355,28,3,-1,19,11,4,0,9
10360,-28,-57,-10,-22,-7,-1,-4,-32
10365,18,32,0,-32,-17,-4,-1,13
10370,-3,3,11,20,11,4,3,6
10375,0,-3,2,19,10,1,0,0
10380,4,5,-9,-12,-21,-6,-3,-6
10385,20,8,-9,-52,8,0,-1,-8
10390,-35,-4,5,22,0,0,1,-7
10395,35,14,3,2,0,7,4,3
10400,12,-8,-14,-10,0,-5,-4,3
10405,-9,-16,-1,22,-9,-1,-1,-6
10410,-24,9,-13,-21,7,-4,-7,-32
10415,29,2,-1,19,-3,-4,-1,42
10420,27,55,6,6,1,1,-2,-8
10425,-7,-23,6,-37,14,7,7,17
10430,-6,-7,-14,14,-29,-16,-11,-15
10435,4,4,10,8,10,2,1,-5
10440,-37,4,-1,3,6,5,3,1
10445,30,-5,-8,1,4,-1,-2,-4
10450,-7,11,10,-20,9,7,6,7
10455,-19,4,-2,-99,-23,-4,-2,-6
10460,19,-7,5,37,11,1,0,8
10465,-8,1,-9,-10,-10,-4,-3,-7
10470,10,-9,3,46,8,1,-1,4
10475,-16,-8,2,70,3,-7,-5,-18
10480,4,-13,-2,-33,17,4,-3,4
10485,-20,3,-3,-48,-16,-3,-3,-12
10490,4,-5,13,39,13,4,1,-4
10495,-14,-23,-36,-50,-17,-4,-1,-7
10500,26,20,14,51,23,1,1,-1
10505,-45,-12,-6,-26,-33,-11,-8,-9
10510,22,34,6,8,0,-5,-5,1
10515,6,13,9,23,12,3,3,-3
10520,19,-15,-21,-21,-8,-4,-4,-13
10525,-1,9,10,-23,8,5,7,29
10530,-35,-2,1,-3,-18,-5,-6,-3
10535,6,-2,6,-19,-15,-6,-4,-7
10540,-1,-7,-10,-4,4,2,0,10
10545,-16,-5,2,16,-7,0,4,-11
10550,7,2,-15,25,16,2,-1,-12
10555,20,-22,5,-24,-2,-4,-1,0
10560,2,40,-10,6,-22,-4,-3,11
10565,-47,-8,-5,-59,10,-3,-3,-14
10570,-7,-21,13,53,26,7,4,2
10575,-6,16,-13,61,-20,-6,-3,-5
10580,26,-32,5,1,-5,0,-1,1
10585,-28,-12,11,66,-5,-4,-5,-3
10590,26,21,-5,63,10,-2,1,9
10595,2,-5,7,-85,12,8,2,-1
10600,-7,-7,-12,5,-22,-4,0,0
10605,32,-6,-6,22,18,5,0,-2
10610,-33,-12,5,-50,-35,-10,-5,-9
10615,-44,35,11,42,5,3,1,13
10620,7,-7,6,-31,-7,-5,-4,-16
10625,-3,-4,-25,17,6,0,0,-10
10630,54,-1,-6,-21,-5,1,-1,16
10635,-52,22,-1,-87,-1,0,2,-7
10640,-13,-31,5,33,3,-2,-1,-6
10645,34,10,20,33,10,4,1,3
10650,-7,3,-9,15,16,4,0,2
10655,32,-13,-13,-46,-18,0,-2,-5
10660,-17,19,16,45,-2,-4,0,9
10665,-5,-18,3,7,17,-1,-3,-14
10670,-8,-19,2,-5,6,4,1,-14
10675,11,0,-2,23,-10,-3,-1,13
10680,-29,-8,-4,-24,-2,0,-3,-12
10685,-3,14,-13,17,-13,-6,0,21
10690,28,-31,1,-24,4,-2,-1,-15
10695,-3,51,17,83,2,-2,3,17
10700,9,-26,2,16,4,0,1,7
10705,4,15,4,11,-1,1,-3,-9
10710,0,-13,3,-19,-11,-3,-1,0
10715,10,-24,-10,-16,11,-1,-1,2
10720,0,10,-7,20,12,3,0,-7
10725,40,-21,6,-48,-11,1,2,23
10730,-74,24,2,4,2,-5,-2,-2
10735,-26,-27,-15,7,-14,-4,-9,-16
10740,2,11,-2,-109,-5,0,0,2
10745,1,-6,10,98,3,-3,-3,-17
10750,0,-9,-21,-87,-5,0,0,17
10755,17,14,11,80,-29,-10,-4,-3
10760,24,-19,5,29,20,6,5,1
10765,-84,-34,-12,9,1,-2,-7,-16
10770,69,29,-1,-48,-22,-3,1,7
10775,-39,13,-6,-53,6,1,-2,3
10780,12,-4,-15,-24,-3,-3,-3,-13
10785,-2,16,16,16,-4,-1,-1,14
10790,27,-5,-1,24,7,2,-1,-7
10795,-59,-40,-13,-14,-3,3,2,-10
10800,-10,12,9,11,-2,2,2,9
10805,10,11,-12,-32,-1,-1,-2,-4
10810,-24,-17,-2,-23,7,1,0,-4
10815,39,-4,6,52,7,0,2,4
10820,19,10,4,18,8,-2,-2,10
10825,10,12,-1,33,-12,-4,-3,-6
10830,14,-32,6,30,-4,1,0,7
10835,33,-1,-3,-6,9,4,4,-19
10840,-38,-36,-3,73,-3,-2,0,27
10845,88,20,-15,-106,-8,-6,-4,4
10850,-13,15,-1,97,5,-1,-4,-2
10855,1,-14,-3,-1,19,0,-2,-4
10860,25,10,11,36,-7,-4,-5,-12
10865,11,-9,0,19,7,3,3,-5
10870,-34,28,6,2,9,4,5,2
10875,76,-12,-12,16,-35,-9,-5,13
10880,-61,15,-9,-43,-13,-3,-3,-10
10885,-26,2,14,10,6,0,-3,-26
10890,18,31,-1,-35,7,2,3,33
10895,2,-38,11,19,12,1,0,-5
10900,1,15,-2,-20,-12,0,0,0
10905,14,-18,4,-3,-14,-3,1,2
10910,-28,5,3,-6,12,-6,-8,-12
10915,-25,4,-5,-30,-10,0,1,-1
10920,-3,4,10,45,21,3,2,5
10925,-12,-22,-12,22,6,3,3,-3
10930,24,-11,-9,-17,-2,-6,-4,16
10935,-29,-2,-9,-19,-5,-4,-6,-5
10940,23,-13,-1,-72,4,3,1,-4
10945,-29,1,17,61,27,9,5,-1
10950,13,9,13,75,-19,-4,-2,-10
10955,-20,-24,-4,15,-2,-3,-2,-3
10960,14,-10,5,6,5,1,3,1
10965,-8,-12,-22,-64,-8,-1,-1,3
10970,24,9,-2,-51,-6,-3,-4,-8
10975,-32,-9,2,66,37,6,-2,-3
10980,-28,9,-1,-39,-44,-11,-5,-14
10985,24,21,0,-12,15,4,1,9
10990,-31,-38,2,38,13,3,2,-3
10995,68,47,7,-22,-2,-5,-6,-17
11000,-57,4,-1,73,11,-1,-1,23
11005,9,24,-21,-106,-35,-9,-4,1
11010,-38,-17,-5,-7,-13,3,2,-4
11015,18,-2,16,93,32,-3,-1,-1
11020,46,-6,-10,-61,-17,-3,-5,-10
11025,-36,7,3,-4,0,-1,-4,-1
11030,-16,34,-12,-27,-7,-3,-4,-8
11035,11,-3,-1,-81,-17,-5,-2,7
11040,-6,10,8,42,23,0,-3,-10
11045,4,-24,-3,-29,-20,2,2,2
11050,6,-10,-7,-36,4,5,5,0
11055,-1,-12,17,63,-23,-11,-5,-5
11060,-13,3,-10,-13,-6,-4,-3,-14
11065,3,18,-3,-16,0,-3,-3,7
11070,-4,-47,-1,55,9,3,1,-2
11075,5,24,7,-8,19,9,4,3
11080,-3,-20,-6,-55,-16,-8,-2,1
11085,13,19,7,66,10,-4,-3,1
11090,1,6,-1,-26,-31,-5,0,-1
11095,-13,-14,-10,-2,3,0,-3,-9
11100,25,-5,-2,37,10,4,1,-1
11105,-29,-25,4,15,-10,-2,-6,-8
11110,-55,-20,-9,-34,-6,-6,-7,-13
11115,18,21,5,-8,2,7,10,41
11120,18,3,3,50,15,4,2,2
11125,41,-1,-9,-64,-17,-1,3,8
11130,-45,27,21,120,36,0,-4,-14
11135,31,5,-6,-108,-48,-4,-2,-6
11140,-4,33,-11,69,27,-3,-7,-4
11145,-36,-8,5,-48,-1,-2,1,3
11150,36,14,10,69,11,5,2,2
11155,4,11,-13,-34,2,2,3,2
11160,-43,-14,0,-40,-18,-2,-3,-2
11165,-40,9,15,70,1,2,2,-1
11170,17,-5,-6,9,5,-5,-5,-14
11175,-33,-12,-14,21,-11,0,-3,1
11180,-17,1,9,-31,16,7,5,13
11185,-10,-5,-1,-5,-38,-6,-2,-11
11190,22,-2,3,-40,4,3,2,18
11195,-4,-5,-3,21,8,-1,-2,-39
11200,-26,-8,2,41,4,4,7,2
11205,17,41,2,44,23,-7,-9,-23
11210,-17,-29,-7,-37,-25,-4,-1,15
11215,3,-8,-3,-37,12,4,3,-3
11220,21,7,0,-22,-15,-2,0,3
11225,11,-11,-1,-53,-2,3,1,-9
11230,8,-14,-12,-17,-3,-10,-6,13
11235,16,14,1,9,9,-5,-3,2
11240,34,-1,-11,-36,-2,2,0,5
11245,-5,-9,4,25,13,4,1,3
11250,33,15,1,-44,-4,5,5,-5
11255,3,-14,-1,2,6,1,-1,-3
11260,43,24,11,71,-1,-7,-6,-7
11265,-27,-32,-8,-23,8,0,-2,-7
11270,31,6,-3,-16,3,5,4,8
11275,-37,8,10,1,1,4,1,-20
11280,-10,-45,-22,-58,-28,-9,-3,7
11285,68,33,2,83,17,4,3,20
11290,-38,5,-2,-11,0,-3,0,1
11295,-1,7,0,22,-17,-8,-10,-19
11300,8,-14,3,0,5,3,4,14
11305,-33,16,-7,0,-6,4,4,4
11310,-10,1,-7,-21,2,3,-1,-7
11315,-3,-20,7,64,12,-3,-2,11
11320,-1,17,-4,-25,-5,-2,-2,-8
11325,8,-5,6,-11,4,3,2,1
11330,17,-1,10,80,11,1,0,-3
11335,-40,10,-19,-68,-7,-3,-5,-8
11340,8,-24,4,-54,-31,-7,-6,-10
11345,11,-5,6,-22,4,-2,-4,-2
11350,-33,1,-14,-21,2,0,-1,-6
11355,12,8,7,33,-8,1,2,13
11360,-3,10,-3,30,21,3,4,-3
11365,-1,-6,0,14,-3,-4,-4,-1
11370,16,1,6,-15,-6,-3,-3,-11
11375,-2,2,1,-24,-1,3,4,25
11380,5,20,1,-26,7,2,2,-2
11385,-66,-70,-4,34,-12,-9,-5,-5
11390,17,-3,-2,-37,-1,-1,0,1
11395,23,-6,5,-1,5,6,5,-11
11400,-23,6,-8,29,-1,0,-2,8
11405,37,21,9,-7,10,0,3,18
11410,25,35,1,31,-13,-3,-4,-1
11415,-7,-66,-6,-2,0,2,0,-7
11420,6,-6,-5,57,-1,-4,-3,-21
11425,-35,25,0,28,2,-4,-3,11
11430,17,-21,2,-19,3,2,1,-3
11435,-7,17,-3,-14,-5,0,3,15
11440,-63,-6,4,39,6,2,-4,-12
11445,28,31,-2,-73,-2,-7,-4,-11
11450,-1,-48,-2,52,8,0,-2,3
11455,-8,24,8,-30,-28,-3,0,-2
11460,9,0,15,8,5,1,0,4
11465,-3,-29,-25,-68,-17,-3,-2,-10
11470,0,26,11,66,15,2,2,9
11475,10,-2,-11,-77,3,11,7,7
11480,37,-2,3,65,-17,-19,-12,-17
11485,13,6,2,30,-2,6,2,-5
11490,-17,2,6,-36,-11,-1,-1,6
11495,-26,-11,-17,18,17,1,-1,57
11500,60,7,8,-44,-8,5,5,22
11505,-63,-20,-15,16,6,-4,-4,-28
11510,-31,2,-3,-23,-10,-5,-1,-5
11515,13,5,3,19,0,-3,-2,-9
11520,-21,4,-7,-72,-4,4,0,-6
11525,-13,3,5,33,18,1,-2,2
11530,-13,-39,-11,-53,-45,-11,-4,-5
11535,16,4,8,19,15,4,2,-3
11540,-12,12,0,35,6,-3,-2,-7
11545,26,-3,-1,-18,-9,0,-2,-22
11550,-17,-15,-17,-36,6,1,1,29
11555,-2,18,-2,36,6,-4,-1,-12
11560,21,-15,-5,-35,0,11,5,2
11565,17,9,4,-32,-16,0,5,11
11570,13,3,6,92,27,-4,-6,-14
11575,-12,-13,-6,-99,-33,-10,-5,-14
11580,-1,-7,-10,56,36,12,8,9
11585,3,3,10,-25,-13,-4,-1,32
11590,-31,-20,-10,18,-18,-8,-4,-15
11595,11,6,-3,-8,15,2,-1,-19
11600,-21,-1,3,-1,-3,0,-1,7
11605,14,4,11,77,11,7,8,-12
11610,-1,7,-9,-25,-8,1,1,11
11615,-11,11,6,-5,1,-2,-6,0
11620,-10,6,-9,-21,-17,-9,-6,-12
11625,-9,9,1,5,6,1,-2,9
11630,24,15,10,12,9,3,0,-10
11635,39,0,2,27,-6,-4,-1,4
11640,9,11,4,-77,-10,2,2,6
11645,16,-14,-11,46,21,2,-3,-10
11650,-1,14,-4,59,-5,-1,2,-1
11655,0,5,4,53,-14,-8,-6,-3
11660,-1,4,5,38,11,-3,-2,-7
11665,-14,-41,-1,-17,-18,2,-1,9
11670,52,20,1,-5,11,5,2,1
11675,-67,0,-8,-37,-13,-4,-1,-13
11680,-3,-5,3,-6,6,2,4,4
11685,11,15,16,22,-9,-5,-2,-5
11690,-38,-1,-10,-50,-9,-3,-4,-6
11695,0,-12,-3,45,18,12,7,-2
11700,12,-6,-5,-43,-13,-4,-2,31
11705,10,3,-14,11,-2,-2,-2,-5
11710,37,12,18,-9,5,3,3,4
11715,-4,-4,-1,65,16,0,-1,-4
11720,-51,-8,-20,-77,-20,-12,-12,-21
11725,21,-1,4,64,10,1,0,8
11730,1,-5,-2,-40,-2,-2,-2,-6
11735,-8,5,-4,-6,8,3,0,8
11740,50,-3,5,26,4,4,1,1
11745,-9,9,11,-28,-7,1,0,-3
11750,-1,-4,-11,-33,-3,-10,-9,-29
11755,-16,13,2,-28,-24,-4,0,17
11760,0,-30,-7,2,3,4,2,-4
11765,-7,4,-8,37,11,4,0,-4
11770,14,5,10,20,9,2,0,-14
11775,23,21,5,-9,-11,-2,0,5
11780,46,14,2,30,2,0,-1,-5
11785,-7,-9,-9,-113,-1,-6,0,0
11790,-23,-9,2,15,8,-3,-3,5
11795,38,17,-9,34,-3,-3,-4,-25
11800,-47,-27,6,24,2,-1,-1,37
11805,-58,-5,1,6,3,-1,0,-13
11810,15,2,-1,-10,-3,1,1,7
11815,-1,-29,-10,-2,11,1,0,6
11820,-19,12,5,3,11,4,-1,-26
11825,49,34,8,-15,-43,-11,-6,-3
11830,-19,-12,-22,56,5,-3,-2,12
11835,-8,-20,8,-51,-9,-6,-3,-9
11840,4,6,-1,25,11,2,0,-4
11845,1,8,1,-8,1,3,2,1
11850,0,3,7,21,4,5,1,3
11855,11,3,6,-1,18,4,1,5
11860,-4,4,-5,-18,-19,-6,-2,-9
11865,34,-30,-10,32,7,-9,-8,-9
11870,-46,-7,-12,-71,-18,1,3,1
11875,44,-50,-7,8,5,-6,-3,-1
11880,-10,95,15,-6,4,1,1,-6
11885,-4,-56,-3,4,5,6,2,8
11890,-1,-1,-2,5,9,2,1,3
11895,1,-6,7,8,1,1,-3,3
11900,8,-10,4,3,-21,-8,-3,-18
11905,-39,8,-13,-30,-3,-1,-2,22
11910,11,4,9,-10,4,1,-1,-9
11915,-23,-2,-1,26,10,-1,2,7
11920,11,-26,-4,-12,1,1,-2,-1
11925,-6,13,-1,4,-5,-2,-3,0
11930,7,-16,9,21,5,4,2,1
11935,-53,8,-5,26,-6,-11,-8,-23
11940,48,29,-4,-32,-2,-3,0,28
11945,40,9,0,3,2,-2,-3,-14
11950,-8,12,-7,-22,-10,-2,0,-2
11955,13,5,5,14,13,2,1,5
11960,-5,-13,-3,7,-1,2,1,-2
11965,-8,4,2,-4,5,3,2,2
11970,20,-2,11,17,3,2,1,7
11975,-5,6,-11,2,0,1,-2,0
11980,5,-24,-9,6,2,5,3,-2
11985,-58,-24,-1,-62,-55,-17,-8,-11
11990,-28,21,9,87,15,-5,-3,7
11995,-4,-14,-2,-19,-7,-2,-1,-3
12000,-16,-5,1,18,15,3,-1,-6
12005,3,-1,-12,7,10,7,5,0
12010,11,0,-5,-32,-10,-2,2,-1
12015,-5,7,12,-10,2,-1,-1,4
12020,-13,-21,-11,-3,0,-3,-3,-2
12025,21,20,7,5,9,4,0,-12
12030,-8,-22,2,-26,-1,-2,-3,1
12035,-53,21,-11,14,-7,-1,-1,0
12040,-21,-26,-5,-88,-26,-14,-8,-8
12045,3,3,3,53,15,1,1,-1
12050,-13,0,2,27,13,4,1,-4
12055,17,-1,6,-17,-2,6,5,8
12060,-5,-2,7,47,4,1,-1,-2
12065,5,2,-7,-22,1,0,0,4
12070,8,-1,-5,-37,-12,-2,-2,-3
12075,8,-5,5,14,-1,0,0,-3
12080,1,15,2,-6,-5,1,3,-4
12085,14,12,-9,-9,16,6,5,12
12090,2,-10,-12,40,-11,-11,-6,-17
12095,13,-3,0,-96,-23,-4,-4,7
12100,-13,-5,4,64,20,8,5,-3
12105,38,11,0,-9,-22,1,3,12
12110,11,-9,12,19,29,1,-2,-17
12115,42,-7,-8,41,-6,-7,-1,18
12120,6,25,8,-10,-10,0,4,28
12125,2,0,-2,31,25,0,-7,-10
12130,19,-22,-36,-124,-45,-3,1,-7
12135,12,-13,22,100,18,2,1,14
12140,-8,-51,-21,-24,2,-6,-6,-5
12145,-8,2,8,23,1,-2,1,1
12150,22,7,0,-5,4,-2,0,7
12155,-9,36,6,6,4,5,1,-8
12160,-7,-7,6,17,2,2,0,-12
12165,-9,4,6,-5,-21,-4,-1,5
12170,-17,-10,-11,-22,-1,-2,-3,0
12175,20,-3,-10,-24,-4,0,1,-8
12180,-4,13,4,42,4,-1,1,-2
12185,35,-18,-12,-47,4,-5,-7,-37
12190,-36,14,4,24,5,5,4,39
12195,44,7,-2,-19,7,2,3,-3
12200,-32,-1,-8,-16,-14,-7,-9,-31
12205,-9,-1,12,21,0,1,7,35
12210,2,-4,-8,-7,0,-7,-6,-10
12215,-8,-9,-1,16,-2,1,-1,-7
12220,-13,4,2,-50,-10,-1,-1,1
12225,11,-4,3,21,0,-3,-2,-5
12230,-15,14,-6,47,-19,-6,-3,-6
12235,-33,-50,4,2,16,3,-1,-1
12240,13,48,6,18,14,9,7,9
12245,0,-4,-8,-8,-28,-10,-3,-2
12250,15,5,-3,28,18,4,1,7
12255,-40,-15,2,67,-6,-7,-6,-17
12260,14,8,-7,-45,5,2,0,3
12265,-21,2,-1,-17,2,3,1,5
12270,29,-16,1,12,1,-2,-2,-12
12275,-4,29,-17,-59,-14,-5,-3,0
12280,19,-23,9,55,15,1,-1,4
12285,-50,13,-4,-21,10,5,2,13
12290,4,-30,4,41,-17,-4,-3,-2
12295,3,-11,8,-24,15,2,-1,5
12300,1,-14,-4,-11,-24,-5,2,-8
12305,-24,-24,-5,4,7,0,-3,-22
12310,50,13,11,-4,5,6,7,32
12315,-1,6,7,27,15,2,-1,-1
12320,15,-22,-2,18,-5,-6,-4,4
12325,-68,23,-2,22,14,4,0,-11
12330,55,13,11,-28,-16,-2,0,1
12335,-1,-8,-19,16,-2,0,2,-1
12340,12,-1,-6,-72,-7,1,-1,6
12345,39,-3,4,50,0,-2,-3,5
12350,4,46,9,1,14,2,1,-9
12355,-12,-7,3,-4,11,0,-3,-4
12360,-1,-19,-7,45,-14,-7,-4,-1
12365,14,-12,-3,-17,-4,-4,-4,-3
12370,-20,15,-3,3,7,5,2,1
12375,33,33,4,-82,-22,-1,-1,-4
12380,-11,-4,1,37,23,7,2,8
12385,4,4,4,38,14,0,0,-7
12390,-4,-18,-6,-68,-22,-10,-3,7
12395,-52,30,4,43,7,2,3,-8
12400,12,-33,-9,-36,3,0,-2,-7
12405,12,-3,2,36,7,-6,-4,-6
12410,-29,3,-21,-40,-7,1,-4,-14
12415,12,-17,-10,0,-3,-2,0,-11
12420,-45,-12,3,-13,-14,-6,-3,10
12425,18,-9,-17,-29,5,3,2,2
12430,-26,-14,14,33,10,3,1,-14
12435,30,-2,1,28,14,-1,-3,6
12440,12,20,-4,-44,-39,-10,-7,-8
12445,14,-15,-10,-91,-10,1,-3,0
12450,-10,16,26,71,28,4,2,6
12455,16,5,-9,2,-32,-5,-1,1
12460,8,10,1,65,15,2,1,1
12465,-40,-29,-2,-72,-5,4,4,2
12470,-1,24,-13,-52,-25,-6,-2,-7
12475,7,-26,10,41,16,3,3,17
12480,-5,1,-3,41,-1,-2,-2,-26
12485,2,12,1,23,-9,-4,0,30
12490,-36,-66,-6,13,19,5,-1,-11
12495,34,6,-5,-35,-20,-3,-1,18
12500,-38,11,-6,0,10,2,2,1
12505,16,13,10,20,13,5,2,-8
12510,-10,4,11,-4,-18,-5,-1,0
12515,-36,-16,-13,2,-11,-5,-6,-12
12520,51,3,2,7,8,2,-1,-19
12525,12,-15,-6,-12,-7,-5,-2,10
12530,-49,26,-3,0,13,-1,-2,4
12535,-17,-8,10,38,8,5,6,-2
12540,11,2,7,-32,-32,-11,-5,4
12545,-1,-6,-13,-7,2,1,-2,-18
12550,-30,8,1,34,15,4,-1,-14
12555,-19,-22,0,-61,-12,-2,0,3
12560,-14,4,-14,-7,3,-5,-4,-1
12565,2,31,8,31,5,0,-1,-1
12570,21,-32,-7,-35,-5,-2,-1,4
12575,-8,18,-2,-4,5,0,-3,-3
12580,-19,-19,5,24,17,5,1,4
12585,-22,31,2,-29,-14,-2,0,0
12590,9,2,-10,-24,-15,-4,1,2
12595,8,-11,6,15,10,1,-3,-22
12600,-16,-13,-1,-23,0,0,0,26
12605,31,-5,-9,7,2,0,-1,1
12610,-1,19,15,53,-7,-8,-5,-4
12615,4,5,1,-94,-10,1,0,1
12620,20,-7,-17,-25,3,5,2,-14
12625,-18,-7,6,43,10,1,1,27
12630,16,-9,-1,-20,0,-4,-3,2
12635,25,6,-15,50,7,0,0,-17
12640,-52,-52,1,-23,5,-5,-4,27
12645,-29,58,28,56,-15,-4,-3,-12
12650,17,-2,-17,-56,-5,-1,-1,-14
12655,7,5,2,1,6,3,-1,19
12660,19,35,6,73,26,10,5,-10
12665,10,-28,-16,-106,-31,-5,-2,-12
12670,-34,18,10,46,11,-2,-1,7
12675,-17,12,-4,-5,-13,-7,-5,-9
12680,27,37,-1,-57,-6,-2,-2,0
12685,-7,-18,4,9,10,1,0,-6
12690,33,-3,-7,51,2,-1,-1,-3
12695,34,-1,16,-25,-7,-2,-1,6
12700,28,22,11,31,9,3,1,1
12705,28,-19,-2,-12,-8,-5,-2,-9
12710,-25,-7,-4,4,5,7,8,18
12715,2,-5,1,-11,7,-1,1,26
12720,-18,3,-1,-10,-17,-1,1,9
12725,6,7,14,47,31,2,-3,-11
12730,13,-18,-13,2,-7,-1,-1,-3
12735,-4,-8,-7,-16,-8,1,1,-4
12740,-96,27,16,58,9,-2,-3,-30
12745,23,-11,-22,-48,-5,-4,-2,31
12750,25,-15,7,44,3,2,-1,-2
12755,-61,24,6,43,13,7,4,5
12760,11,-31,-10,0,-8,-3,-2,2
12765,-7,2,6,-3,4,4,3,-6
12770,-9,-16,-9,-58,-16,-6,-5,-6
12775,8,2,-6,5,1,-1,0,-4
12780,23,-6,0,3,5,0,0,-13
12785,14,21,8,53,6,2,1,24
12790,-19,-10,-7,-30,5,4,3,3
12795,41,-3,-2,-75,-40,-14,-5,-16
12800,-12,1,8,74,13,0,-1,-5
12805,6,-4,-15,12,3,1,-1,-12
12810,7,22,0,-47,-14,2,1,-1
12815,3,10,-2,28,7,-1,-1,3
12820,12,-1,8,-37,-17,-5,-1,0
12825,9,2,1,-24,-3,1,1,-5
12830,6,-4,3,51,0,-3,-3,3
12835,-20,-10,-4,-5,-2,2,0,-6
12840,31,-6,3,-22,4,0,0,9
12845,-22,-13,-13,14,-3,-3,-3,-10
12850,1,13,-4,-41,-6,-4,-2,-1
12855,28,3,-1,33,13,-1,0,4
12860,-18,-15,-4,-53,-9,-1,-1,-2
12865,41,24,4,0,-1,-1,-3,-12
12870,-6,-1,12,33,10,1,-2,27
12875,-21,-16,-22,-22,-5,-4,-1,-6
12880,5,-3,-5,12,-1,0,0,3
12885,-6,-10,14,-5,-3,-1,-2,-28
12890,47,-1,-12,-17,-7,-8,-5,17
12895,-16,-6,3,1,10,5,3,0
12900,6,-5,-9,-13,1,3,2,9
12905,-25,-5,-1,24,-2,-3,-1,-12
12910,-16,-5,11,6,12,3,1,-18
12915,-9,-5,-4,-14,-6,-3,-4,1
12920,2,8,2,15,4,-1,-2,-8
12925,1,-11,-5,-11,-3,-4,-1,7
12930,3,-3,3,-11,14,6,2,-5
12935,-16,5,-1,40,-20,-7,-1,4
12940,21,2,-13,-51,-43,-12,-7,-4
12945,-47,-3,8,69,14,7,3,5
12950,-1,-3,-11,6,-14,-3,-3,0
12955,-7,0,8,42,28,4,1,-8
12960,1,7,5,-15,11,5,2,-15
12965,3,-12,-3,-1,-29,-10,-5,25
12970,-12,0,-4,-8,10,3,3,-11
12975,6,-1,1,-16,-5,2,2,13
12980,-10,-7,-4,5,10,4,-1,-3
12985,46,16,0,-27,6,3,1,-13
12990,11,70,12,36,-3,-8,-7,-5
12995,9,5,4,-10,-2,-5,0,4
13000,9,6,1,-30,-2,-1,2,11
13005,-11,-8,-11,32,18,2,-2,-9
13010,-2,-3,-12,-25,7,8,4,-2
13015,-9,1,10,29,-22,-5,-6,-8
13020,16,3,9,39,1,-5,-7,1
13025,-7,-1,-1,-44,-7,0,6,5
13030,-12,-25,-2,53,10,2,0,-3
13035,-17,-7,0,5,6,-1,-4,-7
13040,-42,4,7,-16,27,10,6,2
13045,4,12,3,6,-53,-17,-7,3
13050,10,-23,-21,-8,-8,-3,-3,-5
13055,7,-3,-1,52,16,5,1,-2
13060,9,11,10,38,8,1,0,2
13065,-23,-7,5,1,12,5,3,-1
13070,-4,-3,-2,-53,-14,-2,1,1
13075,7,-2,-2,3,4,-3,-2,-2
13080,-29,-8,-4,19,-5,-3,-5,-3
13085,-1,-5,-2,8,10,5,1,2
13090,-1,-36,-9,-20,-15,-5,-7,-27
13095,2,-3,-3,-39,-2,0,3,41
13100,-5,-1,-7,4,-6,-2,-1,2
13105,22,-19,-10,0,9,1,1,-1
13110,-15,-2,2,14,11,1,-3,-2
13115,13,9,0,-29,-20,-3,-1,-11
13120,-17,-2,-3,-11,4,-1,1,5
13125,-6,17,4,58,-2,-1,-3,0
13130,-8,6,-5,-4,-2,-6,-3,-1
13135,34,-9,3,41,9,-1,-3,-10
13140,18,-4,-4,32,-3,-2,1,4
13145,5,29,12,18,32,9,2,-6
13150,14,-84,-12,-3,-21,-1,3,7
13155,-63,65,-10,-78,-12,-16,-12,-21
13160,25,0,-1,43,2,-3,-3,-4
13165,-7,-10,-6,-5,2,-5,-4,-12
13170,11,19,17,12,5,3,0,29
13175,-6,-5,-5,-35,-1,8,4,-3
13180,26,-20,-11,-18,-5,-1,0,-3
13185,-29,5,-3,-36,-3,-3,0,1
13190,-11,12,11,12,-1,-5,-4,-4
13195,-5,-20,-5,3,-8,-5,-3,-7
13200,17,39,7,7,9,3,2,3
13205,14,-10,0,-8,-1,3,4,-2
13210,-3,22,2,-32,-5,-2,0,-2
13215,7,-15,-6,40,3,0,-2,2
13220,6,0,3,26,9,6,3,-1
13225,9,-10,-4,-88,-13,-9,-6,5
13230,-16,0,-4,-8,15,3,-1,-8
13235,18,0,10,13,-5,-4,1,1
13240,-17,-7,-7,7,2,-2,-2,-3
13245,-6,-9,0,15,10,6,3,3
13250,-12,4,2,27,3,-3,-1,-1
13255,23,-17,0,-1,-3,7,5,0
13260,-48,3,7,-38,-9,-13,-6,-14
13265,-5,-20,-7,-16,-6,1,0,18
13270,-9,17,-1,-12,-1,1,1,-6
13275,2,-6,-5,-24,11,10,6,5
13280,-7,-8,-1,15,-9,-10,-6,5
13285,-9,-21,-7,11,-7,-8,-4,-10
13290,6,17,-3,-39,6,6,5,5
13295,-5,-7,-8,-5,22,5,2,1
13300,6,4,21,26,-21,-3,-3,-7
13305,-3,-43,-9,16,-8,-6,-5,-9
13310,-8,16,3,32,27,9,3,5
13315,-14,10,-6,-3,-20,-8,-2,-11
13320,13,-12,5,-5,14,3,1,2
13325,-9,14,-2,13,-3,1,-1,-2
13330,23,-4,-1,43,-3,-1,0,-2
13335,-6,-6,3,38,13,0,-2,-1
13340,-3,5,-13,-36,-24,-6,-4,-1
13345,-11,5,-4,11,-12,-4,-1,-3
13350,-4,-3,4,-17,7,1,-1,-15
13355,-2,-1,3,34,-2,3,-1,26
13360,11,8,12,21,5,3,4,2
13365,28,3,-21,-46,-5,-4,-3,-3
13370,-7,-11,5,26,-7,-6,-2,0
13375,-18,-1,1,-17,-11,-2,-2,-10
13380,8,-3,2,36,14,6,2,-1
13385,-4,12,15,4,0,4,0,8
13390,-4,-5,0,5,7,2,1,-1
13395,64,-8,-7,-34,-23,-8,-5,-13
13400,-79,-13,-33,-45,0,-4,-3,7
13405,-6,3,7,34,15,3,4,-2
13410,9,0,-6,-39,-12,-5,-3,2
13415,-5,2,6,35,13,6,3,-2
13420,24,-5,0,-55,2,4,3,-3
13425,16,-1,0,27,-13,-13,-10,-6
13430,-10,-3,-1,-10,-11,-6,-3,5
13435,-30,-10,6,5,18,7,3,0
13440,15,-4,0,6,-18,3,3,0
13445,-53,-20,-4,-38,7,2,0,-3
13450,70,0,10,77,7,4,2,-4
13455,-66,-1,-8,-36,-20,-13,-9,7
13460,20,-4,-7,14,1,-4,-1,-4
13465,-14,-2,-4,4,5,1,1,1
13470,6,1,8,41,3,-1,-2,1
13475,14,-13,-3,14,9,0,0,-5
13480,-42,9,11,39,9,5,1,-1
13485,22,14,-20,-95,-4,-6,-3,5
13490,-41,-15,-1,-21,-21,-6,0,-8
13495,32,9,10,16,7,5,2,-3
13500,31,18,1,-5,4,0,0,13
13505,17,-8,12,15,6,4,4,-4
13510,-59,0,-1,-48,-2,-8,-7,-2
13515,-21,-11,-23,-79,-18,-3,1,-3
13520,5,5,3,53,9,0,-1,-2
13525,2,11,-3,26,-1,2,-3,-5
13530,6,-20,-5,4,-12,-8,-3,0
13535,-1,14,13,43,0,-9,-5,0
13540,-6,-16,-13,-36,11,-2,-4,-25
13545,25,12,-2,-30,-14,1,0,35
13550,20,14,7,75,22,2,-1,-2
13555,3,4,-1,-57,-10,1,0,-5
13560,8,-12,-4,21,-15,-4,-3,1
13565,-21,-5,2,7,11,-2,-1,-10
13570,24,14,1,-14,10,10,7,8
13575,-7,-14,-5,-22,-35,-7,-3,-1
13580,-17,8,-16,-1,0,-5,-4,-5
13585,22,0,2,-20,-9,0,-2,-6
13590,-6,-12,-10,-16,-6,-4,-4,1
13595,48,9,17,55,25,6,2,0
13600,-26,13,11,-25,-3,1,1,2
13605,-2,9,2,66,-11,-1,2,-2
13610,17,-14,-9,-25,-21,-12,-5,-4
13615,-18,-9,-15,104,25,3,-1,-4
13620,49,10,-1,-12,-18,0,-2,-1
13625,-34,-9,13,57,16,5,1,-1
13630,0,3,-2,-67,-6,3,1,-14
13635,-26,13,-4,-38,1,0,-1,9
13640,-25,-38,-7,4,3,-1,-1,2
13645,-1,1,-7,-9,4,-2,-2,-5
13650,-2,0,-4,-12,-21,-4,0,-6
13655,34,34,11,14,9,-1,-1,-2
13660,-16,-48,-15,-54,-12,-5,-2,-1
13665,-6,-4,2,9,-2,-3,0,-5
13670,-6,7,1,50,7,-3,-4,4
13675,5,-3,6,-21,17,5,3,0
13680,14,11,3,-17,-17,-7,-4,1
13685,8,5,-11,-14,7,3,0,-3
13690,-21,-9,4,-9,0,6,3,5
13695,28,1,-2,-1,4,3,3,2
13700,-25,6,2,40,-33,-11,-1,-5
13705,-41,-14,0,-61,3,-9,-7,-7
13710,-10,10,-1,34,3,2,-2,5
13715,-6,-8,12,1,6,3,1,-2
13720,20,10,-7,-23,1,2,0,3
13725,-2,8,-5,-1,1,0,1,0
13730,-16,3,4,3,-7,-5,-5,-10
13735,-41,-37,-10,-22,-11,-4,-6,2
13740,21,7,11,35,27,5,3,4
13745,-22,-2,5,25,-1,2,2,2
13750,5,3,-10,-17,3,0,-2,-3
13755,-7,0,0,-10,-8,-1,-2,-5
13760,1,2,8,25,10,0,-2,1
13765,20,0,-7,-8,-5,0,-1,-16
13770,26,0,7,30,4,2,0,21
13775,-42,-2,-11,-66,-28,-10,-6,-8
13780,6,-5,7,15,10,2,1,5
13785,18,3,1,3,-6,1,1,-6
13790,-16,-5,-5,20,8,1,0,-4
13795,41,1,2,42,8,3,-1,-1
13800,10,0,-5,-40,-23,-2,1,0
13805,12,0,6,18,-23,-10,-6,1
13810,2,-7,-5,-7,14,-2,0,-2
13815,-42,6,-13,-6,-23,2,-1,1
13820,0,8,21,7,8,1,0,-4
13825,-22,7,-16,5,13,4,-1,-1
13830,-13,-25,12,84,-6,-2,0,0
13835,-18,12,-3,-79,5,-1,-1,-5
13840,-7,-8,-19,52,8,-3,-5,-6
13845,-2,-22,12,-23,-40,-9,0,5
13850,-12,17,-5,-64,4,2,0,-5
13855,-27,-2,30,93,20,0,-1,-12
13860,7,-10,-6,-38,4,1,-1,9
13865,13,4,-5,14,13,0,1,5
13870,0,5,3,-55,-13,0,0,-1
13875,35,-6,-7,29,-1,-2,1,-2
13880,3,7,-10,-35,-4,1,3,1
13885,-41,-3,-2,25,9,1,-2,-2
13890,8,4,-1,-13,1,2,0,-2
13895,7,3,11,3,3,-1,0,4
13900,13,-7,-13,17,-5,-1,-3,-3
13905,2,-4,-5,-6,2,1,3,3
13910,0,-4,-17,-26,4,3,1,-1
13915,-4,-10,-2,12,-20,-12,-7,-1
13920,5,4,9,10,9,2,-2,-2
13925,19,-1,7,51,15,2,0,-1
13930,-2,6,7,-13,-10,-2,-2,0
13935,23,-4,-9,7,6,1,2,2
13940,11,16,-1,-23,-8,-4,-4,-5
13945,-5,12,8,2,14,2,1,1
13950,-13,4,0,25,3,0,-2,-2
13955,21,1,-26,1,-5,0,2,-2
13960,7,3,24,35,10,0,1,15
13965,-26,-8,-2,35,0,-4,-7,-24
13970,-29,-1,21,-15,-14,-8,-1,26
13975,-5,6,19,13,12,3,-1,-5
13980,-12,4,-10,-15,-5,2,3,-2
13985,23,-2,3,-26,-2,0,0,6
13990,-1,7,-9,-12,-12,-4,-5,-11
13995,2,-2,-1,-13,2,2,5,7
14000,-11,-5,3,21,4,0,-1,-4
14005,7,-4,9,-39,-1,-5,-4,3
14010,-15,-9,-10,2,8,4,2,-8
14015,3,4,-4,-8,2,5,2,5
14020,5,2,-17,25,2,-3,-2,-7
14025,-27,-1,3,-24,-14,-10,-7,-1
14030,32,4,2,32,2,2,-1,-2
14035,19,-9,-3,-36,-23,-2,3,2
14040,-10,7,1,-77,1,3,3,2
14045,19,0,13,40,10,-2,-4,-1
14050,14,-6,-10,-34,-3,-7,-5,-15
14055,34,14,-3,-9,0,3,1,18
14060,-33,-15,11,-11,-2,0,-2,-10
14065,29,32,-2,-14,-12,0,2,12
14070,25,-15,11,2,20,2,4,-5
14075,-63,24,-13,-11,-20,-12,-12,-18
14080,27,-8,12,10,1,-2,0,9
14085,-31,-14,-19,73,26,10,4,16
14090,-2,15,16,-21,-25,-1,3,6
14095,49,19,4,-56,13,-1,-3,-15
14100,-23,6,-7,39,2,-7,-6,8
14105,33,17,11,-34,-26,4,4,1
14110,-24,-21,-27,-52,7,2,0,7
14115,23,-15,-10,50,16,3,3,1
14120,-6,-18,-18,-51,-7,-7,-7,-18
14125,33,8,-2,-15,8,2,3,-2
14130,-6,-11,8,17,5,1,1,4
14135,-2,-2,10,75,4,-2,-4,1
14140,23,-10,-2,-59,-17,-1,2,-1
14145,6,23,5,7,-1,-5,-6,-9
14150,60,-5,-11,-9,7,2,2,16
14155,-43,-1,-10,-34,-9,-3,-5,-15
14160,32,-4,10,46,5,5,3,7
14165,-51,-31,-12,6,3,-2,-2,22
14170,-5,27,-3,-40,-15,-5,-5,-9
14175,-3,-26,20,65,13,-3,-3,-2
14180,-61,-49,-13,50,0,-4,-5,-15
14185,64,-1,6,12,20,9,2,-3
14190,-21,15,-13,63,4,-1,0,0
14195,7,-20,7,26,-3,-4,-6,3
14200,1,-9,0,-16,8,-1,0,2
14205,-1,37,1,-16,-3,7,8,4
14210,-8,19,-4,11,-8,-9,-5,-6
14215,-29,6,5,7,19,11,4,-11
14220,39,29,-1,-32,-21,-7,-1,3
14225,-37,-26,-1,70,24,5,0,3
14230,14,-2,5,-3,-31,-7,-5,-5
14235,-60,1,-12,-83,-13,-5,1,-10
14240,17,37,8,19,11,7,-1,-2
14245,-26,5,-8,-22,-3,-8,-6,-25
14250,51,-18,16,38,7,8,5,-22
14255,-9,10,-4,4,1,-5,-1,83
14260,3,-9,-10,54,5,-1,1,-8
14265,-8,-6,-23,-70,-35,-7,0,-11
14270,-23,-20,7,-10,27,5,-2,2
14275,34,2,11,13,1,1,1,-20
14280,-11,-34,-19,-22,-6,-5,-4,17
14285,-6,-15,27,73,4,-1,-1,-4
14290,-34,1,-45,-34,-2,-3,-5,-19
14295,-44,-32,13,-30,-13,2,4,18
14300,-15,17,21,51,12,7,4,2
14305,35,-21,-17,8,2,-4,-2,1
14310,-55,37,18,-62,-25,-4,-2,9
14315,31,-9,-12,-20,-2,-3,1,9
14320,-16,-1,-1,38,7,1,-2,-17
14325,1,-8,0,-22,-9,-2,-3,0
14330,16,-1,7,42,19,7,2,4
14335,14,-18,-6,-8,2,0,-3,-26
14340,-75,20,-10,-73,-43,-9,-4,-5
14345,28,3,5,-4,-2,-4,0,21
14350,-2,-25,-3,-1,0,3,1,0
14355,66,1,-11,-33,-4,3,2,3
14360,-27,-2,1,24,18,7,2,-1
14365,-4,3,7,3,-10,-2,-2,-11
14370,-12,6,27,-40,1,-7,-3,-1
14375,0,5,-42,39,-15,-8,-5,-2
14380,22,8,9,-7,9,6,3,-7
14385,-7,-6,-10,-20,0,0,-2,-5
14390,26,6,2,46,-6,-2,-2,6
14395,-40,-21,10,41,15,3,-3,-22
14400,22,-4,-12,-32,-14,-8,-1,12
14405,-13,-6,-22,-28,0,-3,-1,-1
14410,6,-3,6,59,12,-3,-1,-1
14415,-1,14,7,6,-1,-2,0,-6
14420,-11,0,-4,-7,10,5,1,1
14425,42,7,8,32,6,2,1,0
14430,12,-34,-2,-8,14,-1,-1,-9
14435,-6,-41,-2,13,-8,-6,-4,19
14440,32,14,7,-16,4,-1,0,1
14445,-64,-12,-5,27,13,4,1,-22
14450,20,1,-25,-57,-42,-6,0,33
14455,-3,-1,12,-7,-14,-7,-3,-15
14460,15,-9,2,6,4,0,-1,-5
14465,0,2,-2,-58,-5,0,2,4
14470,-19,1,-3,68,21,6,3,-6
14475,-26,11,22,-57,1,-5,-5,-9
14480,33,12,-24,-16,-46,-15,-9,-3
14485,43,-4,-1,6,1,-1,2,-2
14490,-6,3,0,2,8,5,3,2
14495,17,20,3,3,7,6,6,2
14500,-2,12,14,22,21,3,0,-11
14505,-10,-8,-5,-30,-14,-5,-6,16
14510,-4,-11,-11,4,0,-1,-2,-8
14515,7,23,3,34,9,5,2,0
14520,23,-4,18,-3,0,0,1,4
14525,26,-16,-21,-39,-11,-2,0,-5
14530,-67,2,5,51,-3,-7,-9,-6
14535,-19,-4,-9,13,-7,-4,1,-1
14540,-3,-9,-3,10,6,3,0,-5
14545,-20,-3,8,44,16,-1,0,-2
14550,26,12,6,-24,3,0,1,4
14555,5,13,-7,4,7,1,-2,-8
14560,48,17,11,83,30,7,2,-37
14565,-44,8,0,-91,-25,-2,2,69
14570,4,-22,-10,51,-2,-2,0,-9
14575,4,4,-16,-61,-6,-8,-8,-7
14580,-7,-2,7,25,1,0,2,0
14585,9,16,6,0,-2,-3,-4,-22
14590,7,-1,-4,-13,-4,-1,-1,-2
14595,-3,-2,5,-2,3,9,5,6
14600,7,-8,2,-3,8,0,0,11
14605,-2,-17,4,9,-11,-3,-3,-11
14610,-60,-35,1,12,0,-2,-5,3
14615,-30,58,9,-65,-6,-4,-4,-15
14620,-73,-21,-25,-28,-20,-9,-4,-1
14625,1,-2,11,45,19,5,1,-5
14630,26,55,-4,7,-9,-2,-1,-7
14635,33,-24,9,23,6,3,2,5
14640,-26,-3,5,11,-9,-3,-2,-17
14645,2,12,7,26,19,2,0,16
14650,20,8,-15,-52,-7,-1,1,-2
14655,-4,-16,-11,-61,-20,-8,-5,-3
14660,-20,-6,8,-52,-21,-5,-4,-28
14665,56,4,-13,11,14,-1,-4,8
14670,-9,13,6,14,10,3,3,-1
14675,-39,-16,2,43,7,4,2,5
14680,-10,-13,-11,-20,3,-4,-4,5
14685,-22,9,3,-9,-7,0,1,-22
14690,0,-28,-3,-78,1,3,3,-4
14695,5,14,-9,23,-27,-11,-6,-30
14700,38,26,6,55,32,9,4,77
14705,-73,-39,-10,-49,-53,-8,-4,-15
14710,-24,32,18,61,34,4,-2,-10
14715,25,-21,-6,-14,-3,0,0,-2
14720,10,1,-13,-41,-7,-1,0,11
14725,-6,-6,-10,24,-13,-9,-3,-8
14730,12,-7,5,40,9,2,0,6
14735,-2,6,5,16,3,3,-2,-5
14740,-5,-7,-9,-31,-8,0,1,1
14745,3,7,6,21,17,4,0,-5
14750,10,-3,-16,-21,-20,-8,-4,-10
14755,15,6,15,21,15,2,0,3
14760,9,-7,-3,17,-5,-1,0,6
14765,-61,-2,6,34,11,0,0,-22
14770,36,24,-5,-33,6,1,0,11
14775,-40,21,-10,-48,-25,-3,0,4
14780,18,-13,-11,-102,-10,-3,-1,-5
14785,-14,-14,4,57,28,1,-2,-13
14790,6,11,3,-36,-47,-9,-6,-1
14795,3,-14,-8,20,19,4,-1,3
14800,-47,16,4,25,-2,-6,-4,-5
14805,24,7,2,-22,-10,-4,-2,5
14810,3,-21,-6,19,6,1,-1,2
14815,5,-5,2,57,14,0,3,4
14820,12,-11,6,-25,-17,-4,-1,-4
14825,34,2,3,-5,2,3,2,4
14830,-11,14,3,-4,2,3,3,-5
14835,-17,-5,5,22,7,-3,-2,25
14840,-5,-7,-5,41,8,-2,-5,-8
14845,17,18,4,-9,-11,-1,0,7
14850,-26,-7,-2,1,-3,-3,-3,-13
14855,12,-22,-7,1,6,3,2,6
14860,-5,7,5,17,16,5,3,-6
14865,2,2,-2,-21,-12,-3,0,14
14870,12,-1,12,39,16,1,-4,2
14875,6,-3,2,26,-5,-2,0,-6
14880,-8,-8,-11,-56,-4,0,-3,-3
14885,6,6,-8,-34,5,-1,1,-9
14890,19,-16,15,25,9,2,3,8
14895,16,19,-5,10,4,1,-4,0
14900,-17,-30,4,-7,-17,-1,1,-5
14905,1,5,1,22,1,-4,-2,-2
14910,15,-8,-4,-80,-6,-6,-1,6
14915,-4,-9,-16,-38,-4,-3,-3,-7
14920,6,13,8,35,1,2,3,-1
14925,18,-2,-6,-3,12,5,0,-4
14930,22,-10,-9,7,-6,-3,-2,15
14935,-20,-8,5,-7,-5,-1,0,-7
14940,-45,10,-4,47,17,2,-3,-3
14945,16,-2,-2,-56,-10,-4,-4,0
14950,2,-5,-3,28,-17,-5,-3,-13
14955,5,-7,-5,-39,5,3,2,3
14960,29,15,8,69,0,1,2,6
14965,-27,-13,-6,21,0,-5,-8,-8
14970,-14,-4,-10,-45,-4,5,5,-6
14975,10,15,3,4,7,5,3,3
14980,-12,-5,1,-49,-19,-5,0,-2
14985,24,-4,-9,62,20,4,2,-2
14990,-9,-2,-10,-92,-24,-6,-4,2
14995,-7,-3,6,66,6,-7,-5,-2
15000,10,1,5,8,6,4,2,1
15005,-55,3,8,17,-4,0,0,-5
15010,26,27,-16,-2,1,0,1,2
15015,2,-32,10,-60,0,-5,-2,-7
15020,-22,-7,0,12,-7,-6,-8,2
15025,-6,-6,-3,-28,-2,-7,-5,-15
15030,11,18,-5,27,4,4,5,15
15035,5,8,-3,-1,6,0,1,-10
15040,25,8,8,-3,0,0,0,-3
15045,9,-3,-3,-10,-2,4,-2,2
15050,-13,-16,-12,12,21,3,4,-3
15055,3,8,3,-13,-23,-2,-2,-7
15060,-1,6,24,-5,-4,3,1,2
15065,15,-18,-12,36,1,-7,-3,-5
15070,-20,12,-1,-17,-4,-5,-10,-15
15075,11,-30,-1,36,17,6,7,12
15080,35,0,-3,36,-19,-7,-2,-4
15085,-28,7,-13,-48,0,-2,-6,5
15090,34,43,10,22,-10,-4,-3,-15
15095,-14,-23,7,45,6,5,1,28
15100,26,-9,-8,-28,0,0,1,3
15105,5,-1,4,7,-9,1,1,0
15110,-17,-7,7,4,6,4,0,-3
15115,36,2,-7,-10,-4,0,2,-11
15120,-46,35,-4,15,17,1,0,16
15125,25,-18,-26,-51,-27,-7,3,1
15130,-27,-28,8,32,21,1,-2,0
15135,16,24,7,31,-9,-2,-1,-5
15140,-13,-56,-10,-18,2,-1,0,-9
15145,-8,14,11,-30,-8,2,2,2
15150,5,-11,11,-10,-7,-8,-6,4
15155,-22,11,-2,0,-5,-3,-5,-7
15160,0,8,-1,29,8,4,1,-9
15165,-6,6,-9,-24,12,7,4,4
15170,2,-18,-7,39,-5,-1,1,0
15175,22,13,-11,-99,-1,-5,-3,-4
15180,5,2,-15,10,-25,-9,-2,-3
15185,21,-6,10,41,19,0,-4,-9
15190,-46,12,13,100,17,1,-2,11
15195,-3,10,-6,-32,-14,-3,-3,-3
15200,43,38,12,29,9,3,1,1
15205,2,-25,-4,-55,-5,-2,-2,-8
15210,11,-9,3,-31,-10,-2,-1,3
15215,-24,-5,4,1,5,5,4,3
15220,13,8,-7,-24,7,0,-4,-16
15225,-20,13,0,64,-15,-10,-3,8
15230,56,20,4,-36,11,3,-2,-13
15235,5,1,3,-8,-21,-3,-1,-5
15240,-9,37,-23,-54,1,-3,0,0
15245,-23,-49,4,-19,-3,3,0,-9
15250,-11,-19,-5,14,-5,1,5,7
15255,-9,7,5,17,3,0,-2,-4
15260,14,-15,5,-20,-1,2,1,5
15265,-9,6,9,49,12,5,4,4
15270,-12,-3,-4,-7,-9,-4,-2,1
15275,2,11,8,19,-1,-1,-5,0
15280,-30,-29,-23,-29,5,-4,-3,-7
15285,30,20,2,2,-1,0,3,8
15290,-39,-16,-1,-17,-1,0,0,-3
15295,32,-5,4,50,4,-4,-4,-2
15300,2,-1,-1,-47,0,-8,-10,-6
15305,6,25,12,20,6,6,2,4
15310,43,-15,-10,-12,-19,-10,-4,-2
15315,-83,0,-5,-36,-1,-3,-2,-4
15320,-8,-14,5,49,1,-2,-1,2
15325,4,4,8,19,3,6,-1,3
15330,27,46,12,-11,1,7,9,8
15335,3,-27,-36,-25,-33,-19,-6,-6
15340,-2,-19,8,54,6,4,-3,-4
15345,-41,10,-1,2,4,-4,-4,-3
15350,-6,-5,9,30,4,6,-1,4
15355,5,4,-6,-38,-8,-1,-1,-9
15360,-9,-5,-14,-48,-10,-2,2,9
15365,18,2,4,29,6,-3,-2,0
15370,-16,-20,-16,-31,-6,-1,-3,-5
15375,8,12,10,12,14,5,6,8
15380,-10,-10,18,15,-1,-2,0,-12
15385,9,1,-8,-11,-5,-6,-3,-2
15390,-5,-2,-1,-3,5,-1,0,4
15395,-38,-5,-12,-3,3,2,-2,-13
15400,11,15,17,58,-1,2,3,7
15405,28,-4,-21,-101,-3,-7,-4,-1
15410,6,-6,3,-10,6,-1,1,0
15415,-7,-7,5,25,12,4,-1,2
15420,-32,7,-1,-5,-6,0,0,0
15425,17,-1,-6,-27,2,8,6,7
15430,-20,-6,18,99,0,-4,-3,-6
15435,10,-8,-34,-79,-3,-2,-2,1
15440,6,6,13,72,6,-4,-1,-2
15445,-9,-44,-5,-26,-10,-5,-3,-13
15450,-7,4,3,8,0,0,-4,-2
15455,22,32,25,38,6,5,3,4
15460,4,4,-16,-26,-6,-3,-1,0
15465,43,24,-6,21,6,0,-1,12
15470,-55,-53,-11,-36,-12,-4,0,-1
15475,6,4,14,10,-8,-5,-2,-3
15480,17,-9,-16,-47,5,-1,0,0
15485,-12,1,-4,-36,0,-1,-1,-7
15490,6,14,-5,35,7,-3,-3,-2
15495,10,-8,1,-26,-11,-2,-3,3
15500,-9,-13,-6,-7,8,8,1,-4
15505,-10,3,7,7,-15,-7,-1,1
15510,8,1,5,31,4,0,0,3
15515,-11,-12,-14,-51,1,-3,-5,-2
15520,20,7,4,-41,-11,0,0,0
15525,-31,7,1,89,6,1,0,3
15530,14,-4,-18,-70,-14,-4,-2,-3
15535,70,-2,12,64,9,5,1,4
15540,-17,11,-4,-38,-5,0,1,-4
15545,-15,2,15,55,17,1,0,2
15550,-4,-12,-12,-88,-14,-6,-3,-4
15555,19,5,-7,42,-1,-4,-2,5
15560,-24,11,-3,13,-3,-3,-5,-6
15565,11,-19,1,15,-8,2,5,15
15570,-20,-12,2,15,8,4,-1,-10
15575,-9,1,5,-11,5,2,-3,-6
15580,43,-2,14,26,4,1,5,12
15585,-22,-10,-4,25,-3,-4,-2,-5
15590,-18,14,-2,35,1,-9,-9,-1
15595,-21,8,7,44,2,3,3,0
15600,18,-15,-4,-17,6,1,3,4
15605,-32,19,9,8,4,3,1,-6
15610,1,6,-16,-14,-1,1,3,2
15615,6,-21,11,35,6,-1,1,0
15620,-20,12,-1,-63,-1,1,-1,7
15625,9,-3,3,35,0,-7,-6,-11
15630,3,3,-11,-13,-17,0,0,1
15635,-31,-11,-8,-68,0,-5,-7,-9
15640,10,2,12,34,0,-1,-4,6
15645,4,1,-2,-28,-5,4,9,8
15650,12,0,5,33,18,6,-1,-5
15655,-14,7,2,14,-14,-6,-9,0
15660,-39,-51,-12,5,7,2,8,-8
15665,27,9,-3,-42,-12,-5,4,4
15670,4,-4,1,25,13,2,2,0
15675,-4,1,-3,-33,-13,2,4,8
15680,0,2,9,22,6,0,-4,-3
15685,-9,-3,8,74,0,-6,-11,-12
15690,17,-4,-3,-91,-8,-5,-4,0
15695,-3,-5,0,69,14,-4,-6,-2
15700,3,2,-22,-42,-13,-3,-5,-7
15705,7,4,1,-14,2,4,5,3
15710,10,11,5,-8,0,3,-1,-3
15715,-6,6,-2,10,7,0,-6,-20
15720,4,4,5,21,4,4,14,11
15725,2,-3,-23,-36,-5,-4,-2,-5
15730,-11,-9,-1,25,5,-1,-8,0
15735,0,10,12,17,0,-3,0,4
15740,13,-4,-16,-36,-9,-8,-16,-14
15745,-11,44,6,-19,0,0,10,2
15750,-67,-23,14,95,18,1,3,-9
15755,15,12,-10,-38,-11,4,20,23
15760,9,-1,-13,10,2,-5,-15,-7
15765,-9,1,-4,16,-3,0,-13,-7
15770,14,4,15,-3,-6,-2,-5,3
15775,1,-1,-14,0,8,3,-2,-5
15780,-24,-1,10,34,1,-2,2,-1
15785,12,-19,-8,-19,-14,-6,-8,1
15790,-6,7,2,-20,1,1,4,0
15795,1,-8,4,-1,-5,4,6,-5
15800,14,11,11,27,-13,-5,-3,4
15805,-11,-16,-6,13,5,-3,-6,-1
15810,32,9,0,-23,-3,3,9,2
15815,-13,7,8,52,10,0,-8,4
15820,-17,-5,0,12,6,3,7,1
15825,17,-2,-1,-42,9,2,-8,2
15830,-5,0,-16,18,-8,-1,-1,-7
15835,1,-9,-8,-25,-2,-2,5,-1
15840,-4,-6,3,11,16,4,7,3
15845,10,1,8,-13,-1,2,1,4
15850,9,4,-5,-41,0,-1,2,6
15855,-15,-6,2,26,-5,-8,-32,-21
15860,31,-6,-3,-28,-5,-1,26,12
15865,1,8,-1,8,0,1,-8,-4
15870,-54,2,-15,8,-6,-4,-1,-3
15875,34,24,15,15,1,3,-9,-1
15880,30,3,0,18,4,-1,-4,-19
15885,-10,-14,4,-3,-27,-7,3,-2
15890,-1,-6,6,44,3,-4,8,8
15895,-6,-14,-8,0,-8,-8,-11,-1
15900,-29,3,-6,7,4,0,-22,-22
15905,29,4,-3,18,14,10,48,28
15910,12,-1,3,3,0,-2,-23,-17
15915,-14,3,15,-8,-11,1,12,7
15920,-4,-3,1,19,1,-4,-7,2
15925,-13,-10,-12,-28,-10,-4,5,-5
15930,16,-1,-3,-20,-1,1,10,36
15935,-4,0,4,-22,8,-2,-15,-27
15940,3,11,16,28,4,9,27,37
15945,-18,-16,-29,-4,0,-12,-26,-26
15950,8,4,1,-21,-15,0,-9,-1
15955,8,-5,-6,-6,3,0,8,8
15960,-12,-8,-11,-46,-17,-3,-11,-6
15965,-9,3,15,16,14,4,-12,-6
15970,9,5,-7,50,7,-2,4,-11
15975,3,-7,-9,-39,-10,-1,15,12
15980,5,-12,-8,-36,-6,-3,-12,-9
15985,-11,3,6,9,2,0,-20,-12
15990,-37,0,11,18,8,3,25,-4
15995,16,0,8,-10,3,-2,2,2
16000,-24,13,3,-18,-10,-2,-4,-5
16005,10,-6,-1,-47,-11,1,-2,21
16010,13,-8,-5,6,2,0,-17,-14
16015,14,24,-7,22,-3,-3,19,16
16020,-33,-53,9,-32,2,3,-6,-7
16025,1,1,-12,6,7,-2,9,0
16030,3,-3,-7,27,-7,-8,-34,4
16035,14,-2,10,13,0,5,32,-15
16040,57,17,-7,10,-4,-7,-12,3
16045,-75,5,9,-33,-3,3,1,-14
16050,12,-2,3,-25,5,3,3,13
16055,-7,-7,-5,35,2,-3,-17,-6
16060,-2,8,0,5,0,-10,-3,-3
16065,12,-6,-1,-13,-7,-1,2,-4
16070,12,6,8,-17,-6,-2,-5,-6
16075,-30,-12,-6,14,5,5,2,7
16080,-7,8,4,-20,2,0,4,-9
16085,15,1,1,42,7,-3,-4,4
16090,-3,1,2,-34,-3,0,4,-6
16095,-9,-10,-11,0,10,-3,-7,1
16100,-10,-5,-12,4,-18,-1,5,-9
16105,46,7,19,15,7,-1,-6,-5
16110,-60,-6,1,11,-1,1,13,13
16115,29,27,2,-1,1,-1,-4,4
16120,-11,-19,-13,2,4,-3,-14,1
16125,-2,-9,-1,-3,5,2,13,-14
16130,0,24,0,-1,2,4,16,-3
16135,34,-13,-5,-84,-36,-12,-18,14
16140,-36,5,-11,28,11,1,0,-2
16145,-1,-1,5,61,1,-3,-13,-8
16150,23,-3,-6,-22,-2,-1,5,3
16155,-34,-3,-9,0,6,4,4,-4
16160,20,10,5,-4,-4,-1,3,8
16165,4,0,13,9,8,5,-3,5
16170,0,-5,-8,42,13,-4,-9,-16
16175,-2,-1,-11,-42,-15,-1,-4,0
16180,18,-2,13,8,8,-2,5,-1
16185,-7,-1,-12,8,5,1,-2,-1
16190,12,-1,7,31,-1,0,3,1
16195,-16,-13,2,10,6,1,-5,-8
16200,-2,8,-1,-6,4,-2,-3,-1
16205,-3,4,4,-14,-7,2,6,5
16210,13,-6,-4,-19,-9,-6,-16,-7
16215,9,-3,5,57,3,1,4,-10
16220,-42,-7,-4,-36,-11,-1,9,14
16225,13,4,-5,3,7,3,0,1
16230,-4,-9,2,-40,-11,-7,-9,-7
16235,-13,-5,-17,-46,-4,-4,-10,2
16240,11,2,-2,30,6,3,-1,-18
16245,-3,3,3,13,-4,-5,-12,-6
16250,1,-1,2,-25,-3,3,19,5
16255,4,1,3,25,7,-1,-6,-4
16260,-14,23,-10,-19,-3,-4,-17,3
16265,-19,-31,0,-26,-14,-4,19,-10
16270,24,-5,-20,-4,-4,-1,-4,10
16275,-18,-2,18,95,13,-2,-3,1
16280,6,4,7,8,-11,1,5,6
16285,4,4,-5,-19,1,0,-7,3
16290,-8,6,4,-10,2,0,1,-5
16295,6,-1,-3,-30,1,0,5,-5
16300,-7,-8,4,12,6,-1,-3,10
16305,-26,7,-4,-8,-1,-1,2,2
16310,6,-5,5,44,-14,0,2,-1
16315,-10,-2,-5,-76,-6,-2,-9,-5
16320,22,2,4,87,11,-3,-5,-8
16325,-4,3,-1,-91,-10,0,11,7
16330,6,7,-7,0,4,-1,-8,1
16335,-7,1,6,20,6,4,2,-2
16340,1,8,-1,1,3,1,-3,-6
16345,30,10,0,-3,-7,-3,-8,4
16350,-2,-33,1,-23,7,2,13,3
16355,12,3,-12,44,1,-7,-2,-5
16360,-15,-11,-4,-57,-16,0,3,8
16365,11,3,-5,1,-8,-8,-10,-5
16370,-5,24,14,14,9,4,-6,-12
16375,39,-18,-4,-6,18,7,2,5
16380,-51,-6,-4,-3,0,0,3,-1
16385,21,-6,1,32,-17,-9,-5,-4
16390,0,9,-3,-10,5,1,-4,11
16395,-27,-1,-10,-45,-13,-2,4,-9
16400,45,0,0,-1,5,2,-2,-1
16405,2,2,7,39,12,3,1,10
16410,-11,-4,1,13,-3,-3,-1,-4
16415,-16,3,-5,-8,-12,-1,-4,-3
16420,7,-4,0,-63,-10,-3,-3,-3
16425,-5,-4,0,61,9,2,4,0
16430,-1,-2,8,17,-2,0,-6,-8
16435,-10,-4,3,12,5,1,-5,16
16440,-7,12,-4,7,-1,-2,8,-5
16445,5,1,0,-51,-25,-3,-2,3
16450,-11,-2,-3,10,9,0,-13,-3
16455,-2,1,3,29,6,1,18,-7
16460,6,-3,6,18,5,-1,-5,-8
16465,9,-1,-2,3,5,5,2,1
16470,-12,2,-13,-53,-14,-6,0,6
16475,-7,-5,4,4,-9,-6,-9,-13
16480,12,-3,-2,1,-4,0,-1,6
16485,-14,0,3,26,12,-2,-1,-6
16490,7,0,-5,-14,-10,0,-5,-2
16495,-8,2,7,66,15,1,-7,5
16500,14,2,5,25,14,4,4,-4
16505,-61,-8,-10,-4,-20,-11,-12,-6
16510,12,-2,2,-26,5,4,13,6
16515,-19,8,-2,1,3,3,5,-1
16520,6,13,0,-15,0,0,1,3
16525,2,-8,-7,31,11,3,-3,1
16530,1,3,0,-41,-1,-3,-12,-10
16535,-8,-4,2,6,-17,-5,6,2
16540,-41,8,15,-1,5,-2,-8,-7
16545,3,-13,-10,-19,4,2,10,13
16550,14,-2,11,14,2,-1,1,-5
16555,-23,2,-11,-36,-6,-2,-5,-7
16560,11,-3,6,4,2,1,-3,2
16565,1,2,-14,-51,-13,-7,-10,-3
16570,-8,-13,1,8,-4,-4,0,-11
16575,32,13,2,-8,-4,5,18,24
16580,2,-4,3,79,2,-3,-4,1
16585,-1,5,-8,-60,10,5,7,0
16590,16,3,1,14,0,2,-2,2
16595,8,4,3,-37,-3,0,-3,1
16600,-21,-6,4,65,12,-1,-4,-13
16605,15,-2,2,38,-6,-1,2,4
16610,8,-3,-21,-66,-12,-5,-5,-7
16615,-1,-3,5,6,3,-2,-3,-6
16620,14,-4,-8,-28,-3,2,4,-1
16625,5,8,18,39,14,3,-6,-6
16630,-25,-6,-3,17,0,-2,4,3
16635,45,16,-7,-8,-2,-2,-2,4
16640,8,-43,-15,-27,-10,0,0,-2
16645,-13,-6,2,-9,0,-3,-5,-5
16650,-3,7,6,54,-3,0,6,3
16655,0,-12,-2,-66,-9,-2,-8,1
16660,11,6,-3,-19,-12,-7,-3,-6
16665,-7,-1,-11,-6,7,1,-2,-4
16670,-17,-5,-8,-40,-26,-4,7,12
16675,-21,-7,13,66,21,-1,-5,-11
16680,34,-6,-5,-8,-2,1,7,4
16685,13,2,4,-6,-3,6,0,-4
16690,12,10,2,22,7,-1,-6,-2
16695,-35,-14,-14,-9,-3,-5,-6,-4
16700,-3,6,5,13,-12,-4,-7,-2
16705,-4,4,-13,-1,3,-3,1,-3
16710,12,-4,7,-5,9,5,3,5
16715,0,3,-2,26,-14,-6,0,2
16720,-15,0,-8,6,4,-1,1,-2
16725,12,5,7,9,2,-3,-1,0
16730,-19,3,-1,26,-4,-9,-8,-6
16735,8,-4,-1,-15,3,9,4,2
16740,-41,-13,-14,-34,-10,-4,-1,-9
16745,27,6,7,20,1,2,3,6
16750,4,4,7,-5,7,-1,-3,-4
16755,16,-9,-6,-38,-1,-6,-9,-4
16760,-62,-20,-6,0,-2,-1,3,5
16765,25,26,12,-19,-4,0,5,14
16770,-16,2,1,41,16,3,4,9
16775,28,13,8,57,3,2,-2,2
16780,-4,4,-9,-91,-19,-9,-6,-14
16785,-42,-38,-4,5,0,4,7,18
16790,-20,-4,-2,-17,-2,-1,-7,-4
16795,4,11,8,26,12,0,-1,-4
16800,-29,32,4,33,1,2,-1,8
16805,-28,-35,-21,-50,-5,-5,-7,-23
16810,28,-7,-3,-7,-2,0,-3,1
16815,-46,-3,-2,19,-3,-2,7,0
16820,27,11,3,-34,8,2,1,-2
16825,13,17,-6,-13,-5,-4,-4,-7
16830,-13,-6,-1,18,-4,2,1,-9
16835,6,-9,-5,-21,-3,-5,-5,-12
16840,31,6,2,32,-3,-2,2,10
16845,-12,4,9,-23,5,0,-3,-5
16850,5,-10,-3,-47,-5,-1,-2,1
16855,-21,4,-18,-45,-19,-4,-5,-2
16860,49,-9,1,35,17,1,3,-1
16865,-4,-4,1,-3,-9,-3,-6,-1
16870,-5,17,0,23,-2,0,6,-3
16875,11,3,2,-29,-1,-1,2,6
16880,32,-3,-3,4,1,-2,0,1
16885,-70,-2,-4,32,8,2,-3,-23
16890,25,-1,2,-11,5,4,-1,24
16895,-5,24,7,41,5,-3,0,1
16900,29,10,-3,-6,-9,-2,-3,2
16905,-31,4,-3,-26,-5,3,6,-3
16910,-7,-6,-8,-16,-7,-3,-8,-11
16915,7,2,2,4,3,5,2,1
16920,-6,7,14,11,8,4,-3,5
16925,42,-4,-10,-26,-16,-8,-1,-3
16930,-45,3,1,53,2,-8,-6,-1
16935,11,-7,2,-5,-1,1,-2,5
16940,-10,-6,0,-8,6,1,2,-9
16945,15,2,-2,2,-8,0,-1,7
16950,23,-5,0,3,8,2,6,2
16955,-3,-7,1,-6,4,3,4,2
16960,-16,-3,-1,52,-5,-2,-4,1
16965,28,-3,-17,-69,-16,-7,-3,-2
16970,-11,-1,7,66,16,-1,-5,-9
16975,0,1,-5,13,-5,-4,-2,0
16980,-4,-19,4,4,9,7,4,0
16985,18,2,2,37,7,2,0,6
16990,5,8,1,-34,-5,0,2,-2
16995,-6,-4,4,-10,2,-1,-4,0
17000,-14,12,-5,-10,-5,0,3,-18
17005,6,-45,6,51,7,2,2,21
17010,-4,-6,-12,-84,-16,-2,-6,-16
17015,-12,-3,7,37,7,0,5,3
17020,-5,2,-6,-33,-10,-10,-11,-2
17025,9,4,9,76,9,3,3,-3
17030,-21,22,-3,-77,-25,-5,-1,-7
17035,44,-15,-4,34,7,-3,-6,1
17040,-3,-18,-13,-11,-8,-4,-1,2
17045,-29,14,15,28,10,-1,-1,-7
17050,44,-11,-5,46,11,3,4,9
17055,0,8,-3,-24,-8,-2,-3,-9
17060,0,-5,4,2,8,0,-2,4
17065,4,23,1,17,5,0,-4,-2
17070,18,-13,3,-7,-15,-2,1,7
17075,1,-1,-6,-6,6,2,3,3
17080,1,5,0,2,4,4,-1,-1
17085,-4,13,4,-6,-8,-1,-2,6
17090,-3,-2,0,46,15,1,8,-1
17095,-32,14,-10,-101,-9,-5,-6,-10
17100,-63,-15,-1,49,-2,-3,-1,4
17105,67,15,5,8,6,-1,-5,2
17110,-26,-4,-5,27,-7,-1,1,-8
17115,6,-18,-6,-10,-4,-1,-1,11
17120,37,52,8,18,0,1,-2,2
17125,-36,-42,-3,-16,8,2,-1,-3
17130,11,-1,-1,10,2,-2,-3,-3
17135,2,0,9,39,-5,0,-2,-4
17140,-1,-31,-20,-63,-8,-3,-3,-4
17145,-10,-5,1,64,10,2,0,-1
17150,16,7,-3,-68,-19,-8,-4,1
17155,4,-12,5,38,6,1,0,-4
17160,0,-2,5,17,5,0,2,2
17165,2,1,-8,-31,-6,-1,1,0
17170,-5,-17,-5,-6,1,0,-3,-3
17175,-9,11,4,42,12,1,0,-1
17180,-21,-5,-13,-48,-6,-2,0,-3
17185,-9,18,4,-25,-20,-7,-3,7
17190,-19,11,4,33,7,1,-1,-19
17195,24,-5,2,-30,-10,-1,-3,-4
17200,-15,10,-6,7,-2,-1,0,-2
17205,-8,-43,-3,23,3,3,4,1
17210,-40,4,-3,-28,4,2,-1,8
17215,-55,-8,-7,-17,-3,-4,-5,-10
17220,40,0,15,20,9,-2,-3,-5
17225,6,12,-4,-37,-10,-3,-6,-8
17230,-3,11,10,47,7,3,1,3
17235,-4,-9,-13,-48,-6,0,2,4
17240,-3,-5,-5,25,0,-2,-2,0
17245,0,19,4,8,6,3,3,2
17250,33,-7,6,17,-1,-5,-3,-3
17255,10,2,5,40,3,1,1,4
17260,-26,-21,-5,-23,-7,-2,-3,-8
17265,-1,14,1,14,4,1,0,-9
17270,3,-10,-4,13,-2,-2,-3,0
17275,28,1,-2,-27,-7,-2,2,1
17280,41,10,11,77,3,-5,-3,-2
17285,8,-7,-15,-58,0,2,-1,-4
17290,-18,3,13,7,-2,3,3,5
17295,14,18,-5,-28,-8,-2,5,11
17300,-17,-73,-17,-4,4,-2,-5,-10
17305,-2,11,5,-2,-17,-8,-5,-10
17310,12,6,4,23,9,0,2,5
17315,-13,-10,-1,37,0,-1,-18,-12
17320,-3,11,5,-40,0,3,14,0
17325,40,4,-2,-3,3,0,3,9
17330,-60,-17,-8,-76,-6,-2,-6,1
17335,-20,-4,1,18,-2,-2,0,-12
17340,12,8,-2,14,0,1,-5,10
17345,-16,6,-3,-46,-1,-2,-4,-8
17350,54,-18,-2,87,9,0,2,0
17355,-18,26,-14,-57,-13,-5,-7,3
17360,15,8,1,10,3,2,9,-23
17365,16,-42,10,-25,-13,-9,1,6
17370,-33,-8,3,25,9,0,-11,2
17375,34,-1,12,42,0,3,5,-1
17380,-2,1,-4,-33,-16,-2,-8,10
17385,-20,5,-3,25,-1,-3,-4,-7
17390,18,14,-1,-36,-1,2,4,2
17395,-3,-15,-5,-78,-8,0,4,7
17400,-30,20,6,3,2,-3,-7,2
17405,29,5,2,-3,-2,1,-1,5
17410,-1,-1,-8,-47,-11,-4,3,-3
17415,-10,7,7,33,9,2,-4,-7
17420,3,8,-10,-35,-3,-2,7,12
17425,-22,8,8,26,1,-3,-5,-7
17430,-45,-62,-2,-2,-15,-5,-10,-12
17435,21,20,11,17,7,3,3,3
17440,13,6,1,31,8,4,0,0
17445,17,-7,-18,-55,-5,0,-4,5
17450,-12,24,2,9,8,3,6,7
17455,3,-5,3,-14,-6,-2,3,-5
17460,-3,-10,-16,-2,-2,-5,-7,-2
17465,0,15,8,30,13,7,8,2
17470,4,0,0,17,-28,-7,-6,-3
17475,-3,-8,3,15,11,-2,-1,-4
17480,5,9,-4,-18,-7,-4,-4,7
17485,-24,-4,9,47,9,1,2,0
17490,15,13,-2,-38,-7,-1,1,0
17495,-10,-5,-1,35,4,0,-5,-9
17500,-2,-3,-1,-54,-5,-1,8,13
17505,-8,-12,-9,0,10,-5,-2,-6
17510,26,12,4,15,5,3,2,6
17515,-69,8,-4,-12,-3,-4,1,-1
17520,-19,-58,9,16,8,4,-5,-6
17525,-1,21,3,41,-6,-3,-5,-16
17530,21,33,-2,15,3,5,12,13
17535,-3,-38,-6,-23,0,-1,2,10
17540,49,32,0,26,-7,-5,-14,8
17545,-18,-7,-6,-41,-2,1,14,2
17550,-1,-7,-2,-9,4,0,-4,-15
17555,1,14,-6,-5,-16,-3,-1,-1
17560,1,4,1,60,12,1,1,6
17565,15,-7,2,-4,0,1,-5,2
17570,1,6,-2,-3,12,6,2,2
17575,34,-4,0,-16,-4,-1,-3,-4
17580,-18,-1,-11,-14,6,1,2,-2
17585,-15,8,-1,-24,-5,-1,-1,1
17590,-7,-10,17,11,3,-5,-4,-10
17595,-33,-11,-6,-57,2,-1,-5,-1
17600,5,7,-3,-10,1,-2,3,-8
17605,-12,-22,-1,59,5,1,0,10
17610,-12,11,1,5,-4,0,-2,-4
17615,28,-39,-1,48,9,0,5,8
17620,-16,-11,7,-17,-2,0,0,-5
17625,16,31,-10,-22,-10,1,3,-6
17630,27,-6,-11,-33,-5,-6,-11,-6
17635,-1,2,-3,41,4,-1,0,-11
17640,-1,7,3,3,-5,1,4,-2
17645,7,20,12,6,-4,0,-7,-3
17650,14,-19,-1,61,-2,-1,1,7
17655,4,46,12,-14,10,6,4,0
17660,16,-12,-20,-3,-3,-10,-9,-10
17665,4,8,14,58,0,-4,-6,2
17670,-6,10,-18,-94,-1,4,2,1
17675,1,-5,-5,42,-3,-3,-4,-7
17680,-11,35,8,-19,0,3,2,4
17685,12,-9,-7,-32,-9,-2,1,5
17690,47,4,7,5,8,-2,-1,6
17695,-16,-16,-2,32,3,-1,-1,-2
17700,6,10,-6,-27,-9,1,0,-1
17705,-20,5,-11,-45,-8,-7,-2,-3
17710,20,-12,8,17,9,3,-3,-12
17715,9,15,-12,-5,-9,-3,-1,-3
17720,7,-17,5,22,9,3,2,5
17725,-35,-5,-13,-36,-4,2,0,4
17730,-16,-2,2,34,-3,0,3,7
17735,-40,-12,10,-7,-3,-6,-3,-3
17740,-9,-4,0,10,-5,-1,1,-5
17745,17,-5,0,-8,6,-1,-4,-3
17750,-3,4,-9,-59,-15,-3,-2,-1
17755,9,2,2,9,14,7,5,4
17760,-46,-15,11,62,17,3,0,-2
17765,12,-10,-15,-42,-27,-4,-1,1
17770,5,33,7,15,4,-6,-6,-6
17775,37,6,1,-28,3,5,2,4
17780,2,6,-9,-13,-14,-5,1,4
17785,-6,-13,7,-14,0,1,0,-7
17790,-9,11,9,42,9,2,-2,8
17795,-29,-6,-23,-96,-27,-10,-4,-12
17800,9,-8,12,40,9,-3,-5,-2
17805,-5,-6,-5,17,7,6,6,1
17810,-14,-9,-8,-14,1,-1,0,5
17815,5,3,5,78,8,0,-1,0
17820,-3,5,6,-13,-8,-5,-5,-2
17825,31,2,0,-13,-8,-2,-4,-1
17830,-22,-6,3,5,2,3,2,2
17835,44,0,-8,23,13,5,2,6
17840,-12,19,-6,-49,-11,-5,-3,-7
17845,24,2,6,15,12,3,5,4
17850,-17,1,2,35,-4,-3,-3,-4
17855,50,-1,10,-4,-9,-4,-2,3
17860,-3,31,-15,-70,-1,5,2,6
17865,-10,-31,-7,35,6,0,-2,-11
17870,-8,0,-6,-19,0,0,3,5
17875,-17,10,12,8,2,-3,-10,-24
17880,16,5,-8,-43,-12,-5,-2,-1
17885,2,-14,0,-35,-4,3,0,14
17890,-22,2,-7,-50,5,1,-2,-9
17895,-8,-20,-6,22,-16,-5,-4,1
17900,7,6,8,38,9,5,4,-7
17905,-23,-14,-11,-41,1,-3,-3,-8
17910,24,-6,8,88,-6,-4,0,2
17915,9,-11,-9,-79,-3,-3,-1,6
17920,-40,-14,-3,20,-2,-1,1,-1
17925,-7,26,14,53,7,3,1,1
17930,-10,-1,-1,-5,3,4,0,0
17935,-26,16,-4,-36,-6,-1,0,0
17940,27,-36,-14,17,4,3,1,3
17945,-49,-8,13,36,6,-4,-6,-7
17950,1,-6,6,-4,0,-4,-4,-3
17955,10,-14,-12,-8,5,1,3,3
17960,-4,-25,-6,-35,-8,-2,-1,0
17965,11,6,-1,16,-9,-7,-4,-5
17970,6,-12,-13,-33,-1,0,-3,-4
17975,-38,0,-4,8,6,2,4,5
17980,20,27,21,39,2,4,2,15
17985,69,1,-5,11,2,1,2,-16
17990,-37,-12,-1,6,-18,-2,-4,10
17995,28,21,3,54,15,-1,4,8
18000,-6,-10,-6,-90,0,1,-3,1
18005,-37,-6,1,20,-24,-8,-6,-4
18010,-11,-8,-1,-22,4,1,1,-9
18015,27,56,-1,-40,-12,-1,-2,-1
18020,-42,-76,2,46,6,-1,-1,-4
18025,0,-14,-7,-49,-2,-2,-3,3
18030,14,-4,5,-4,7,-1,0,-3
18035,-4,14,-4,53,4,1,-1,0
18040,7,17,3,-43,-20,-8,-5,-9
18045,-20,-11,-6,8,5,3,0,2
18050,33,5,-3,-24,-6,-1,3,6
18055,-30,-35,5,-7,6,1,-3,-4
18060,8,4,-8,5,-7,-5,-3,-6
18065,-1,11,-3,-7,5,6,-8,2
18070,-5,28,-1,40,-7,3,4,-14
18075,-19,-77,-3,-18,-3,-1,11,9
18080,8,-13,6,-7,2,-4,2,-3
18085,-2,-16,-9,70,3,5,-4,2
18090,44,4,-5,-52,-5,1,-1,-1
18095,-4,-7,4,18,-9,-7,-10,-5
18100,4,8,0,-11,0,5,2,7
18105,-6,13,5,4,4,-4,5,-4
18110,-6,-4,-13,8,2,-7,-7,-7
18115,4,11,3,-25,0,5,4,1
18120,8,-17,9,70,13,1,-1,3
18125,-9,36,-8,-37,-7,-8,-6,-3
18130,-57,-77,-4,-43,-13,-11,-5,-5
18135,56,18,-9,16,1,4,1,3
18140,6,60,8,45,9,10,7,0
18145,1,5,5,-3,9,6,5,3
18150,7,14,-8,-41,-5,-1,2,2
18155,5,-9,5,40,4,-6,-7,-6
18160,6,-9,-5,-3,-3,-4,-2,6
18165,34,15,5,27,-2,5,5,5
18170,-23,-7,12,9,12,-4,-2,2
18175,-25,-10,-3,-51,-7,-3,-4,-12
18180,-8,13,-6,10,-8,-3,-5,0
18185,6,4,8,-8,5,-1,3,5
18190,-18,-13,-1,-11,0,3,3,-4
18195,4,-10,1,-1,3,2,3,-1
18200,-13,4,4,47,6,1,-1,-6
18205,7,-4,-8,-50,-8,-5,-1,-3
18210,31,23,-1,29,4,-1,-5,4
18215,-31,19,-4,13,1,-2,2,1
18220,12,17,2,-41,-13,-4,-1,-6
18225,1,-31,15,85,30,-1,-3,3
18230,-21,8,-7,-66,-22,-3,-5,-5
18235,3,1,-9,12,-4,1,0,0
18240,28,-14,-11,-30,7,5,0,2
18245,6,19,12,-12,-6,-6,-3,-5
18250,-7,-16,-8,81,4,-2,-2,5
18255,-53,-14,9,-7,-3,3,2,-9
18260,-30,-84,-14,-28,-4,4,-4,-7
18265,-20,-8,6,7,-13,-5,6,17
18270,12,19,6,20,10,3,-1,-1
18275,16,4,-2,-12,-8,-8,-8,6
18280,-18,17,-3,13,5,0,0,-18
18285,37,-3,-2,-46,-3,0,-5,0
18290,14,4,8,33,2,1,3,3
18295,-18,-18,-13,-48,-3,-4,-3,0
18300,37,42,13,24,5,0,2,1
18305,-24,-22,-8,-22,-9,-2,-5,-3
18310,13,13,2,5,1,5,6,5
18315,23,-27,-7,0,-2,4,4,4
18320,9,10,-8,-57,-24,-6,-3,5
18325,-3,13,-7,8,11,-2,-4,-11
18330,-9,4,-16,7,-4,-5,-5,-2
18335,-1,8,12,48,8,0,-3,6
18340,1,4,3,-11,1,-3,-4,-6
18345,-27,-4,2,23,-1,4,6,14
18350,12,46,12,-25,-4,-1,-1,-9
18355,-7,-6,-19,3,-5,-2,-1,0
18360,-5,7,6,-10,3,-1,1,-2
18365,8,1,4,61,12,2,-4,-3
18370,-51,7,2,-16,2,-1,0,0
18375,7,17,-3,-33,-7,-1,0,-3
18380,-13,-8,-1,33,-13,-8,-8,2
18385,-12,-17,3,-5,7,0,2,-13
18390,39,-22,-25,0,-5,1,2,7
18395,-7,30,8,-49,11,2,0,-21
18400,-23,18,10,27,1,1,2,24
18405,22,-26,-22,-60,-24,-12,-9,-6
18410,-11,-11,5,41,9,-4,-8,-5
18415,-7,3,2,-64,4,7,6,1
18420,18,-4,0,19,-2,-1,-2,-8
18425,-14,-29,-10,10,-6,3,3,6
18430,19,25,5,-40,8,3,1,1
18435,6,-5,-1,53,-5,-9,-6,5
18440,-12,-4,1,1,0,-1,-1,-5
18445,-14,-17,-7,-33,-1,-2,0,4
18450,4,-11,0,-39,-3,2,0,-8
18455,17,-3,11,117,14,2,-1,5
18460,-49,-18,5,-25,-1,-2,-3,-6
18465,69,69,5,-18,-8,2,-3,-20
18470,11,22,-6,-19,-2,3,3,24
18475,29,-3,11,14,2,0,0,3
18480,-19,9,2,50,6,-1,2,-6
18485,-4,3,0,31,-6,1,1,7
18490,-4,5,0,-92,-19,-3,-2,-2
18495,0,-2,-1,16,3,-2,-2,-12
18500,14,-10,-4,-18,4,-2,-3,-2
18505,-19,6,-1,-13,-4,2,6,11
18510,43,4,0,9,-5,-1,-1,8
18515,-93,-13,-4,7,5,-2,-1,2
18520,52,-2,-5,-10,5,2,0,-1
18525,-47,-16,3,18,5,-10,-9,-14
18530,-2,4,6,43,7,3,4,-2
18535,17,2,-7,-1,-4,0,1,3
18540,40,21,1,-34,-6,3,1,7
18545,3,-3,3,51,6,2,2,5
18550,-10,-18,-2,27,-3,-9,-6,-8
18555,-1,12,-6,-7,-6,-1,-1,1
18560,-43,1,-6,6,-9,-4,-3,-3
18565,-4,15,1,-29,4,6,2,-19
18570,5,-29,-2,16,0,1,0,12
18575,-10,-4,2,18,18,2,1,1
18580,43,-4,5,-32,-10,-4,0,4
18585,-5,-16,-14,22,-4,-6,-9,-11
18590,-16,-2,7,-6,10,6,9,3
18595,3,-4,-7,-34,-5,1,-1,-8
18600,-68,-48,-11,0,-15,-4,-2,0
18605,-21,-13,10,-5,6,-3,-1,2
18610,-14,41,9,37,-2,-4,-6,-14
18615,16,20,-2,8,-2,-8,-4,3
18620,2,-1,-2,-33,1,1,0,-8
18625,-7,8,-16,-21,-3,3,3,4
18630,-37,-20,1,30,7,4,1,1
18635,-43,8,4,22,-16,-5,-1,-4
18640,-15,7,-2,21,14,0,-7,-7
18645,6,10,-2,-39,-7,1,2,7
18650,14,-9,5,38,4,0,2,2
18655,15,11,-3,-14,3,3,-2,-21
18660,31,15,-5,8,-5,-3,6,25
18665,26,11,-5,-15,5,1,1,15
18670,-4,-17,1,7,1,-3,-4,-13
18675,25,-2,6,-12,-3,1,0,4
18680,-6,-1,-6,44,11,4,-1,-10
18685,2,7,11,51,-12,-4,-2,-5
18690,18,8,-7,-11,0,-5,-6,-5
18695,11,-2,2,-5,-6,2,0,6
18700,12,-3,-5,-16,5,-2,2,-3
18705,-26,-2,-7,36,9,1,-2,-4
18710,46,-20,-8,-54,-24,-1,0,0
18715,-7,-15,5,23,8,1,2,4
18720,-19,7,-5,23,0,1,0,0
18725,22,2,6,-88,-6,-1,-3,1
18730,-11,-7,10,30,4,-5,-1,-10
18735,2,-8,-13,-49,-5,-3,-5,2
18740,14,56,11,-27,-12,-2,2,3
18745,13,-8,9,7,8,2,-1,-7
18750,-6,3,-3,6,12,-2,-2,14
18755,-7,0,-2,-48,-23,-4,-2,2
18760,31,-13,-7,-6,2,0,-2,-2
18765,-15,2,8,6,4,1,3,-1
18770,-2,0,-5,9,-4,-4,-4,-4
18775,16,-4,2,41,12,2,-1,-7
18780,-42,-25,4,-6,-18,-8,-4,7
18785,15,10,9,7,6,4,-1,-6
18790,-18,-5,-10,-15,-8,1,3,-4
18795,21,0,-3,6,5,-6,-3,3
18800,-9,-12,5,-18,6,2,-4,-1
18805,39,-9,6,18,-5,-2,0,-7
18810,-48,37,-7,-20,-2,-2,-1,-5
18815,-30,6,-13,-7,-5,1,0,-5
18820,41,-14,-10,-10,4,-6,0,-2
18825,-23,0,-1,17,1,0,-4,-2
18830,21,10,16,8,-1,-1,0,4
18835,2,-4,-3,-8,1,-1,-1,-4
18840,9,0,4,8,5,3,0,1
18845,-38,5,-16,-5,-1,-5,-3,-1
18850,-50,-20,-1,53,8,2,-3,-29
18855,10,3,2,-65,-12,-7,-2,28
18860,-7,4,-1,28,4,2,0,-4
18865,9,1,9,8,4,3,2,8
18870,-7,-24,-24,-29,-10,-6,-4,-3
18875,-3,5,6,6,-2,0,3,-2
18880,43,-4,1,39,9,4,0,-6
18885,-3,-4,-5,-73,-22,-4,0,6
18890,-2,8,2,34,18,2,-1,1
18895,-4,-8,-1,24,-12,-6,0,-3
18900,-15,-10,-2,1,7,3,2,0
18905,-5,2,-2,9,-7,3,3,2
18910,4,-20,11,21,9,0,0,3
18915,-3,-22,-13,-5,1,-1,-4,-12
18920,-12,10,10,11,2,-2,-2,4
18925,5,-4,-7,1,2,0,-2,-3
18930,-2,-7,-6,-50,-27,-8,-6,-16
18935,31,-12,6,24,17,1,0,26
18940,-51,-8,-3,-5,-7,0,0,-11
18945,-25,33,7,27,8,4,3,-11
18950,69,8,-17,-36,-4,-1,-2,8
18955,-13,-9,8,40,4,-2,1,-11
18960,-4,6,1,-17,-15,-7,-4,-2
18965,3,-17,-1,7,4,-2,1,6
18970,9,-8,4,-32,-5,0,-1,-4
18975,-52,-18,-26,-34,2,-1,-5,-8
18980,-9,-7,3,-25,-11,-3,1,-5
18985,5,2,9,42,-2,1,1,10
18990,1,1,-3,3,2,1,3,10
18995,-2,7,0,-35,-2,3,-2,-16
19000,40,2,-5,-7,5,0,2,22
19005,5,-15,2,5,6,-5,-6,-11
19010,-8,14,-2,-6,-2,3,4,4
19015,9,13,4,-40,-9,-2,0,0
19020,0,3,1,71,7,2,5,-5
19025,5,37,3,-72,-12,-1,-2,1
19030,-17,-19,-8,23,7,-2,-3,5
19035,16,17,-4,-2,-17,-7,-5,-10
19040,43,-9,8,23,7,3,0,-1
19045,-54,-6,-16,6,7,1,0,2
19050,-14,-2,7,11,4,2,2,-3
19055,13,9,-4,-4,-2,1,0,2
19060,-45,-33,-9,-19,4,-2,-1,-5
19065,39,-11,3,-46,-21,-6,-4,-2
19070,8,10,9,23,8,0,-1,0
19075,3,-8,12,22,9,4,3,7
19080,-16,15,-14,-45,-15,-3,-2,-1
19085,0,-20,-8,32,3,-1,-3,-7
19090,-9,-2,0,-1,0,-2,-2,-2
19095,36,7,4,-24,3,1,3,1
19100,-60,-15,2,40,3,0,-5,-7
19105,38,-9,-17,2,-3,-5,-3,4
19110,7,7,0,-34,-15,-5,-3,-5
19115,-21,-4,10,71,18,3,1,2
19120,57,-31,-11,8,13,1,-2,-4
19125,-18,-4,2,55,-4,-1,0,0
19130,-15,-1,5,20,2,2,2,4
19135,13,-9,-11,-30,-11,-5,-3,-4
19140,-10,10,0,-32,-6,-4,1,2
19145,3,4,-6,-33,4,0,-3,-1
19150,9,-12,0,17,13,6,-2,-17
19155,-6,2,-5,-12,-14,-5,-1,16
19160,35,23,7,46,10,1,1,1
19165,-41,1,4,5,-4,-3,-1,2
19170,7,7,-8,-35,-3,0,-1,-8
19175,-13,-3,5,31,5,1,5,0
19180,-13,2,0,-29,5,2,-1,-2
19185,54,-13,-3,-7,-16,-1,0,-3
19190,-16,-5,7,34,11,-5,-3,3
19195,2,7,-5,15,2,2,2,2
19200,-1,5,13,34,-2,-2,-2,-3
19205,-11,4,4,-48,-4,3,0,-2
19210,-3,-4,-17,-42,-10,0,1,7
19215,18,-2,6,50,11,0,0,-2
19220,-40,35,0,-26,-7,0,0,-8
19225,-20,-70,-13,-14,7,-2,-3,-1
19230,35,19,16,16,-14,-1,1,5
19235,-22,-10,-14,57,-2,-3,-4,-12
19240,47,0,-14,-69,-8,1,-2,-4
19245,-6,12,2,-16,1,0,4,21
19250,-6,-2,4,-11,-5,-3,-4,-6
19255,0,-17,3,18,4,-2,0,-2
19260,8,-21,-9,2,-12,-3,-4,-10
19265,5,13,-1,-23,-1,-1,0,-7
19270,-14,-3,0,-3,3,2,6,5
19275,-9,7,8,17,-3,-1,-5,-4
19280,-16,-4,-14,-19,-4,-4,-1,2
19285,24,26,6,36,3,0,0,-18
19290,-33,-22,3,7,6,0,0,28
19295,23,0,8,29,-3,1,0,1
19300,-6,2,1,-83,-8,-2,1,6
19305,-15,10,2,61,8,0,-2,-1
19310,4,5,-5,9,-2,0,-1,-7
19315,-3,7,0,-56,3,4,1,0
19320,24,0,7,94,8,1,2,10
19325,-56,-8,-23,-25,-20,-16,-11,-19
19330,43,5,11,68,4,1,-2,10
19335,-22,-11,-2,-101,-2,0,-1,-1
19340,10,2,4,25,4,3,0,-4
19345,5,12,5,12,3,1,3,2
19350,7,-3,-6,-1,2,-4,-2,-5
19355,-11,4,5,11,5,0,1,-1
19360,10,39,8,36,3,4,3,4
19365,-17,-29,-12,-65,-11,-3,-6,-15
19370,-17,-9,-22,-21,-10,-8,1,22
19375,15,6,2,1,-21,-7,-4,-3
19380,-5,7,19,2,7,1,-2,2
19385,15,7,16,57,16,9,6,4
19390,-8,-22,-14,-14,2,2,-2,-10
19395,-35,-11,0,26,2,-2,0,-15
19400,-37,-6,-13,29,4,-1,-2,0
19405,-21,7,1,-21,-6,0,-3,3
19410,-2,-7,5,-5,-1,-1,0,-7
19415,13,4,-12,-24,0,-1,-1,6
19420,-11,-11,2,-25,-4,-5,-2,-5
19425,23,-1,-5,17,9,3,1,3
19430,15,16,8,5,13,5,1,-3
19435,-65,-18,7,-24,-18,-7,-4,-7
19440,7,-3,-8,-18,-3,-4,-5,-22
19445,-28,17,-1,27,-1,4,4,34
19450,7,-10,-11,-55,-7,-5,-4,-7
19455,19,12,6,22,18,8,5,7
19460,-22,-42,6,15,-20,-5,-4,1
19465,26,12,-8,-12,-4,-4,0,-1
19470,-11,7,3,-47,-2,0,-1,-9
19475,2,-14,-11,14,5,1,1,-1
19480,30,12,6,-29,-1,0,-2,5
19485,0,-5,6,11,4,0,0,2
19490,-2,-2,-5,47,-10,-2,-4,-6
19495,16,4,0,-24,-1,0,1,2
19500,-35,-27,-4,-3,-3,0,1,-10
19505,-19,-6,13,23,6,0,-1,5
19510,-41,-16,0,-9,0,-5,-4,-7
19515,58,12,-14,-90,-12,-4,-4,3
19520,3,-11,-14,9,-6,1,1,-2
19525,13,4,7,-6,4,3,1,-1
19530,-14,3,7,32,8,2,3,1
19535,30,-13,-4,20,-15,-7,-6,-6
19540,6,-7,-1,-28,3,-8,-4,0
19545,7,-2,-6,-8,5,1,-4,-6
19550,3,0,1,-3,-8,-2,-1,-1
19555,2,11,5,33,5,1,1,1
19560,-38,-13,2,-3,1,3,1,4
19565,21,-5,-4,0,-5,-4,-3,-6
19570,-11,1,-3,-43,0,-1,-2,-8
19575,-11,-1,-2,49,-3,0,-2,14
19580,46,14,-9,-26,-4,-3,1,5
19585,-68,-24,0,32,14,-2,-3,-18
19590,70,4,-2,-58,-17,3,2,8
19595,-12,11,5,41,12,1,0,-3
19600,-9,10,0,-20,-7,-1,-1,3
19605,5,5,11,21,5,2,0,3
19610,-12,-4,-9,11,3,0,-2,-22
19615,11,-19,6,14,7,-1,0,35
19620,-14,22,-1,29,8,2,0,-5
19625,6,-5,-2,-12,-7,-3,-1,-4
19630,-23,-21,1,-2,-5,-1,-4,1
19635,9,-4,3,37,8,0,2,-16
19640,-1,-3,4,-18,1,-3,-2,2
19645,31,22,-3,-16,-2,3,4,8
19650,-19,-24,0,36,5,-1,0,1
19655,-4,-5,-9,-65,-7,2,1,-5
19660,-26,5,3,76,1,-4,-3,-4
19665,4,2,-7,-8,-10,-4,-4,-20
19670,42,15,0,12,0,0,2,30
19675,-29,6,3,7,0,0,-1,-11
19680,12,0,4,-24,-3,4,0,17
19685,8,-1,-2,-11,-4,2,3,1
19690,27,16,-2,16,12,4,1,-3
19695,-19,-5,-9,-50,-13,-9,-5,-5
19700,0,-4,-7,25,8,-1,-4,-10
19705,2,-1,5,-29,-12,-2,-3,6
19710,6,1,5,12,-1,-2,-1,0
19715,-11,-1,-6,16,2,0,0,-2
19720,13,7,8,10,0,2,5,-1
19725,2,-11,-16,-16,-4,-4,-4,1
19730,13,0,-4,16,2,1,-1,-6
19735,-1,3,2,11,2,0,0,1
19740,-5,-2,0,-30,-7,0,0,-3
19745,5,3,6,18,5,-1,0,4
19750,-21,9,-2,-55,-9,-4,-1,-8
19755,-4,0,3,39,6,2,-4,-14
19760,24,14,-12,-38,-2,4,8,25
19765,-18,16,6,-26,-10,-5,2,1
19770,15,18,-4,9,-9,-6,-5,-5
19775,14,-23,10,7,-4,1,-2,2
19780,1,5,6,38,4,-1,-3,-8
19785,4,-4,-7,-19,-4,2,1,0
19790,-15,-2,-7,-5,1,-2,-1,4
19795,-8,13,1,-35,-3,1,2,-6
19800,-3,-19,-1,35,-3,-1,-2,1
19805,39,-16,1,-25,-10,-3,-2,2
19810,-53,-7,-23,-25,-8,-11,-5,-6
19815,-8,5,2,39,10,-2,-2,-3
19820,1,-14,-2,5,2,-2,0,-1
19825,-7,1,4,-6,2,0,-2,-2
19830,1,9,9,15,7,6,3,-2
19835,14,14,-11,-45,-10,1,2,11
19840,-2,-23,1,-7,4,1,-3,-6
19845,-23,11,0,26,7,-2,-3,-5
19850,31,-14,-8,22,1,-3,-1,-2
19855,-4,-4,-15,-92,-4,0,-2,-4
19860,9,20,16,46,-29,-6,-4,-4
19865,-18,3,5,52,14,5,0,6
19870,28,-12,-8,46,2,-3,-3,-8
19875,-13,-4,8,22,-2,-1,0,-2
19880,6,-21,-19,-47,-6,-5,-4,-1
19885,12,-13,5,15,-3,2,1,-2
19890,-47,17,5,2,5,0,-1,2
19895,-19,-3,0,29,2,-1,-1,-2
19900,-32,9,-5,-35,-4,-4,-4,-13
19905,25,2,2,35,4,-1,-1,12
19910,-5,-11,-1,-40,-2,2,0,1
19915,-2,7,-7,-31,-2,1,3,1
19920,-20,2,10,61,-1,-3,-4,-11
19925,-42,-30,-18,-47,0,-7,-3,-4
19930,8,10,4,12,6,0,-1,4
19935,0,-6,-2,-12,-10,-5,-6,-16
19940,12,11,5,-1,7,4,4,25
19945,27,6,-2,8,2,1,-1,-4
19950,14,2,-3,15,-1,0,-1,1
19955,-18,-9,-3,12,7,6,4,2
19960,11,4,0,-38,-10,-2,-1,-6
19965,-30,2,-11,-15,-1,-4,-3,-2
19970,5,-5,6,-11,0,-1,1,4
19975,13,0,-3,-32,-3,-4,-4,-2
19980,-1,-5,-7,11,7,2,0,-4
19985,7,7,9,-72,-3,2,1,1
19990,-12,1,7,37,9,5,3,-2
19995,38,0,1,65,2,-10,-6,-11
20000,-33,-22,-6,-60,-9,-3,0,9
20005,0,5,-2,40,9,2,3,-6
20010,-16,5,3,-51,-7,0,0,12
20015,-1,1,-2,-13,0,2,1,3
20020,9,7,3,-2,6,0,0,-5
20025,10,-3,-9,4,-3,-4,-3,-2
20030,3,-16,6,44,2,-1,-1,-7
20035,-3,19,-2,24,-6,-2,0,5
20040,5,-8,0,-12,3,0,0,-2
20045,7,4,-3,2,1,0,0,-2
20050,13,9,6,9,0,2,4,3
20055,-6,-9,-5,-36,-9,-2,-3,3
20060,-14,14,1,72,10,-6,-4,-9
20065,43,-3,-6,-85,-18,-1,0,-2
20070,-52,-6,4,84,6,-6,-6,-5
20075,1,-10,9,18,-2,-1,1,1
20080,1,5,1,9,4,6,4,1
20085,15,-2,-2,44,0,-6,-4,-4
20090,-11,19,-11,-56,-22,-5,-3,-7
20095,0,-23,6,9,9,3,1,0
20100,11,1,1,20,2,-1,-1,-1
20105,1,4,-6,1,-6,1,-1,1
20110,15,2,2,1,8,3,1,-3
20115,9,4,-2,-71,-6,1,-2,1
20120,-14,4,4,64,-3,-9,-8,-20
20125,-7,3,13,-9,4,3,0,21
20130,12,21,-1,-1,-2,0,2,-2
20135,-1,-14,-1,-7,1,2,0,5
20140,9,-3,-4,-21,0,1,2,4
20145,-19,1,7,22,-1,-4,-2,-11
20150,62,-7,-4,7,4,4,0,6
20155,-52,19,-4,-10,0,-1,3,-6
20160,11,1,-9,-55,-27,-4,-2,-1
20165,-17,-9,8,64,10,-1,-2,-6
20170,10,-17,-5,5,2,-1,-2,4
20175,0,17,5,59,9,2,-2,-4
20180,-2,-9,-6,-5,-1,1,1,3
20185,-2,-5,1,14,-6,-3,-1,2
20190,-24,-8,-7,-8,1,-2,-1,-3
20195,47,-11,-6,-20,-6,-3,-1,3
20200,-36,14,9,56,9,1,-3,-2
20205,4,3,4,3,5,-1,-1,-1
20210,-9,-9,-11,-51,-9,0,2,3
20215,-6,-3,0,74,17,2,-1,-3
20220,40,-5,1,-63,-14,-3,-4,3
20225,-43,13,4,16,-8,2,2,-4
20230,-23,6,-4,-20,2,2,0,-8
20235,55,-4,-11,-8,-5,0,0,16
20240,1,-13,-2,-74,-3,-5,-4,-9
20245,-4,-12,-7,-24,13,2,0,-3
20250,-12,5,14,26,-1,-3,-4,-2
20255,37,22,-4,-26,-18,-3,-3,-4
20260,13,-20,2,17,8,4,2,-2
20265,4,5,-15,-37,-5,0,-1,10
20270,-8,-13,9,-19,-3,-4,-3,-3
20275,-4,2,-15,24,0,-4,-5,-5
20280,-19,3,3,-16,0,0,1,3
20285,2,2,8,18,1,0,1,0
20290,11,-7,-15,23,-4,-3,-1,-1
20295,-2,-5,26,-26,5,5,3,3
20300,16,-6,-48,-59,-15,-7,-7,-4
20305,7,-5,-1,41,14,0,-1,-3
20310,-4,1,-3,-41,-33,-6,-3,1
20315,-49,-2,11,-7,2,0,0,-3
20320,22,-1,-3,20,6,2,2,5
20325,3,1,7,21,6,-1,-5,-3
20330,1,-2,-12,-61,3,0,1,0
20335,-14,-10,-10,-20,-8,-5,-2,0
20340,-16,7,11,9,0,1,1,1
20345,-1,26,-3,27,1,-2,-2,-21
20350,8,-3,11,44,11,3,0,14
20355,-19,9,-2,-10,-5,0,-1,8
20360,-16,2,13,20,17,4,2,-3
20365,34,9,-21,-81,-16,0,2,8
20370,-31,-4,8,63,4,-5,-5,-17
20375,-1,-3,-7,39,10,2,-1,-3
20380,16,8,12,23,4,1,0,6
20385,-13,-13,-5,-29,-6,0,-1,-5
20390,29,11,-10,-46,7,1,-1,-1
20395,-18,-21,1,70,0,-6,-2,0
20400,-4,4,-8,6,-3,-3,-3,-4
20405,2,-7,8,45,3,2,0,1
20410,2,-11,2,-16,2,1,0,3
20415,-29,4,0,29,2,-2,-3,-6
20420,13,-10,-6,-45,-12,-4,-1,-1
20425,-6,-1,10,45,8,1,-1,-10
20430,20,11,-9,-54,-13,-3,-2,7
20435,-11,-37,-9,-23,-8,-3,1,9
20440,-38,4,11,44,6,0,-3,-3
20445,-6,0,2,1,5,1,-2,6
20450,30,-40,-9,27,4,0,-1,-14
20455,31,-12,-1,-79,-15,-3,-3,-11
20460,-12,-8,-4,-20,-3,0,2,3
20465,4,-8,0,42,1,-2,-3,-1
20470,-19,9,2,-24,5,1,0,-4
20475,14,5,-2,-22,4,2,2,12
20480,3,-1,3,9,-7,-3,-2,0
20485,25,-3,-1,-44,-5,0,0,2
20490,-37,-5,-2,3,1,-4,-2,-4
20495,-19,10,9,27,2,0,1,-5
20500,13,5,-3,-36,1,5,1,0
20505,-2,5,-2,-6,-5,-5,0,4
20510,-5,-32,-11,21,0,0,1,2
20515,-45,10,7,48,8,3,-2,-8
20520,7,6,-3,-13,-12,-3,-2,2
20525,2,-16,0,-11,5,-1,-2,-24
20530,-1,15,-3,-10,-6,-1,-3,27
20535,11,5,-1,3,7,2,1,-5
20540,-6,13,5,31,6,7,5,8
20545,1,0,-12,-45,-12,-2,0,-1
20550,12,16,10,37,5,1,-2,-10
20555,15,-3,-8,-14,-5,-4,-5,0
20560,-41,3,4,15,5,-3,-4,-8
20565,-10,4,9,-25,2,-2,-1,0
20570,2,4,-1,63,-2,-2,-3,6
20575,2,-15,-22,-104,-15,-1,1,4
20580,18,14,3,36,6,0,0,-11
20585,32,8,2,46,4,-3,-6,22
20590,-93,-40,-2,-2,-2,1,4,-10
20595,-7,5,9,39,-1,-4,-6,-19
20600,12,-10,-7,-34,-3,0,0,1
20605,1,-4,0,-11,2,-2,2,4
20610,14,8,-11,-30,-2,-1,-3,-9
20615,14,38,5,24,-2,-4,0,4
20620,-15,-17,7,46,11,0,-1,-6
20625,-18,-5,-12,4,-11,-6,-4,-5
20630,16,7,2,-5,5,2,1,-1
20635,29,12,0,3,-3,2,1,-2
20640,14,-18,6,55,5,-1,-2,-1
20645,7,6,4,8,-6,2,2,-1
20650,9,-4,1,-22,1,-1,-2,4
20655,38,-17,-11,13,8,-1,0,0
20660,9,18,1,-31,-5,-4,-2,0
20665,-23,-32,4,55,0,2,-2,-2
20670,19,4,-2,14,1,-2,-1,-5
20675,-12,-1,-1,9,2,0,-1,0
20680,-4,-7,-3,-26,-3,-1,1,-14
20685,-9,-6,-8,1,7,1,2,17
20690,18,15,11,12,-2,-1,-1,14
20695,-31,-10,12,8,5,3,0,-2
20700,-6,13,-12,-21,1,1,0,-2
20705,-18,-3,6,-13,-10,-8,-7,-12
20710,-3,-1,-1,-3,2,2,6,-4
20715,7,0,-3,-1,-2,-3,-3,1
20720,-13,-2,2,3,-8,-1,-1,7
20725,-11,5,0,-7,5,1,1,-3
20730,-3,0,-4,-1,-1,3,1,-2
20735,19,-9,-2,-30,-3,-1,0,3
20740,-60,-23,-2,17,7,-5,-7,-9
20745,12,1,-6,-3,-13,-3,-1,5
20750,1,4,8,16,2,-3,-4,-9
20755,-9,3,2,-12,-4,1,0,-2
20760,20,1,0,-11,1,1,0,4
20765,13,27,2,20,9,5,-1,-26
20770,-5,-25,-9,-8,-4,3,8,30
20775,-43,-7,-6,-16,-3,-9,-8,-10
20780,7,-2,-2,-14,-16,-3,-1,3
20785,4,-1,-7,25,4,-5,-3,-4
20790,10,12,6,28,7,3,-1,-12
20795,9,2,2,-2,3,1,3,6
20800,15,1,3,-4,5,3,2,8
20805,-61,-17,-13,-3,-1,1,2,1
20810,7,22,7,-15,-7,-7,-5,-10
20815,4,-1,0,41,5,-3,-1,11
20820,5,3,-8,-14,0,-1,-1,-3
20825,3,-2,5,-40,-7,-2,0,6
20830,39,-4,0,37,-4,-5,-3,-2
20835,11,8,0,-8,-3,1,-1,-11
20840,0,15,-9,-18,3,4,2,6
20845,-27,-4,-13,-12,-2,-2,-1,-2
20850,8,-7,-4,-22,-3,-1,1,2
20855,4,-6,9,-4,-2,-2,-3,-2
20860,-4,-13,-8,3,-9,-5,-5,-7
20865,74,9,-3,-19,3,3,1,4
20870,-35,-40,0,-9,-1,-2,-7,-10
20875,-2,13,3,33,7,6,4,-1
20880,3,7,2,-6,0,1,0,4
20885,-14,-13,0,-40,-11,-6,-4,-2
20890,-8,8,1,-8,4,0,0,-7
20895,9,-13,2,27,-1,4,-1,-1
20900,26,-8,-15,-31,-7,-6,-3,-18
20905,-16,5,7,12,9,2,2,29
20910,-2,10,3,-10,0,0,-4,-6
20915,30,1,-8,-40,-8,0,6,5
20920,-11,27,12,55,10,1,0,-6
20925,-5,-40,2,4,-23,-7,-5,-1
20930,-14,15,-11,-11,-1,-2,-4,-1
20935,33,-3,0,-13,8,2,3,3
20940,-54,-1,20,72,5,2,-1,-1
20945,-17,-7,-18,26,-1,-5,-5,-12
20950,13,39,-3,-23,-2,-1,-2,-3
20955,-51,-11,-1,-26,-5,0,-2,-4
20960,35,1,-5,-29,4,4,4,9
20965,50,12,11,12,1,0,-1,-2
20970,-39,-11,1,1,-2,-7,-2,-5
20975,-3,4,-6,29,-2,-1,-1,0
20980,1,-4,1,-52,-4,-1,-1,4
20985,1,7,-3,41,3,-2,-2,-8
20990,25,-23,3,23,9,3,2,-2
20995,-12,9,-7,0,-5,-4,-3,9
21000,-1,-19,-6,-5,-4,-6,-3,4
21005,-9,15,1,-18,5,2,1,-2
21010,-11,31,6,10,-3,0,1,0
21015,-56,-13,8,7,7,-2,-6,-21
21020,20,11,-12,4,-11,-4,-4,15
21025,-35,14,5,-50,-4,-2,1,-1
21030,-10,-2,-4,-3,4,0,-1,-4
21035,15,1,8,-14,-7,1,-1,3
21040,19,7,7,40,8,3,0,-1
21045,-7,-8,-4,21,-1,-2,0,-4
21050,24,-15,0,0,-18,-11,-5,2
21055,-14,12,-5,-11,-1,-3,-4,-3
21060,17,-8,4,-5,4,4,2,1
21065,-8,-4,-7,-10,-2,4,3,0
21070,-16,-3,-4,-6,-1,1,-1,-1
21075,26,-2,1,-10,-4,-4,-1,4
21080,-11,2,5,-1,1,-2,-1,-2
