time,emg1,emg2,emg3,emg4,emg5,emg6,emg7,emg8,hand,pose,orientation,testPerson
0,17,-2,-4,17,-13,-3,-1,-3,1,0,100,BueBaby!
5,-28,0,-2,-47,2,-3,1,-11
10,-8,-3,-5,6,-11,-5,-5,8
15,49,0,14,38,18,6,4,-4
20,5,-22,-18,-63,-27,-8,-4,18
25,-15,6,-1,30,7,1,-1,0
30,-11,-3,6,-7,2,6,1,-15
35,-23,15,-3,-52,3,-8,0,-12
40,4,-38,1,57,14,5,-1,30
45,2,-6,-9,-29,12,-2,0,-36
50,-11,-12,-21,-17,-24,-2,0,13
55,7,19,-3,29,0,-2,-5,-15
60,34,15,12,26,1,-1,0,4
65,-7,-2,-4,-60,-32,-12,-10,7
70,17,7,8,35,47,10,7,-3
75,-6,-18,1,-12,-5,-2,-7,-5
80,-99,8,-6,-57,-19,-9,-6,-69
85,103,12,-5,16,9,7,20,92
90,-4,14,3,31,2,-4,-5,-9
95,-5,-11,-5,4,11,0,-4,7
100,-21,8,-4,-2,19,8,2,-40
105,-3,-1,3,-30,-29,0,-2,32
110,-57,1,-6,-37,3,1,-7,-19
115,-1,-1,6,40,11,0,4,-20
120,1,4,-14,63,-2,-4,-4,4
125,-10,-29,13,-46,23,0,-5,2
130,-29,-12,-6,23,-20,-2,-1,-6
135,5,5,-10,-94,2,4,2,7
140,-15,-26,-3,-17,15,3,-2,-12
145,35,36,11,43,12,0,0,7
150,18,-16,5,70,9,-6,-7,-70
155,-15,-21,-14,-53,-24,1,4,31
160,-9,-6,-22,-106,-23,-5,0,-13
165,-2,-6,3,-4,12,0,-9,7
170,13,25,15,78,42,-1,8,2
175,-9,5,-11,-34,-27,-5,-7,-15
180,-6,0,-2,-64,-14,3,6,15
185,10,-19,12,8,18,-3,-4,-6
190,-5,-1,-11,-2,3,-4,-6,6
195,22,-21,2,65,18,1,-6,-58
200,45,60,2,-56,-12,2,13,96
205,-79,0,2,3,-22,-1,0,-46
210,17,-2,5,19,-9,-4,0,33
215,11,-25,0,27,3,2,4,3
220,29,-2,-3,21,21,0,-8,-41
225,9,17,-4,-38,-27,-2,2,-10
230,-58,13,-5,-17,30,7,5,6
235,11,-12,-7,-81,-54,-8,-1,-20
240,-11,4,4,53,14,0,-3,29
245,5,8,-21,-7,-15,1,2,8
250,19,-14,3,5,-10,-3,-3,8
255,43,34,7,17,24,0,-8,24
260,-80,-14,0,8,-14,5,11,-38
265,28,-59,-16,-15,8,-2,-2,7
270,14,-20,-3,25,-32,-14,-7,1
275,9,17,-1,43,4,-2,-1,4
280,-6,-4,13,33,4,-6,-7,-12
285,49,-2,0,1,-16,9,9,-1
290,-11,10,-11,7,30,5,2,2
295,12,-20,1,-23,19,-9,-5,-14
300,38,-16,-5,-5,-20,-2,-1,40
305,-13,3,2,-2,10,1,4,-6
310,46,14,3,-25,-2,3,-3,0
315,-8,22,7,24,-38,-8,-3,-1
320,17,-16,7,-5,2,-3,4,-17
325,8,38,8,13,15,3,1,15
330,10,-20,-1,9,1,4,2,12
335,-4,14,10,19,17,10,3,-1
340,3,-6,14,69,21,-12,-17,-36
345,-10,13,-26,-105,-37,-2,5,-4
350,3,-15,-2,0,-18,-7,-5,-14
355,-4,13,10,57,33,4,0,13
360,-16,-9,6,0,8,4,-1,-6
365,3,-44,13,110,18,1,-2,-9
370,-30,39,-21,-128,-31,-3,-2,36
375,-33,-40,5,94,29,2,0,-1
380,-27,21,-19,-71,-23,-4,-5,-22
385,-9,-8,-2,90,-3,-7,-10,1
390,48,-33,-4,-82,-24,2,11,-20
395,-35,28,-5,-26,-8,1,8,42
400,-14,7,11,34,17,-2,-3,-3
405,3,-22,-9,-47,-15,-1,-4,-3
410,-26,62,11,71,2,3,-3,-35
415,-43,70,-1,-18,0,-1,4,3
420,-9,-48,-3,4,2,-1,-2,14
425,-15,18,-5,-26,-9,-2,-3,10
430,10,-10,13,46,26,3,2,-8
435,60,-15,-2,-31,-31,-3,0,-4
440,-8,9,4,17,1,1,-2,-4
445,11,12,-3,10,3,2,4,9
450,-12,-27,0,-21,-27,-2,-1,13
455,-23,-2,-24,-17,21,-6,-11,-39
460,26,5,12,63,2,2,4,20
465,-20,-12,-12,-52,-18,-3,1,-1
470,20,15,24,25,32,10,7,2
475,-23,-11,-7,4,-35,-6,-5,-23
480,9,18,-11,-56,-12,1,1,-4
485,34,-49,6,44,20,-7,-5,18
490,-36,-19,-14,-18,0,-1,0,15
495,14,-19,-1,-36,4,-1,-5,0
500,-2,3,-3,2,22,4,1,-7
505,0,4,2,-10,-53,-8,-6,-15
510,-12,21,6,-5,9,0,-1,1
515,-14,-39,-14,4,3,0,4,13
520,-14,-12,0,34,-5,7,1,-4
525,-14,18,-11,-108,-4,-7,1,-9
530,-16,6,7,23,-4,-3,-7,25
535,7,17,6,26,10,4,3,-19
540,4,-1,1,8,1,4,4,23
545,16,25,17,98,43,7,1,-1
550,19,-10,-10,-38,-51,-13,-5,-9
555,-10,-53,14,-12,9,1,1,-5
560,-67,-4,-8,-79,-5,0,2,7
565,-5,22,-4,34,15,-4,-8,-12
570,35,-21,-10,-2,1,-1,-4,0
575,-29,-8,0,-14,-2,3,9,9
580,43,38,8,24,3,-1,-1,41
585,-36,-49,-7,-48,-2,-4,-5,-16
590,-19,1,5,21,23,2,6,-22
595,32,2,-14,-28,-34,-7,-6,40
600,-41,-3,3,12,6,-2,-2,-29
605,-11,-9,-7,29,8,-2,-6,-34
610,-2,-6,3,22,21,5,3,34
615,2,-1,1,-33,-15,0,1,-8
620,13,-38,-15,-3,-11,-7,-6,-16
625,18,17,0,46,20,8,10,6
630,-32,7,-4,-108,-27,-6,-9,-28
635,-25,0,8,37,15,5,8,17
640,28,12,12,79,16,-2,-4,-21
645,-16,22,-4,-20,-10,0,4,17
650,5,-36,-17,-21,-11,-3,-4,-17
655,-3,6,8,14,16,-3,-12,14
660,71,5,-8,-42,-6,3,10,6
665,-28,-26,-5,46,0,-1,1,4
670,49,14,-2,-55,-9,1,1,1
675,2,7,-1,7,8,-3,-9,-25
680,-14,-27,9,3,2,1,3,-23
685,-34,10,15,24,1,5,1,-1
690,19,6,-9,34,-3,0,0,36
695,9,-6,-1,-10,-2,0,-2,-46
700,-6,18,-4,52,0,-5,-4,36
705,-4,17,10,-57,-26,-9,-8,-6
710,-52,-28,-6,33,5,6,10,-7
715,17,25,7,55,33,1,-1,10
720,9,11,-6,-53,-22,-1,1,-14
725,14,2,-2,10,-2,1,-1,2
730,27,0,7,20,21,-1,-3,0
735,7,17,7,-31,-25,-8,-2,10
740,-15,-17,-10,-46,-15,-1,-4,-10
745,14,38,3,46,17,1,11,9
750,1,-14,-14,-92,-27,-2,2,2
755,3,0,5,22,4,2,2,1
760,0,-9,0,55,2,-10,-14,-17
765,31,2,-5,-52,-8,2,6,6
770,-22,21,14,53,32,5,0,0
775,14,0,-2,54,-12,-3,3,7
780,-17,5,-1,-90,-17,-4,-4,-5
785,18,-8,0,8,-5,0,-5,-14
790,-5,7,3,15,13,1,2,3
795,-1,4,-8,-37,-15,0,-3,-18
800,34,-14,-19,-66,-12,0,-1,2
805,-9,0,1,-4,19,-2,-5,-4
810,11,0,0,38,-18,-7,-4,-13
815,7,-13,-7,-47,-19,-2,-1,-2
820,-30,12,11,101,22,-2,0,-10
825,25,-1,-8,-74,-21,-3,-4,11
830,-9,-5,4,29,9,4,-1,-22
835,29,18,-10,5,-1,-2,-1,21
840,11,-55,2,21,13,-1,-1,-3
845,-13,-29,-1,-13,-8,-1,0,-6
850,-20,-1,0,56,8,-6,-3,10
855,24,-14,-6,-37,-5,1,4,4
860,-34,15,7,-10,-3,2,1,-2
865,-18,8,0,57,-4,-8,-7,2
870,3,-8,2,-15,2,-1,2,-16
875,-17,-19,-17,-78,0,7,3,17
880,5,-9,-3,97,10,-9,-8,-21
885,-9,-6,3,-95,-1,4,6,6
890,17,11,-5,-12,1,0,-3,-3
895,-52,15,0,-9,2,-8,-6,-6
900,28,-26,5,18,8,5,3,4
905,10,28,-4,-12,-6,0,-1,2
910,10,-4,5,43,11,0,2,11
915,-15,-25,5,14,13,5,1,-5
920,1,23,-12,-91,-16,2,9,6
925,-23,33,9,119,18,-7,-10,-22
930,4,-1,-5,-68,-11,4,-3,12
935,17,1,-9,-19,-10,-2,5,17
940,-27,13,8,68,35,1,-5,-3
945,10,-11,-4,-53,-8,0,1,-8
950,42,-11,-2,-3,-15,-3,6,-3
955,-19,33,18,85,22,3,-6,-21
960,24,26,-13,-87,-35,1,5,21
965,25,-12,0,33,10,-6,-7,5
970,-23,11,-9,7,-15,-5,-5,-7
975,17,-20,2,12,14,4,0,1
980,-25,1,15,12,5,2,-1,-10
985,35,-2,-3,19,-7,-1,1,8
990,-8,10,-6,-38,-16,-4,-1,-7
995,6,2,2,57,7,2,2,3
1000,-8,6,-7,0,-14,-5,-5,-15
1005,-12,-9,-5,24,5,4,8,31
1010,-16,1,16,-34,4,-5,-5,-1
1015,3,15,-28,24,-13,-7,-4,-5
1020,12,-7,7,20,5,-1,-3,-6
1025,-50,-29,-16,-92,-6,1,1,-8
1030,0,8,3,43,-2,0,-1,5
1035,0,16,11,-18,-4,-2,-4,-11
1040,7,8,-10,-36,0,0,1,3
1045,18,15,11,-4,-1,6,4,-1
1050,-25,-31,-14,11,-4,-6,-5,-8
1055,-19,-15,-6,21,17,0,-3,-4
1060,-4,2,-3,-18,-1,0,-4,5
1065,25,4,5,-8,-8,-2,6,-2
1070,9,3,6,14,11,7,9,13
1075,-12,-20,-13,-58,-17,0,4,-1
1080,33,18,10,55,19,-2,-4,-2
1085,-50,-17,1,29,5,0,-7,6
1090,4,-4,-11,-16,-23,-4,-5,-8
1095,-14,-10,4,46,24,4,1,3
1100,10,19,-8,-27,-7,0,2,1
1105,-32,-2,1,-38,-9,-4,-1,14
1110,15,9,0,-28,9,2,1,14
1115,4,-16,2,10,-13,2,0,0
1120,-32,-13,-7,-8,-7,-6,-5,-16
1125,-26,12,-4,24,13,4,2,-12
1130,2,-17,5,10,0,-1,-5,-6
1135,-9,-1,-2,-22,-20,-8,-6,-1
1140,-6,-1,5,36,21,6,7,7
1145,-5,-47,-12,-27,-16,-2,-3,-1
1150,22,5,-3,29,15,-3,-2,-1
1155,4,-9,6,-6,-2,-1,-1,0
1160,-4,6,-5,-74,-20,-3,-1,-4
1165,28,-9,8,48,15,-3,-4,3
1170,-2,9,-3,11,-2,1,-1,-21
1175,17,-27,12,29,10,1,2,10
1180,12,9,-20,-66,-7,-2,-1,14
1185,10,7,3,4,-11,3,4,8
1190,3,13,1,-16,-2,-5,-3,2
1195,-11,7,-7,-18,-10,-4,-4,-38
1200,-52,-27,4,21,7,5,-3,-4
1205,48,21,18,94,48,12,8,5
1210,-1,-20,-30,-77,-60,-13,-7,-6
1215,-20,22,-3,33,12,0,1,6
1220,4,-35,9,55,3,-3,-2,-5
1225,-8,20,-2,9,2,-1,-4,-1
1230,13,11,19,81,32,10,4,6
1235,6,0,-8,-128,-26,-8,-5,0
1240,-4,-8,-13,44,-5,-1,3,11
1245,-17,13,7,-9,-2,2,2,-4
1250,-4,-3,0,-24,5,1,3,-2
1255,25,0,6,29,-5,0,0,6
1260,-19,2,24,95,35,-1,-2,-8
1265,-30,-13,-31,-117,-30,-11,-8,-8
1270,-3,5,1,18,-5,2,3,-8
1275,-33,-8,-8,-24,8,5,-3,6
1280,0,-9,1,-46,-6,1,6,12
1285,-24,3,-6,33,-5,-7,-7,-19
1290,-19,-10,-2,11,11,-2,-6,-5
1295,-5,-14,12,7,-11,4,5,12
1300,-5,67,-14,-64,-29,-10,-8,-7
1305,17,3,11,28,3,1,-1,2
1310,-11,5,-6,-18,4,1,2,15
1315,52,13,17,79,27,3,2,-7
1320,22,21,-8,-68,-7,1,0,7
1325,-74,-24,-16,-19,-15,-7,-6,-7
1330,-1,13,10,54,-13,1,-1,-1
1335,-12,3,1,-17,-1,-6,-3,1
1340,27,-22,-15,1,6,2,-3,-16
1345,39,33,12,-6,-4,0,4,-27
1350,-14,-5,5,4,16,4,7,62
1355,-28,-21,-5,15,-1,-1,-2,-4
1360,41,-38,6,1,0,1,-3,9
1365,8,6,-4,-18,-2,-2,0,-5
1370,6,-18,-2,-7,4,1,-2,-17
1375,-11,7,-4,4,6,-2,-5,-12
1380,-14,32,9,42,3,-2,2,4
1385,15,-11,9,42,13,7,3,11
1390,57,-5,-7,-18,-3,-2,0,-9
1395,5,11,4,13,1,1,2,4
1400,-38,-2,-4,-22,13,1,-3,-8
1405,9,-8,-1,-14,-18,-4,0,9
1410,-8,7,-5,-56,-17,-3,-3,-14
1415,10,6,0,16,6,-1,1,4
1420,-3,-13,10,29,-9,-2,-4,-4
1425,29,6,-4,-8,3,2,1,18
1430,-11,-2,-10,-26,-17,-6,3,-21
1435,-23,13,4,55,14,-2,-8,36
1440,0,-25,1,-15,-23,-1,8,-3
1445,33,22,2,-4,5,2,-3,4
1450,1,30,-1,-6,0,0,1,-1
1455,-2,-34,-6,-16,-5,-3,-2,-9
1460,-20,0,-8,7,14,2,-2,-2
1465,30,-1,5,-12,-27,-4,2,14
1470,-45,-2,7,40,13,1,-1,3
1475,7,-1,-19,-82,-5,-4,-2,-12
1480,17,-4,13,78,8,3,0,5
1485,-50,-30,-10,-1,1,0,-3,-12
1490,-5,4,-13,0,-3,-3,-5,-1
1495,26,13,-1,-45,4,3,0,-2
1500,36,0,1,-2,-9,-3,6,4
1505,-35,-5,-1,10,14,2,-2,-8
1510,12,-11,6,21,3,-1,-2,3
1515,-52,-12,-2,3,2,1,-1,-11
1520,27,61,-2,-2,1,-3,-4,-12
1525,47,1,10,-5,4,2,1,1
1530,-48,-23,-16,-11,9,1,-4,4
1535,31,12,7,2,-17,0,6,-23
1540,0,-2,1,-18,-2,-2,-7,23
1545,-2,0,6,80,16,0,-2,-3
1550,3,2,-10,-34,-3,-3,-5,-11
1555,-14,-6,-5,-41,-21,-2,-1,2
1560,1,-18,4,19,-6,-2,-1,-7
1565,13,4,-6,-10,19,5,5,4
1570,44,20,0,26,-15,-10,-6,-10
1575,-2,-5,5,64,16,-2,-3,3
1580,-17,-15,-7,9,-14,-1,0,-7
1585,-23,7,-3,-13,-4,-4,-7,0
1590,-55,-10,10,-12,5,7,6,4
1595,12,44,-5,-24,-15,-3,1,2
1600,3,-5,3,-9,3,2,2,-10
1605,-10,0,-13,-37,-13,-5,-6,-4
1610,3,-11,7,73,13,-3,-3,0
1615,12,6,2,17,-1,-1,-3,-6
1620,-27,-19,-8,-57,0,4,3,-18
1625,8,9,-35,-47,-17,-5,-2,37
1630,7,9,8,20,3,-1,-1,1
1635,6,-19,-1,12,13,0,1,4
1640,19,23,-7,-75,6,-4,-9,-5
1645,26,-17,-6,43,-19,-3,2,-16
1650,27,5,-10,-89,-6,0,-1,-9
1655,3,1,6,26,-2,0,-2,9
1660,-32,9,1,87,-3,-3,0,-7
1665,-14,-13,15,-27,5,-4,-4,-4
1670,-10,-7,-3,-46,-3,2,0,11
1675,15,4,-6,10,-8,0,-3,-20
1680,53,-5,10,36,17,-1,0,7
1685,-81,-31,-5,-57,-10,-3,-3,-4
1690,21,-35,2,6,15,1,2,-1
1695,-17,55,0,-4,3,-3,-3,1
1700,3,-2,20,60,-8,0,1,7
1705,9,10,-4,-14,-3,4,2,-2
1710,-20,-19,1,-51,-7,5,3,-6
1715,-17,-29,-3,77,15,-10,-8,8
1720,-14,-3,1,-24,-3,5,3,5
1725,37,14,-1,-47,-6,0,-1,-4
1730,-59,-33,3,44,5,-3,-7,-9
1735,42,-9,-4,-34,2,5,2,4
1740,-25,-6,-10,-9,-5,-2,-1,-2
1745,-3,-18,17,74,13,2,6,-16
1750,41,9,-13,-9,-5,-4,-3,33
1755,14,-1,-5,17,-6,-2,1,5
1760,-11,-42,-10,-30,4,-3,-5,-4
1765,-8,14,5,16,11,2,2,-2
1770,19,33,7,35,-3,-2,-3,-12
1775,-15,5,2,-10,8,2,1,1
1780,47,-7,-9,-51,-17,2,2,12
1785,-48,33,0,7,-4,-7,-8,-15
1790,4,2,10,26,-7,2,1,-3
1795,21,22,4,0,-4,4,0,7
1800,14,8,-5,-60,-5,2,2,-1
1805,-22,-20,-6,49,-5,-8,-2,2
1810,5,-13,1,-12,2,-3,-8,-17
1815,0,55,0,-17,24,10,12,23
1820,-28,-31,2,50,-24,-15,-10,-7
1825,28,-1,-1,11,8,5,4,4
1830,-5,-31,-2,-23,12,6,1,-7
1835,-26,4,0,-40,-37,-8,-1,-1
1840,36,12,-3,26,17,5,-1,-6
1845,-16,-11,-1,29,0,-4,-11,-4
1850,-8,24,-11,11,-5,-3,-5,-36
1855,10,-14,-1,-104,-10,-2,-4,-2
1860,4,12,-8,-85,-20,-3,1,3
1865,11,11,22,79,26,0,-4,8
1870,1,18,-12,-1,7,1,-1,-7
1875,10,-20,-9,-17,-12,-4,9,19
1880,-15,-6,-4,1,-3,0,0,-6
1885,27,0,3,-59,8,5,0,-1
1890,-12,22,9,15,-1,-2,-3,1
1895,16,-47,4,11,-8,-4,-11,-21
1900,-94,20,0,97,10,-7,-1,1
1905,11,-1,0,-23,-6,3,5,5
1910,41,-7,-6,12,12,2,3,10
1915,-37,37,0,49,13,4,0,-6
1920,76,-33,5,-69,-8,2,0,8
1925,21,-7,-3,-58,-7,-11,-8,-8
1930,-76,-28,7,53,-22,-4,-1,4
1935,14,28,-12,-74,-3,0,-3,4
1940,-1,36,8,85,28,7,4,-12
1945,-41,-8,-2,-64,2,2,0,2
1950,30,-5,-3,59,-31,-4,4,6
1955,50,-25,20,75,11,-2,-2,28
1960,-33,-8,-5,-5,-12,-7,-3,-7
1965,13,0,8,32,1,3,6,-13
1970,22,12,4,2,22,-1,-5,5
1975,-36,0,0,21,9,5,4,-29
1980,-3,-25,-3,0,-5,1,5,-4
1985,-14,-34,-9,30,-6,-2,-6,29
1990,-27,-15,5,-11,6,-1,5,5
1995,47,0,-6,-62,-10,0,-1,-4
2000,-8,19,16,28,15,-3,-7,-15
2005,10,-9,-26,-15,-3,1,2,20
2010,26,7,16,-9,-7,1,-3,3
2015,-92,-41,0,-18,5,-4,-4,-5
2020,-8,6,-17,9,-26,-7,-4,-8
2025,54,19,2,22,-2,7,3,-3
2030,11,35,11,-22,-1,-8,-5,-1
2035,12,-24,-3,41,19,4,3,0
2040,-15,46,-18,-109,-43,-10,-7,5
2045,-2,-9,-6,7,2,2,6,-6
2050,4,8,5,32,2,-1,-3,6
2055,-32,-18,6,-30,10,6,8,-14
2060,-19,-13,15,47,-6,-1,0,5
2065,40,-40,-27,-44,-9,-5,-4,13
2070,-17,27,8,-49,-13,2,1,-13
2075,9,-5,-16,85,17,-5,-8,12
2080,-19,-18,-11,-5,4,0,-3,7
2085,-11,13,-11,-48,-15,-3,3,-5
2090,15,-30,6,32,6,-2,0,-3
2095,-23,32,-7,-33,-6,-1,-6,-15
2100,0,-37,5,-6,-11,2,-6,3
2105,8,13,14,84,19,0,9,-4
2110,2,5,-29,-57,3,-4,-4,-4
2115,-16,-32,0,-29,-16,-1,-4,-6
2120,5,5,-2,27,14,4,5,-7
2125,1,2,6,-19,-1,-6,-11,-19
2130,7,-40,-7,55,3,1,2,25
2135,1,17,6,-21,-8,9,8,9
2140,0,-37,-14,2,27,-1,-2,0
2145,15,64,33,66,4,-5,-4,-7
2150,-25,8,-3,-57,-11,-3,-6,-20
2155,22,-17,2,69,-2,-7,-4,-1
2160,21,17,4,-6,18,11,6,10
2165,-45,-7,-14,-37,-19,-1,0,-23
2170,33,8,4,-63,15,2,1,11
2175,-5,4,3,-18,-15,-13,-13,1
2180,-10,21,5,13,6,-3,3,0
2185,1,15,-10,-36,-9,7,4,2
2190,16,2,-6,38,0,4,9,22
2195,-13,-13,-6,-26,-10,1,6,-9
2200,54,-1,7,39,17,-8,-7,6
2205,29,69,23,-9,0,-5,-9,-12
2210,-59,-80,-44,-24,-13,0,2,-2
2215,24,-1,4,22,7,11,5,-6
2220,0,1,3,-39,-14,0,4,6
2225,6,7,0,31,23,-3,-2,2
2230,1,10,9,67,3,-4,-7,-9
2235,20,-16,-4,-37,-22,-7,-3,5
2240,-63,-5,3,21,-7,0,0,-8
2245,-33,-33,-24,-52,-10,-1,-1,10
2250,3,17,9,-10,1,-2,1,-8
2255,-29,-14,-3,6,8,0,-3,-8
2260,21,-17,5,-35,0,6,4,16
2265,-22,-10,0,29,-2,-5,-7,13
2270,-8,23,3,36,-3,0,8,4
2275,36,22,-4,2,6,-6,-1,9
2280,39,28,-5,-21,-1,2,-1,-17
2285,-51,-83,-2,16,-4,1,-2,-3
2290,0,17,6,26,17,8,2,0
2295,-7,-3,-11,-11,-6,-11,-6,-3
2300,32,9,0,8,-10,-3,2,5
2305,-48,10,4,-10,10,3,2,-3
2310,21,-3,6,9,-2,-1,-2,0
2315,-20,-13,4,2,-12,-6,-9,-22
2320,-1,-10,2,20,18,3,-2,21
2325,9,-7,-4,-23,-15,0,11,10
2330,17,42,12,-61,4,-1,-2,-3
2335,-26,-4,-15,13,-8,-2,2,9
2340,17,8,1,11,5,-1,-6,-13
2345,42,23,3,-2,-5,-1,1,4
2350,-3,0,-5,-40,-4,4,3,3
2355,12,15,5,61,2,-4,-3,-11
2360,-11,-29,-2,-18,-5,-9,-5,-9
2365,3,-5,-4,-11,-2,0,-3,-24
2370,19,-7,-7,-35,4,3,2,22
2375,-34,4,11,20,5,1,-4,-6
2380,-32,-2,-2,10,0,0,1,-2
2385,29,6,0,19,-16,-14,-3,30
2390,-34,-29,-8,-11,-3,-1,-4,-11
2395,60,-23,3,-18,19,16,13,11
2400,-6,8,-7,10,-15,-3,-7,-10
2405,-18,-11,4,8,12,-2,-4,-12
2410,5,-3,-4,-38,-11,-5,-3,-16
2415,-18,35,-6,-30,0,-6,-5,7
2420,4,-13,-5,16,7,-1,-2,-1
2425,-1,-17,-2,12,-5,4,5,0
2430,-4,10,1,17,6,-2,-3,-7
2435,9,-14,7,47,-4,4,-3,-18
2440,-27,3,-18,-101,-32,-10,-3,17
2445,15,6,4,19,10,5,13,17
2450,-2,8,4,25,3,2,-5,-7
2455,14,13,-4,-1,13,3,-1,21
2460,20,-10,3,8,2,3,0,-1
2465,-42,-13,7,41,0,-6,-2,-4
2470,-3,-8,-12,24,-4,-8,-4,0
2475,-5,11,4,-5,7,-1,1,3
2480,-10,14,-5,17,0,2,0,-2
2485,52,-18,-10,-61,-15,1,-4,-12
2490,-39,0,8,69,12,1,-1,2
2495,-30,-36,10,-34,-8,-2,-1,-5
2500,-5,50,-2,31,-5,-6,-4,-7
2505,6,-7,-5,5,17,-2,-18,-12
2510,6,-2,4,53,-8,-3,15,26
2515,12,-15,5,-49,-9,4,3,3
2520,-3,-16,3,11,17,3,2,-6
2525,-3,8,-11,-32,-12,-1,-2,2
2530,-8,4,9,33,21,2,-5,-16
2535,13,21,-14,-33,-23,-6,0,-2
2540,-7,-10,10,18,15,2,3,8
2545,-9,57,-5,41,-4,-4,-7,-15
2550,38,-11,-1,-45,-8,-3,-5,0
2555,-32,3,2,19,2,-2,1,-5
2560,-4,-3,-2,-4,9,5,1,-2
2565,6,-7,-3,-6,1,2,3,3
2570,-5,15,3,-3,-10,0,-3,6
2575,3,-5,-15,-25,-6,-4,-6,-2
2580,37,2,-4,20,8,-3,5,-10
2585,-7,-3,2,-8,-19,-3,-5,-10
2590,0,-7,-3,-51,-5,2,3,18
2595,6,-7,16,45,14,7,11,-10
2600,-18,-13,-9,-50,-9,-8,-6,17
2605,29,24,5,42,16,1,2,-1
2610,9,-36,-19,-23,2,-1,-5,-18
2615,11,27,14,49,-12,-2,-3,28
2620,46,20,-1,-114,-16,3,7,1
2625,13,-10,-15,39,-1,-1,1,5
2630,-15,4,6,22,1,1,-1,-10
2635,-19,-5,-5,23,17,-2,-2,-7
2640,-2,-18,-8,6,-1,0,-4,17
2645,-20,-10,7,-5,-4,-4,-1,-16
2650,-4,3,-2,-24,-4,0,-8,-15
2655,1,-19,-10,-15,-15,-3,12,3
2660,-45,2,2,27,9,1,-3,-17
2665,-32,15,14,22,20,5,-5,15
2670,-24,-58,-19,-28,-16,-10,-4,-19
2675,26,10,10,-7,2,3,-7,-10
2680,-46,-3,-2,24,2,-1,-1,-9
2685,30,10,-3,-16,-2,2,1,3
2690,12,5,2,-2,1,-6,-4,-6
2695,14,-19,-7,13,1,-3,-6,3
2700,-18,1,5,-2,-8,-2,-1,8
2705,-14,-17,5,12,3,-3,3,-25
2710,16,25,1,9,-6,-1,7,29
2715,-12,-40,-8,-13,4,-6,-6,-6
2720,-33,28,1,18,18,14,5,2
2725,18,-4,-4,-54,-43,-2,0,11
2730,-9,-6,-11,-10,17,-3,-4,-9
2735,4,29,3,22,-14,-6,-5,-4
2740,-4,-8,10,68,17,-3,-3,1
2745,-9,-15,-7,4,13,3,7,7
2750,2,23,4,-32,-21,0,-4,0
2755,0,7,1,20,13,1,0,3
2760,24,2,-8,-49,-22,-2,0,-4
2765,-3,-19,2,-13,12,-2,-4,-1
2770,26,0,5,9,-5,3,3,9
2775,-23,-6,-10,-6,14,-4,-7,-7
2780,-35,-17,4,-16,-28,-10,-7,-21
2785,2,-8,-3,5,11,2,7,8
2790,-9,3,-4,24,9,5,0,9
2795,-19,1,-4,-46,-32,-7,-1,-6
2800,20,-10,-7,14,3,-2,-3,-5
2805,4,1,7,17,10,3,-7,3
2810,-2,3,8,14,4,0,-1,6
2815,-26,12,0,2,-2,4,-4,-15
2820,12,19,5,-21,-1,1,19,27
2825,39,-28,-4,55,6,-4,1,-4
2830,-13,-11,-8,-54,-27,-5,-2,2
2835,-1,-1,-3,19,17,0,-9,-26
2840,42,-14,5,14,-12,-10,-10,13
2845,-18,12,-5,-18,10,6,-1,1
2850,-22,-12,-6,9,6,3,15,-11
2855,28,1,1,-8,5,6,5,11
2860,31,1,-1,-17,3,2,-4,-10
2865,-59,-2,7,21,-11,-8,-5,-6
2870,3,6,0,33,-4,-9,-15,-28
2875,0,-10,-4,-36,-6,0,6,11
2880,29,2,-4,7,14,8,8,12
2885,2,4,9,-17,-4,-3,5,7
2890,5,14,10,61,12,3,-11,-8
2895,-8,-5,-5,-38,12,-5,-14,1
2900,-38,-11,-14,0,-16,-8,-10,27
2905,19,4,-5,-43,-1,6,43,13
2910,21,-5,2,21,10,3,-9,15
2915,1,-20,-7,-51,-10,3,5,-2
2920,-18,-2,6,26,15,-8,-23,-22
2925,16,18,1,-1,7,-9,-29,-34
2930,58,-60,-19,-25,-25,7,33,29
2935,-33,20,14,78,19,-1,-6,13
2940,-16,4,7,13,10,9,8,-9
2945,23,-21,-16,-55,-37,-16,-18,-12
2950,-11,19,26,83,24,-1,-5,-13
2955,-2,-2,-17,-26,-10,-5,-13,-7
2960,19,-1,9,-8,-26,3,16,13
2965,-14,9,-4,4,10,5,7,2
2970,-21,17,0,-36,-1,4,13,20
2975,20,2,21,34,11,4,3,8
2980,-2,-3,-36,-4,0,-5,-8,-21
2985,-10,-6,-10,-30,-21,-6,-7,4
2990,28,1,1,-12,18,0,-4,-6
2995,-27,1,-3,-6,-25,1,9,3
3000,13,1,3,4,15,6,-3,-15
3005,8,2,11,60,9,6,1,3
3010,-10,2,-5,-13,-4,-9,-10,-9
3015,5,-5,-7,-1,-1,-3,1,2
3020,-9,-3,-2,-17,4,-1,-20,-4
3025,4,9,-5,33,-26,8,39,20
3030,-9,9,6,-39,8,-9,-7,-9
3035,9,-10,-31,47,-4,-1,-5,-5
3040,3,0,9,-17,0,-1,-14,-5
3045,-10,0,1,15,13,-4,-10,6
3050,1,16,1,36,0,9,30,-18
3055,1,-2,3,-37,-20,0,4,66
3060,1,-44,-4,6,0,-2,12,-36
3065,-25,-6,-5,-5,15,0,-30,-17
3070,-6,7,-5,-23,-25,-6,2,5
3075,30,1,-2,-30,-8,-5,-7,-15
3080,-9,8,6,40,13,1,2,4
3085,40,2,12,-17,-7,-2,-14,7
3090,-20,-4,-9,-11,8,0,-8,-5
3095,0,-1,-2,14,12,4,3,-18
3100,13,5,6,5,-30,-6,4,14
3105,-37,1,-8,-47,8,1,13,-6
3110,-17,-4,8,34,6,2,-10,9
3115,0,-1,-3,-10,-1,-1,2,-15
3120,-3,4,5,12,4,-4,-5,-8
3125,-9,0,-1,13,13,5,-2,8
3130,-23,-9,-10,0,-16,-1,1,3
3135,41,11,17,52,2,-6,-4,-5
3140,-22,-2,-5,-89,-11,-1,7,1
3145,31,2,5,8,1,-2,-18,-14
3150,-7,5,0,-51,-14,-10,-24,26
3155,-21,-26,-17,13,6,-8,8,-39
3160,39,22,17,-3,6,16,31,36
3165,23,35,-36,-70,-15,5,19,-6
3170,7,-26,26,72,21,5,-9,-6
3175,-9,2,-2,-90,-21,-9,-12,-1
3180,-1,-10,-2,25,3,-12,-19,-24
3185,-20,-12,-3,-35,-8,-2,1,2
3190,0,7,0,21,-1,0,-3,-9
3195,17,6,4,-30,0,2,2,-1
3200,-17,-3,-2,112,20,-2,-8,-10
3205,-8,-17,-5,-23,-21,-8,-7,-1
3210,3,8,-14,-39,-4,-1,6,0
3215,-31,-7,19,98,21,13,3,-3
3220,-6,-10,-39,-128,-25,-5,-3,14
3225,-18,-5,7,93,23,-2,-2,2
3230,2,-2,0,16,-9,-6,-1,-4
3235,-11,27,7,-46,5,13,6,-15
3240,98,4,-14,45,1,2,7,31
3245,3,15,9,4,0,-7,-6,-14
3250,-17,-12,-4,6,2,-1,-10,-12
3255,17,18,1,44,29,5,17,10
3260,6,-19,13,8,-34,-13,-12,-16
3265,8,-7,5,12,5,6,8,12
3270,0,9,-7,-40,4,3,-6,-20
3275,-4,1,-10,-28,-13,-6,10,29
3280,-13,18,-3,-37,-2,-4,-14,8
3285,12,-49,20,34,20,2,29,0
3290,11,18,-12,-29,-24,4,3,44
3295,-39,-12,10,28,7,0,-2,8
3300,-17,8,6,6,17,5,6,-6
3305,-25,-3,-9,-11,-11,-8,-21,-12
3310,6,1,-6,36,7,-4,0,-5
3315,26,-10,-2,-33,-23,-10,-22,-6
3320,-28,-6,10,37,15,8,25,5
3325,2,24,11,54,18,6,0,10
3330,-1,-16,-30,-97,-13,-6,-1,-15
3335,-6,-1,-14,2,-27,-11,-10,1
3340,-27,2,9,44,13,-1,-5,-22
3345,33,-25,-5,6,-1,0,-6,5
3350,14,5,13,35,-1,-5,-4,-11
3355,-38,-18,-25,-41,3,-5,-4,-13
3360,3,4,4,-21,-14,-1,1,6
3365,-47,-8,-2,-75,-2,5,-2,4
3370,-1,1,13,14,7,-4,-6,-15
3375,-2,-11,16,23,-5,-1,2,-17
3380,28,6,-5,41,6,2,-1,9
3385,15,22,3,-30,-14,-1,-15,-1
3390,5,-22,-17,-7,-2,-4,48,-20
3395,59,12,20,72,37,4,-23,1
3400,-12,3,-10,-35,-40,-13,-13,-9
3405,10,-1,-17,-17,-5,-2,4,3
3410,-2,5,16,20,14,2,-22,-4
3415,5,1,-2,26,-17,0,10,-5
3420,0,2,18,-79,31,8,7,-5
3425,-16,-4,-31,31,-17,-15,-17,-15
3430,-3,3,17,50,5,0,-1,5
3435,-7,3,3,-10,8,-2,4,17
3440,-13,-1,-2,25,27,16,-3,-10
3445,-7,11,15,-37,-27,2,23,30
3450,-6,17,-20,-14,-29,-4,-9,-9
3455,57,14,14,-7,-2,-7,15,-1
3460,-39,-37,-23,-8,-5,-12,-35,-10
3465,24,-1,-11,16,27,7,21,-13
3470,-35,-10,0,10,-8,-1,1,19
3475,0,25,7,-9,-8,9,-21,-9
3480,17,3,8,48,-9,-8,3,-2
3485,1,-2,3,34,4,-7,15,-21
3490,8,6,16,-26,-6,-4,-17,16
3495,-18,-13,-3,29,11,0,1,-6
3500,-24,2,4,31,7,13,9,-24
3505,4,1,-8,-72,-6,2,-16,16
3510,67,23,4,18,15,1,9,0
3515,-69,-31,1,16,-1,-3,8,-4
3520,63,31,-3,29,4,0,6,24
3525,-11,-3,-4,-50,-9,-1,1,-4
3530,7,-4,9,16,10,-1,-3,1
3535,-5,3,0,30,3,3,-8,-16
3540,-21,-8,-14,-40,-22,1,9,9
3545,7,0,11,-42,-5,-6,-16,-13
3550,-25,-10,-14,55,31,3,-7,16
3555,-1,-8,-25,-67,-43,-12,-25,-1
3560,-9,1,17,60,35,15,50,33
3565,-2,5,4,23,-14,5,-10,1
3570,22,-21,-14,-63,-12,2,1,-6
3575,7,0,-12,19,35,1,-14,1
3580,-16,-2,-33,-63,-52,-19,-12,-31
3585,-10,-4,-3,-3,0,-3,-5,-2
3590,2,24,16,29,8,9,23,6
3595,16,21,10,8,8,6,16,14
3600,4,-6,10,5,11,-1,-17,-5
3605,-8,9,8,58,10,-2,-4,-11
3610,-35,-8,-24,-58,-19,-6,-18,2
3615,4,-13,-12,-21,-30,-14,-4,7
3620,-33,8,8,53,12,4,33,25
3625,20,-10,0,15,12,5,-6,8
3630,9,1,3,68,2,-5,-2,1
3635,-14,-11,-6,33,-13,-5,-6,-9
3640,-7,-12,0,-15,6,1,-26,12
3645,-4,0,12,39,-9,2,38,-23
3650,-19,-9,-31,-19,12,2,1,-2
3655,4,-8,-11,-44,-1,1,-4,6
3660,-14,-6,23,67,2,-9,-10,-26
3665,-8,4,-7,-4,1,1,-37,-10
3670,33,7,14,-17,-12,-2,29,21
3675,-41,-25,-2,26,12,11,26,22
3680,1,2,-8,-24,-15,-4,-29,-13
3685,-17,-5,-1,-53,-10,-6,11,17
3690,-21,-6,18,9,4,2,-10,-16
3695,2,-13,-8,23,-8,-9,-2,-6
3700,8,-10,-2,-55,4,3,7,-24
3705,-37,3,7,-14,11,-7,-19,4
3710,7,2,19,59,17,6,0,-6
3715,-4,6,3,-58,-25,-4,-1,-24
3720,-4,-8,-39,-19,-22,-8,-5,4
3725,-1,0,18,109,18,-5,-5,-5
3730,-12,-2,-15,-29,8,0,0,-31
3735,18,9,-4,18,6,9,15,-2
3740,39,-8,0,-4,4,6,0,-14
3745,-13,17,-1,-37,2,2,19,24
3750,-9,-9,-23,-69,-30,-13,-23,-16
3755,-21,6,17,36,29,4,-10,-6
3760,32,-1,-4,-47,-16,-5,7,-10
3765,-1,-3,-8,72,10,5,3,32
3770,-20,-4,14,2,12,1,-6,2
3775,9,10,-1,-37,-5,-2,6,8
3780,-16,-2,20,45,15,-2,-4,-6
3785,0,-2,7,11,1,-1,-7,-23
3790,58,22,-8,-20,-20,-4,7,5
3795,23,-12,12,34,24,9,11,13
3800,-40,2,-19,-97,-21,-5,-35,-9
3805,25,-11,-9,5,2,-6,33,3
3810,-14,7,17,14,-2,3,6,7
3815,6,9,-25,20,0,0,-7,-12
3820,8,1,19,64,16,-3,1,13
3825,25,1,-8,-88,1,3,-12,-2
3830,-27,-12,-1,51,-15,-1,-4,-7
3835,3,-6,15,-56,8,-2,0,10
3840,-47,-63,0,-8,-4,0,13,-27
3845,-29,21,-18,-11,8,8,-5,3
3850,26,20,4,41,5,4,6,9
3855,-7,-2,8,50,-22,-8,-9,-3
3860,18,14,9,-74,16,-4,0,2
3865,-15,-15,-13,-14,-27,-6,-15,-33
3870,56,12,33,32,4,-3,5,26
3875,-46,8,-19,-31,-15,-4,-8,-7
3880,2,5,-21,20,25,4,7,-12
3885,59,2,22,123,19,5,7,33
3890,0,10,-17,-84,-6,-2,-15,-7
3895,37,1,2,30,-26,-11,-6,-11
3900,4,0,-1,-35,-9,0,10,27
3905,-37,-11,-20,-31,-14,-5,-10,-18
3910,-4,-5,15,47,21,4,1,-6
3915,-40,-8,-5,-9,-14,-7,-2,-4
3920,2,13,2,71,9,-1,12,-11
3925,34,-4,8,3,-8,7,-1,1
3930,-29,16,-40,-3,11,-1,-2,6
3935,10,13,6,-46,3,5,10,1
3940,-13,7,-3,43,-6,-7,-16,3
3945,21,-7,13,-2,-19,-15,-10,-23
3950,-24,-16,-7,-12,-7,3,8,11
3955,54,-13,-7,-3,17,4,-4,4
3960,15,66,-6,-63,-13,2,1,-1
3965,5,8,10,40,28,0,0,32
3970,20,-9,9,-9,-11,-1,-5,-1
3975,-10,-12,5,21,1,-4,0,-7
3980,13,-11,-8,-6,4,3,-7,-23
3985,-33,-3,-4,-34,-25,-5,18,0
3990,-13,37,3,31,6,0,-5,-9
3995,3,-40,7,-51,4,5,6,24
4000,2,-4,10,34,2,-5,1,-10
4005,-26,29,-7,16,4,-1,-14,-6
4010,42,2,8,27,15,9,9,10
4015,-39,39,-21,-104,-36,-7,1,-19
4020,-22,-16,14,110,5,-4,-5,13
4025,1,-15,-24,-42,-8,-3,-1,18
4030,0,-30,-22,-31,-1,-8,-4,-12
4035,0,-1,13,73,20,4,3,5
4040,5,-7,-21,-104,-12,1,3,19
4045,1,-17,8,0,-9,-6,-8,-22
4050,-45,-29,7,32,2,1,3,-11
4055,35,20,-9,-6,1,-3,-5,8
4060,7,52,7,37,-4,3,1,2
4065,3,-8,4,-7,16,2,-2,2
4070,-2,19,-8,-49,-19,-6,-1,5
4075,-8,-30,6,57,35,9,5,0
4080,-6,-30,-4,-102,-45,-11,-3,4
4085,-11,50,0,2,11,2,-7,-47
4090,-27,-35,-9,-3,-17,-9,0,66
4095,-11,2,3,29,13,5,2,-9
4100,4,-26,6,3,3,-3,-4,7
4105,12,38,14,12,7,2,0,-4
4110,-33,-22,8,-59,-24,0,1,-18
4115,0,10,-26,4,3,-3,-2,-27
4120,-22,-24,-2,36,-11,-10,-7,7
4125,-1,46,10,-8,-15,-4,-1,-13
4130,68,9,22,26,20,4,-2,16
4135,-2,3,20,2,12,8,3,-6
4140,-29,2,-6,-3,0,-2,1,-9
4145,-9,-28,-9,-15,-17,-7,-5,12
4150,4,-3,-6,-28,-5,-3,2,-25
4155,0,3,-2,42,10,0,-5,11
4160,-10,-7,-1,-39,-3,3,6,12
4165,20,-24,-10,-5,19,8,5,13
4170,-13,3,5,55,-21,-9,-12,-19
4175,-8,-3,-11,-28,-19,-15,-11,-8
4180,-5,-8,1,25,25,7,8,1
4185,64,-23,2,-40,-9,0,5,12
4190,-21,-2,-14,-6,27,8,2,-15
4195,-13,10,48,109,26,9,6,13
4200,16,-3,-34,-61,-49,-17,-13,-9
4205,-28,-5,-33,42,-18,-9,-7,-4
4210,-3,-4,3,16,22,2,-2,-21
4215,39,26,-18,-62,-39,-3,4,17
4220,-32,-23,1,26,49,16,1,-5
4225,-7,-11,3,32,-30,-13,-5,-2
4230,-19,10,1,-18,5,0,-1,8
4235,5,-6,16,13,5,1,2,-6
4240,25,24,-3,-58,-29,-2,2,-1
4245,-19,-15,10,8,30,6,5,23
4250,-6,-2,-10,3,2,1,-2,-35
4255,1,6,-4,-10,-13,-6,-10,20
4260,11,18,12,39,21,5,12,8
4265,-9,-12,-1,-45,16,8,-1,-22
4270,-24,-11,-9,-30,-46,-17,-9,4
4275,-26,-5,-7,31,7,-2,-2,-28
4280,28,13,14,28,9,7,8,24
4285,13,-6,-18,-18,2,3,-3,9
4290,-20,-6,15,-42,2,-8,-4,-20
4295,7,1,-11,-3,-4,-3,8,-60
4300,-8,24,13,39,-13,-3,-9,3
4305,1,-24,5,-14,6,1,4,7
4310,29,-1,-17,-9,-1,5,-8,-9
4315,-9,-5,10,-4,4,-2,-10,12
4320,19,-1,-4,-20,-7,-3,2,-6
4325,0,0,20,70,30,7,7,-4
4330,-9,4,-9,-28,-29,-6,-4,13
4335,4,-17,-30,2,17,3,3,17
4340,5,-5,-4,4,10,3,2,0
4345,-23,1,-12,-29,-26,-8,-10,-8
4350,8,-6,-1,13,15,5,7,9
4355,1,0,3,-38,-25,-8,1,7
4360,-2,-11,-5,19,12,-3,-15,4
4365,-2,-3,0,4,6,4,9,2
4370,11,8,7,42,9,4,7,5
4375,2,-6,-9,-54,-14,-2,-6,8
4380,-4,-6,-13,-45,2,-2,-5,-4
4385,1,1,8,-34,-7,0,0,-1
4390,7,2,12,49,-9,-2,1,3
4395,-36,0,-1,28,4,-5,-8,2
4400,1,-6,1,-18,1,2,4,-2
4405,1,5,20,92,20,4,3,-1
4410,-10,-3,-14,-50,2,1,-9,-2
4415,42,-7,-18,-41,-8,2,2,9
4420,26,11,14,35,2,-2,23,20
4425,-5,-6,-4,-2,0,1,7,-13
4430,-2,-8,7,26,13,1,-8,11
4435,43,20,14,12,13,8,9,8
4440,-67,-11,13,111,24,1,-15,-21
4445,32,-14,-41,-86,-76,-20,0,7
4450,2,-1,-11,44,0,0,8,-2
4455,-18,-6,-8,-2,0,1,4,-4
4460,7,3,3,27,20,8,-1,13
4465,2,11,18,-24,16,4,-2,1
4470,-2,-13,-29,-19,-17,-10,-8,-15
4475,-22,-2,6,-81,-17,-4,-3,6
4480,6,-3,-4,7,-15,-4,2,-3
4485,-10,1,5,14,12,3,-5,-3
4490,21,7,2,-17,14,8,8,9
4495,-24,-3,17,48,-11,-9,-8,-3
4500,1,-5,-2,-8,-4,-5,-5,-10
4505,24,-2,-2,14,-5,-5,-4,-5
4510,-8,-4,13,-1,11,2,-3,-3
4515,15,9,-9,39,6,-1,-10,-23
4520,26,-18,-16,-110,-20,-2,12,19
4525,-35,-3,6,71,7,-2,-4,-4
4530,-65,7,2,-44,14,2,-21,-25
4535,35,1,15,-10,-18,-5,28,21
4540,66,7,-24,4,1,1,-4,-17
4545,0,4,10,-23,3,2,-1,23
4550,-23,-3,-9,-66,-4,-3,-6,-9
4555,-10,-15,-13,37,7,-2,-6,-20
4560,-6,7,12,12,-1,-3,-5,10
4565,8,1,-3,46,4,4,5,-10
4570,8,7,22,58,5,1,1,-3
4575,-34,-7,-11,-35,-5,-4,3,-2
4580,16,1,-4,13,-14,-4,-9,0
4585,-19,0,-8,-21,2,-6,-3,-4
4590,30,-6,-5,39,-1,-1,2,-22
4595,57,5,3,-18,1,1,-5,23
4600,-11,-11,-13,-67,2,1,-28,-23
4605,39,1,28,61,-4,-1,16,-21
4610,-85,27,-36,-16,-18,-8,9,-3
4615,19,-18,12,-32,-7,1,6,34
4620,-6,1,-28,16,8,3,2,-7
4625,-17,-7,7,-16,1,-3,-16,-25
4630,44,-1,-1,18,-2,6,12,43
4635,-45,3,15,47,13,6,0,-2
4640,-35,22,16,-70,-11,-11,-4,-4
4645,-12,-1,-17,-23,-4,0,5,5
4650,12,-3,25,57,2,0,1,-6
4655,-29,0,-31,-34,6,3,-15,4
4660,-1,-2,33,80,14,0,18,-37
4665,0,-5,-27,-77,-24,-5,-2,25
4670,24,5,26,-30,-4,2,6,21
4675,-17,-11,-13,6,2,0,-3,-6
4680,-6,-3,-3,15,1,0,-5,-4
4685,-21,-8,-14,35,19,4,-14,10
4690,85,29,13,-26,-8,5,17,-44
4695,-6,-11,1,25,-4,-14,-12,68
4700,-5,-7,-12,24,-3,-1,5,13
4705,-15,2,-1,-24,-9,-5,-12,4
4710,46,-15,-20,2,13,8,-15,-24
4715,50,32,-7,6,1,3,40,-31
4720,-41,-39,17,9,7,6,5,6
4725,22,17,-6,-57,-2,-2,-10,3
4730,-37,-14,15,78,-9,-16,-25,-2
4735,20,-8,-6,17,16,3,-33,-33
4740,-58,2,-21,-12,-19,-5,0,35
4745,-7,6,20,19,16,11,53,6
4750,-40,-7,1,39,0,-2,6,10
4755,41,-4,3,-48,-14,-3,12,18
4760,8,11,0,16,15,1,-40,-22
4765,22,9,16,5,-13,-3,-10,-6
4770,0,-20,-32,-65,-8,-6,5,6
4775,-67,2,14,49,17,-1,-24,-32
4780,44,7,-17,-47,-12,0,13,12
4785,-12,-15,-5,18,9,1,1,-10
4790,6,-2,1,65,9,1,0,15
4795,-10,1,53,4,-10,-5,-7,-15
4800,22,2,-4,21,8,0,3,-8
4805,-1,-4,-16,4,-9,-1,3,-1
4810,-9,6,1,-27,-6,2,-19,36
4815,-17,-16,-28,-14,17,11,21,-42
4820,21,24,43,51,-16,-8,35,52
4825,-9,12,-16,-67,-7,1,-19,-1
4830,14,-5,16,67,16,0,-1,-10
4835,-16,-2,-21,2,-10,-4,-18,-20
4840,-14,-14,13,-94,6,1,-33,-23
4845,-3,8,-24,-63,-26,-6,28,28
4850,26,2,3,-4,-2,-2,14,12
4855,1,8,7,45,16,6,-9,8
4860,-42,-34,-16,40,0,-2,10,-41
4865,15,4,18,6,-12,-10,-5,25
4870,7,7,19,-8,4,3,-4,-22
4875,-22,-12,-22,-22,-21,-7,-7,-9
4880,10,9,-7,-26,4,4,-3,32
4885,-55,-21,13,49,18,7,-18,11
4890,-15,27,9,37,7,-3,23,-18
4895,-7,2,5,-4,-6,-4,-7,-17
4900,5,10,12,15,0,5,32,4
4905,13,-3,-45,-64,-9,-7,-12,-18
4910,-14,-15,-9,-65,-7,-3,-17,8
4915,14,-8,-7,56,2,-2,-25,-16
4920,9,15,7,32,10,2,-3,-25
4925,42,1,41,41,2,2,37,34
4930,-36,-17,-52,-72,-31,-14,-30,9
4935,12,10,-2,-2,4,1,34,15
4940,16,-11,-8,20,-1,1,-6,-8
4945,-1,-3,18,-45,-3,-2,-30,-43
4950,15,3,19,79,30,8,-6,-34
4955,43,-5,-4,-64,-30,-4,34,100
4960,27,24,9,118,27,-5,4,3
4965,-68,-16,-44,-44,-15,-6,-26,-29
4970,-11,0,10,40,13,6,17,15
4975,-4,6,-3,-70,-9,3,-7,-10
4980,20,-8,25,53,-2,-4,-16,-22
4985,13,1,3,55,15,-1,-8,27
4990,-20,-11,-3,-71,-11,-2,-2,8
4995,2,19,-3,-17,15,7,32,0
5000,25,2,-15,-13,-25,-11,3,10
5005,-50,-2,7,28,9,3,-11,-32
5010,-26,-4,6,21,-1,0,5,8
5015,20,-3,5,3,20,3,-7,-7
5020,-24,-10,-36,-88,-19,-6,-12,8
5025,79,11,26,17,-3,1,27,9
5030,3,4,-8,-16,5,-2,-4,-42
5035,-23,-15,-3,-42,-15,-8,-21,45
5040,23,0,23,-3,20,7,10,-25
5045,27,-1,-21,-2,4,4,-2,-3
5050,18,-8,-4,-3,-12,-1,-5,-7
5055,-25,6,9,-32,-6,-7,8,-24
5060,-26,-6,-17,-26,-6,-2,-16,-1
5065,-47,-9,4,7,7,2,4,-5
5070,-20,3,16,7,-1,-1,5,-18
5075,-1,-2,-38,52,2,-5,-8,-24
5080,18,-26,4,-37,-13,-1,3,27
5085,-18,29,-7,-18,-6,0,10,-35
5090,33,-1,-19,-43,-2,1,-5,40
5095,5,3,24,22,8,3,-8,0
5100,-34,-2,-10,-28,-13,-8,-3,0
5105,2,-1,19,110,13,3,-27,-7
5110,-38,-19,-16,-89,-14,-4,19,11
5115,16,-8,-24,-3,-6,-3,24,-66
5120,-20,12,5,-18,-1,3,-4,66
5125,-37,-19,-9,21,-1,-7,-19,-12
5130,38,2,5,-13,-1,3,20,0
5135,2,-10,34,92,12,1,-23,-11
5140,-11,-12,-49,-55,-8,-7,0,-34
5145,36,17,27,47,2,-2,-15,10
5150,19,-16,-6,-5,0,-3,0,8
5155,-14,11,-4,-38,-6,2,24,-4
5160,2,14,33,57,13,8,-6,-11
5165,-49,-15,-31,-72,5,-4,-21,8
5170,-15,-4,15,10,-15,-6,-4,-3
5175,15,7,-8,28,5,1,-6,21
5180,23,7,9,15,-1,-1,2,-9
5185,33,4,13,72,16,11,5,9
5190,0,-6,-2,-33,-9,-5,-2,-19
5195,-32,-16,-17,-27,-19,-10,-33,-1
5200,24,23,-7,8,13,10,22,22
5205,26,-22,-2,-22,-16,-2,27,-2
5210,27,13,9,56,4,1,-22,10
5215,-47,-14,-23,5,12,4,-19,32
5220,31,-2,8,22,3,1,22,-11
5225,3,10,21,37,12,3,24,28
5230,4,-1,-14,16,-23,-8,-16,13
5235,-62,0,16,-32,-7,-2,3,-5
5240,-9,-6,6,33,6,-1,-15,5
5245,2,-20,-13,1,4,4,13,-12
5250,22,0,-7,-28,7,4,-24,40
5255,-26,3,22,-50,-6,-2,22,-25
5260,-7,13,11,17,-6,-1,7,-6
5265,16,15,-13,-6,-29,-15,-5,7
5270,-7,2,-17,21,17,5,0,-29
5275,17,10,-7,-47,-14,-6,-19,4
5280,-13,-26,28,-72,-9,-6,-11,-21
5285,11,5,46,49,22,5,-11,12
5290,23,6,-34,30,3,2,26,-8
5295,7,-6,8,-60,-11,5,0,25
5300,8,26,-20,105,2,-7,18,-30
5305,7,-1,50,23,-4,-2,-20,-21
5310,-40,-22,-1,-56,-4,-5,-27,15
5315,-16,-4,8,127,30,8,0,-40
5320,88,-2,-39,-84,-16,3,23,27
5325,-104,3,19,106,31,6,-5,-37
5330,77,38,15,-51,-17,-4,16,62
5335,41,12,-2,48,-13,-9,-19,-6
5340,29,-5,1,-78,4,5,-15,-2
5345,-85,14,10,83,25,9,17,0
5350,-70,-22,-29,-26,-12,-14,-19,-66
5355,21,14,17,28,17,2,26,72
5360,-16,-7,2,6,-6,4,3,26
5365,5,16,-26,-73,-1,-1,2,-4
5370,20,3,21,26,-6,-5,-1,-13
5375,57,-13,-29,-12,6,1,-11,-2
5380,-99,14,1,40,-3,-7,-19,-5
5385,50,-3,-46,-128,-14,2,9,28
5390,-16,2,16,59,10,1,-16,-62
5395,5,-5,38,26,8,-1,12,53
5400,37,-11,-12,-5,-5,-2,-7,-14
5405,22,-19,-6,26,-2,-1,2,24
5410,0,2,12,-15,-3,0,10,-1
5415,-42,-1,17,63,6,1,-29,-20
5420,-50,-32,-31,-66,-25,-8,26,-26
5425,90,18,-11,-63,-22,-4,-3,1
5430,-40,-13,-4,39,11,6,17,13
5435,-53,-45,0,-116,-19,-4,-8,-11
5440,-19,4,15,127,27,4,-16,10
5445,-10,-30,-50,-63,-31,-12,-28,-21
5450,36,0,-38,12,0,6,33,43
5455,34,18,20,51,-6,1,29,-25
5460,46,3,2,-20,2,-3,-16,1
5465,12,-1,6,15,6,4,15,-4
5470,-73,-8,15,57,3,-8,-55,0
5475,5,-14,-26,-66,-19,-11,19,-22
5480,12,-11,18,45,16,7,15,-8
5485,-28,5,-31,53,15,5,-13,-30
5490,56,-9,-5,-72,-18,1,12,51
5495,-44,-2,36,127,3,-13,-12,-13
5500,-15,-6,-8,-23,3,4,-14,-5
5505,-17,-11,2,-24,-1,-4,5,-12
5510,-37,17,45,-35,-7,-4,-26,-27
5515,33,-8,-43,-105,-14,2,45,-5
5520,-37,11,22,-5,2,-4,-2,-22
5525,11,0,15,-27,5,6,-2,16
5530,21,18,-4,77,10,6,18,-22
5535,26,1,-15,16,8,4,-28,42
5540,-8,27,-19,-5,-8,-9,-19,-6
5545,35,-10,6,5,5,3,22,3
5550,-57,-8,8,27,-32,-11,-9,-4
5555,-1,14,15,68,14,5,-13,-7
5560,38,14,19,42,5,7,13,13
5565,-56,-11,-35,-29,-6,-8,-13,6
5570,25,0,2,85,26,6,-8,-19
5575,-33,-4,-44,-126,-28,5,38,41
5580,-32,-1,77,94,13,-13,-24,4
5585,33,-4,-18,-81,-6,-3,12,-5
5590,-30,-5,3,-62,13,4,-13,-11
5595,-65,17,-17,16,2,1,-18,-27
5600,58,-9,5,-33,14,2,21,22
5605,-8,9,32,-28,-28,-7,0,13
5610,99,-15,-49,-8,-7,-8,-2,-19
5615,-10,-7,6,76,11,2,-3,32
5620,-37,-8,-10,-2,0,6,0,-17
5625,5,6,6,17,6,3,-4,-16
5630,5,6,22,26,9,6,18,22
5635,8,1,-7,-98,-8,-8,-18,-33
5640,0,-19,-27,-71,-29,-8,-19,-8
5645,-51,7,10,27,7,3,38,23
5650,-76,-23,-56,-128,-20,1,12,9
5655,24,-20,9,121,32,2,-10,-36
5660,-18,-9,0,-3,-13,-8,-13,-1
5665,6,-11,-1,6,-8,-10,-23,-54
5670,-19,-11,21,37,3,5,18,74
5675,59,11,7,-17,-1,-2,-5,-27
5680,-1,13,10,20,9,8,4,26
5685,36,4,-37,2,3,-2,-25,6
5690,-3,6,40,72,-6,-14,14,-10
5695,-9,-13,-32,-112,-14,-2,3,4
5700,-2,-6,-4,44,1,-4,0,-5
5705,29,21,24,-3,-9,1,-27,3
5710,7,-5,4,-35,15,5,7,17
5715,-48,26,24,127,16,5,22,-6
5720,23,-10,-68,-122,-39,-6,-7,-7
5725,3,-5,-8,-75,6,1,5,-8
5730,-10,8,26,51,-1,0,-6,31
5735,32,-5,7,16,-8,-7,-10,5
5740,-48,-3,2,29,15,4,0,-37
5745,15,-6,-9,-38,3,2,14,50
5750,4,-1,-19,12,0,-1,-2,-20
5755,0,-3,0,2,1,1,-1,13
5760,37,36,15,-41,-1,-2,-10,8
5765,36,-10,12,66,-2,1,20,24
5770,-33,11,6,-5,18,3,7,-32
5775,-24,-5,-1,-124,-35,-7,-9,3
5780,16,-10,-24,14,5,4,-3,-10
5785,-29,-9,21,23,-1,-7,-8,-14
5790,-8,15,0,-8,9,3,-6,-23
5795,43,-3,-11,4,0,-3,-12,-11
5800,-16,-11,-5,-34,-2,4,37,30
5805,21,13,9,62,1,1,-12,3
5810,-7,-16,-25,-10,-20,-7,-2,-27
5815,28,17,2,-65,5,4,-6,20
5820,5,10,19,105,-1,-5,-9,31
5825,-17,-11,10,58,13,0,6,-9
5830,17,-2,-30,-51,-5,-3,-8,-5
5835,14,6,6,-29,-9,4,2,-25
5840,-77,-40,-15,14,-4,-8,-12,-17
5845,-51,5,-7,6,-21,-3,13,7
5850,10,5,34,-29,6,3,-1,-2
5855,6,-2,-14,99,10,-5,-2,4
5860,9,-2,9,-12,4,6,-4,-29
5865,57,-4,-15,-61,-20,-9,-8,8
5870,-20,-14,12,21,-2,-2,3,4
5875,4,11,-6,-4,7,3,6,-1
5880,20,0,8,24,4,1,-1,6
5885,-17,-14,-27,-27,-5,-4,-7,-14
5890,17,8,-21,14,-3,2,-1,10
5895,-30,-15,39,77,19,7,16,-2
5900,30,7,-38,-100,-21,1,0,9
5905,-12,3,14,58,14,5,4,3
5910,7,0,-3,-25,-3,-6,-12,-10
5915,19,-7,-1,48,-3,-4,7,-8
5920,-15,-2,0,-61,1,1,1,1
5925,2,12,24,27,13,1,0,-3
5930,66,7,1,47,19,7,0,-11
5935,1,-30,-15,6,-18,-10,-15,22
5940,10,43,-11,4,-8,1,15,20
5945,17,1,-2,-40,-1,0,-3,-18
5950,-18,-4,1,19,2,-2,-4,4
5955,3,1,-5,-33,4,-1,-49,-13
5960,6,-13,7,95,5,-1,39,-40
5965,-23,0,-2,-49,-3,-2,-3,26
5970,-40,1,-3,-106,-25,-3,0,-9
5975,4,8,9,24,9,4,3,10
5980,3,-8,14,20,9,-5,-16,0
5985,-56,-7,-9,-6,-3,4,1,-56
5990,5,-3,11,30,-1,0,14,71
5995,7,10,10,-93,-6,-8,-7,-12
6000,-2,-6,-6,57,10,3,-9,4
6005,-5,1,17,-73,-6,1,6,1
6010,-11,-7,-63,39,6,-2,0,0
6015,8,6,11,17,-10,-3,7,-4
6020,-23,-4,-5,2,7,-1,-8,-10
6025,10,-3,-2,26,-3,-1,-5,3
6030,-4,2,-4,26,5,6,9,-30
6035,62,11,-23,-95,-3,1,12,60
6040,-50,-14,23,52,7,-2,-7,-31
6045,17,-2,5,52,-3,-1,-1,-2
6050,31,2,0,-42,-7,-6,-2,10
6055,-14,6,-14,8,2,1,2,-47
6060,1,-10,-13,-74,-11,-2,-2,63
6065,16,2,3,94,16,1,-5,-1
6070,-8,-16,6,-56,-8,-2,-5,-16
6075,-9,-2,0,-22,-8,-2,3,-12
6080,-55,4,10,82,6,3,-2,-2
6085,6,-12,-32,-96,-22,-8,-5,0
6090,23,5,30,61,8,-1,-2,-6
6095,-35,-4,-2,37,-4,-1,0,-2
6100,34,14,-2,-20,-2,0,-1,-7
6105,23,-17,-22,33,4,1,1,6
6110,-1,25,9,0,-6,1,12,9
6115,-23,-4,-6,-35,-14,-7,-9,-15
6120,-15,-6,-6,10,-1,-2,-6,-5
6125,-15,4,21,9,3,3,3,15
6130,-19,-7,-19,-32,6,-1,-7,-6
6135,26,12,26,72,9,2,6,5
6140,-8,-19,-40,-67,-16,-3,-2,-25
6145,23,6,8,22,9,-2,-7,-1
6150,-8,2,5,34,12,2,-2,-16
6155,-57,-9,7,-14,-8,7,32,11
6160,8,3,0,-75,-7,-5,-11,-13
6165,19,-3,-11,30,8,2,0,-19
6170,0,-8,4,-31,-12,-7,-5,20
6175,4,-5,-11,10,6,3,-5,-28
6180,35,-1,9,-23,-7,-1,2,27
6185,-85,7,8,47,8,-1,2,-20
6190,45,0,14,-41,-8,2,-1,-10
6195,7,-8,-20,15,4,-3,-6,3
6200,3,4,8,-15,-2,2,4,-1
6205,18,0,8,-8,-1,-2,-6,37
6210,-19,-6,-11,53,9,1,2,-32
6215,-29,-9,20,-4,2,1,-1,11
6220,35,15,20,58,10,2,-1,14
6225,-1,-10,-36,-107,-28,-8,-11,-17
6230,-17,2,0,43,12,2,16,-2
6235,41,9,0,5,9,-3,-6,-1
6240,-39,-33,-12,8,-16,-8,-8,-32
6245,2,-2,4,-20,0,3,1,7
6250,0,6,-5,-14,-2,2,-2,13
6255,14,-2,-7,86,7,0,-5,1
6260,27,0,11,-88,-8,-2,7,-21
6265,1,4,13,48,9,0,-5,64
6270,-21,-13,-9,48,-6,-5,5,-19
6275,-12,3,-5,-10,2,0,2,8
6280,5,1,5,14,3,-1,-5,2
6285,8,7,-4,1,6,0,0,-13
6290,6,0,21,-17,-12,-1,-8,9
6295,-9,-9,-25,-59,-11,-4,0,-12
6300,2,10,-4,44,10,2,-3,18
6305,0,-10,18,57,0,-4,-1,-23
6310,-1,11,5,18,13,4,2,-24
6315,-3,-2,-4,26,-1,-4,-4,10
6320,4,0,-18,-111,-27,-3,-7,5
6325,-23,0,0,28,11,2,5,-3
6330,1,-3,-9,-48,-16,-5,-5,-18
6335,30,-4,3,-7,5,-2,-15,21
6340,-21,15,8,51,16,4,29,-11
6345,8,-14,-15,-8,-8,-3,-9,-26
6350,-21,-1,-5,-30,-17,-10,-8,47
6355,14,0,14,-5,0,-1,-16,-4
6360,-12,2,9,40,14,4,9,-7
6365,55,17,6,11,-2,-2,7,36
6370,-16,-23,-20,21,8,4,-8,-16
6375,16,11,22,-31,2,-1,5,15
6380,-19,-19,-24,-59,-17,-6,-11,-25
6385,24,2,9,1,5,0,9,26
6390,-30,22,3,0,7,5,-2,11
6395,-28,-7,-30,17,0,1,1,-17
6400,55,13,21,78,18,2,-5,-12
6405,10,-10,-20,-100,-22,-5,1,-4
6410,-6,4,13,34,-3,-6,-6,-5
6415,-14,-1,-4,87,9,-1,-2,-13
6420,13,4,0,-61,-8,0,7,47
6425,-33,-5,3,50,6,-2,-10,-39
6430,29,2,-22,-39,-13,0,12,26
6435,-38,-4,-3,-43,-12,-1,0,-14
6440,65,2,10,21,6,-1,-7,10
6445,-18,-18,1,59,3,2,-4,-5
6450,14,-7,5,-8,-6,-9,-5,0
6455,23,5,-1,27,9,7,6,-23
6460,-7,-6,-8,14,7,2,0,41
6465,16,12,13,10,-3,2,5,-7
6470,11,-7,-14,8,5,2,0,-25
6475,5,-12,-13,-57,-15,-7,-1,4
6480,-34,-5,-1,48,5,-1,-11,17
6485,-24,12,-7,-28,-7,1,19,36
6490,3,-7,14,17,6,2,-2,4
6495,0,-2,-2,2,-1,0,-1,-21
6500,-27,1,-15,-16,-2,0,-19,-25
6505,32,7,25,65,8,1,20,30
6510,1,-8,2,-99,-17,1,8,-19
6515,24,12,-4,-5,-12,-6,3,27
6520,5,-1,1,27,6,0,-4,-26
6525,5,0,-1,62,-2,-2,-12,-11
6530,0,-1,-15,-20,6,2,-5,-7
6535,-11,-8,11,3,3,1,4,-2
6540,4,7,6,71,10,2,5,8
6545,-14,-3,-7,-107,-19,-1,-6,-25
6550,11,5,17,40,9,-2,-5,0
6555,-89,-5,1,68,-3,-7,-9,-7
6560,26,1,-7,-6,0,4,12,18
6565,-24,-9,-2,-64,-1,-4,-5,-20
6570,-3,2,-3,-1,-4,-1,-3,6
6575,14,3,-7,-38,2,-1,-4,-13
6580,-31,-10,23,31,-1,-4,-3,-17
6585,5,2,5,29,2,0,1,3
6590,10,8,7,23,2,-1,-5,-5
6595,5,-1,0,18,3,3,4,4
6600,-11,0,0,-64,-7,-1,3,3
6605,2,-6,-9,-10,-6,-6,-16,-45
6610,-73,-1,0,64,8,1,14,52
6615,68,6,-18,-54,-4,1,0,30
6620,-3,-16,1,13,-21,-7,-3,-13
6625,55,-5,12,14,5,-2,-7,2
6630,7,5,10,27,8,0,-5,-16
6635,-4,-1,23,39,8,3,6,6
6640,-16,2,-18,-37,-4,1,-1,-31
6645,-9,4,-13,0,-2,0,-3,1
6650,16,-1,17,25,4,-1,0,3
6655,11,-3,-17,-74,-1,1,3,-7
6660,22,0,-13,-44,-2,-2,-6,-14
6665,-36,-6,16,24,-17,-7,-2,0
6670,-7,-8,-14,-27,0,-4,-7,-18
6675,15,11,-24,-32,-6,-3,4,15
6680,-29,0,12,92,17,6,1,-14
6685,17,7,-19,-16,2,1,3,-11
6690,13,0,10,-49,-9,-2,-5,6
6695,67,-4,19,64,7,-2,-6,-30
6700,26,-15,14,-58,-14,-5,0,16
6705,-8,16,0,-26,5,2,4,32
6710,17,1,-5,27,-2,2,-1,-39
6715,-7,-1,4,-10,8,1,2,24
6720,12,4,-23,-19,-16,-6,-3,0
6725,-14,-10,-4,11,1,0,-2,-27
6730,-6,0,-9,27,3,1,-1,17
6735,-11,2,10,-42,8,4,2,-3
6740,-1,1,6,-5,-11,-9,-5,-40
6745,-16,4,-5,2,6,6,6,48
6750,-5,0,-7,21,-10,-3,0,-12
6755,15,2,2,42,3,-7,0,-17
6760,35,7,12,-23,5,7,5,29
6765,-23,-9,-32,-20,0,-3,-2,-12
6770,23,1,7,-24,-2,2,-1,-28
6775,-32,0,2,50,7,4,-5,-34
6780,-30,-2,-3,-3,-8,-5,-6,19
6785,38,1,8,-14,10,5,4,-9
6790,0,-2,15,-7,-11,-8,-4,3
6795,-34,-7,-12,-23,-12,-2,-3,-20
6800,-14,3,-2,-54,-1,1,3,0
6805,-24,-7,-6,9,-3,-2,-5,-5
6810,11,-3,-29,-52,4,3,2,-6
6815,-42,-2,13,30,-6,-4,-2,3
6820,13,0,-4,11,14,5,0,4
6825,-15,0,17,37,5,-2,-10,3
6830,-8,3,5,-36,-14,-4,12,21
6835,-36,-11,0,45,-2,-1,0,-20
6840,28,0,-9,-19,5,1,-3,-5
6845,-10,-6,-10,-66,-2,0,2,2
6850,18,4,1,41,0,-3,-11,-27
6855,-37,-4,-29,-29,-10,-1,3,22
6860,-28,4,9,68,10,2,1,-21
6865,46,1,3,-51,-17,-3,15,-1
6870,-12,-3,2,-7,4,-3,-5,26
6875,16,-4,10,60,-1,-1,0,-9
6880,-6,7,14,32,1,-5,-3,19
6885,22,-10,-10,26,-4,-3,-3,7
6890,2,1,-3,-17,5,4,2,-2
6895,13,0,-7,-63,4,1,2,33
6900,2,5,-1,74,-2,0,0,-1
6905,-7,7,6,21,-8,-2,0,1
6910,-1,-8,-34,-103,-15,-3,-2,4
6915,24,-1,18,71,10,0,-7,2
6920,0,1,2,7,6,3,4,2
6925,-51,-23,3,16,-9,-10,-12,-27
6930,28,-1,-6,37,4,-3,-7,22
6935,9,3,0,-62,-7,-1,4,-2
6940,0,-6,-9,-34,0,3,0,-16
6945,-14,6,1,69,7,3,3,53
6950,21,-5,24,-59,3,0,-3,-37
6955,4,13,-20,25,4,-3,-3,46
6960,-7,-4,16,-54,-31,-10,-5,-9
6965,10,9,-5,27,16,4,3,-11
6970,-23,-2,-26,-69,4,5,3,-5
6975,23,6,23,58,-4,-4,-3,6
6980,15,-10,-4,-42,-3,-3,-2,-10
6985,12,9,-37,-112,-10,-2,-4,-16
6990,-6,-3,39,117,4,-4,0,25
6995,6,-4,0,-24,6,3,-3,-13
7000,-7,-5,-28,-20,-5,-2,1,12
7005,3,-6,0,13,0,1,7,-31
7010,-11,0,-22,14,1,-3,-6,-58
7015,57,3,-8,-13,-1,4,7,101
7020,-17,-1,-11,7,-1,-4,-5,-5
7025,-15,0,29,20,0,-1,-11,-14
7030,-18,0,-26,-33,-8,-5,-1,-5
7035,-6,-5,-2,17,3,1,-4,-33
7040,-41,-3,0,-52,-9,-4,-5,5
7045,54,9,22,42,6,2,-8,-15
7050,-19,-16,-10,26,-2,1,13,47
7055,-13,4,-14,-78,-12,-2,7,-20
7060,33,2,20,11,3,2,3,18
7065,-24,-9,-4,57,7,-2,-5,-15
7070,-70,3,-22,-32,-7,0,-5,-16
7075,6,-2,20,13,4,-3,-2,-4
7080,17,4,-30,29,9,4,-4,22
7085,30,9,26,50,6,6,22,19
7090,-15,0,8,16,-1,-8,-18,-17
7095,-34,-11,-9,10,3,6,5,-21
7100,8,-2,9,16,2,0,-2,-9
7105,-5,1,-12,-41,2,2,-1,15
7110,-5,1,15,34,9,2,6,9
7115,11,-12,7,-13,-8,-7,-15,-25
7120,-47,6,3,13,1,0,1,-24
7125,58,-5,-14,-25,-4,-1,4,15
7130,48,-1,19,7,-3,-1,3,38
7135,-40,-2,1,12,0,-1,-6,-16
7140,45,-6,-3,-35,-13,-4,-7,11
7145,-7,1,-7,-14,-1,-1,-4,-9
7150,31,15,15,13,1,-2,0,-36
7155,4,-2,0,29,0,0,-3,37
7160,5,-13,10,-41,1,-2,6,-24
7165,-9,6,-15,-19,-7,-4,-4,-3
7170,-12,-7,-3,-47,1,6,2,2
7175,37,11,9,58,7,0,5,-6
7180,-57,9,0,-24,2,0,2,-29
7185,64,-2,1,-50,-21,-8,-6,21
7190,-51,-7,-22,4,4,3,-1,-1
7195,-25,3,-8,-34,2,2,4,-22
7200,-7,-5,2,-6,0,-4,-2,5
7205,-27,-4,-2,-25,-4,-2,-5,-10
7210,62,5,-4,44,-2,-1,-3,-36
7215,-66,-22,-2,-11,-8,-3,4,38
7220,15,-5,-8,47,15,6,0,-18
7225,-36,4,3,1,-10,-7,-3,4
7230,8,6,27,65,-2,1,1,16
7235,6,21,-26,-41,-3,0,2,-4
7240,29,3,5,7,-1,1,1,-19
7245,-48,-1,-3,23,14,5,5,75
7250,22,2,2,-31,-5,-1,-4,-42
7255,-3,-1,25,79,-6,-3,-2,28
7260,1,-13,-27,-6,2,0,0,-15
7265,25,22,-5,-78,-17,-5,0,-12
7270,25,-9,-12,17,8,1,9,35
7275,8,-1,2,-41,-8,0,-5,-32
7280,28,2,21,94,9,0,0,25
7285,3,0,-18,25,-3,-1,-6,-54
7290,-63,-9,19,-56,-5,-1,3,54
7295,64,-19,-15,-28,-3,-6,-8,-21
7300,-20,-9,-20,-41,-7,-1,4,34
7305,-25,-4,26,46,12,1,-2,-4
7310,-31,2,-12,34,10,3,0,5
7315,-15,0,-13,-50,-11,1,1,-11
7320,4,-2,26,-8,-5,-4,-6,-5
7325,-13,-13,-11,41,-1,-6,-1,-3
7330,-23,2,2,-33,-1,-2,-3,-29
7335,24,10,0,59,14,2,1,40
7340,-62,-13,-18,-14,-10,-3,2,9
7345,-11,-15,-29,-50,-9,-1,2,-8
7350,27,8,17,48,5,0,0,-25
7355,-9,-1,-10,-4,-3,-4,-2,-8
7360,-14,10,5,12,0,2,1,12
7365,20,-3,12,27,11,1,-3,-33
7370,-15,-5,-1,2,-3,-2,0,24
7375,18,5,1,-2,-5,1,-2,11
7380,48,2,-16,-74,-6,-5,-4,26
7385,-22,-10,15,-3,9,6,8,-56
7390,80,0,-6,33,-7,-8,-11,36
7395,-15,-4,12,-38,-7,-2,3,-26
7400,12,5,4,72,11,1,-1,15
7405,-18,-4,-8,-35,-3,1,-3,1
7410,-33,-13,-22,64,5,-3,-9,-69
7415,4,-7,1,-65,-20,-6,-9,36
7420,20,1,-7,94,6,2,16,57
7425,1,0,20,-64,-7,-3,-4,5
7430,7,6,-2,-2,1,2,4,3
7435,1,4,-2,24,6,1,-6,-28
7440,-34,-3,4,22,8,3,-4,-21
7445,28,5,4,17,-5,-2,1,10
7450,-18,15,-4,45,-3,-3,-3,26
7455,1,1,18,-50,2,-2,-4,-32
7460,-18,-19,-20,-62,-7,-1,-1,-31
7465,-27,10,-2,57,14,3,4,36
7470,-7,-7,-2,-52,-13,1,0,-12
7475,-10,-6,-1,24,3,1,9,-14
7480,-23,13,-4,-9,2,0,-2,-11
7485,6,-17,-3,9,-10,-6,-10,-27
7490,-28,-6,-6,32,2,0,2,39
7495,21,5,-7,-53,-4,3,6,-34
7500,61,19,12,1,-13,-12,-10,32
7505,12,12,20,82,15,6,2,-3
7510,-59,-16,-38,-119,-21,-5,4,-15
7515,10,2,23,101,12,0,-4,19
7520,-38,-14,-59,-115,-21,-5,-3,-69
7525,-31,-8,4,-26,-10,-3,-2,-1
7530,85,21,16,46,10,4,4,27
7535,3,-1,5,-13,-3,0,-1,-1
7540,6,6,19,16,7,3,0,-7
7545,-29,-9,-7,-1,3,-1,-2,-25
7550,14,1,-10,17,5,-1,0,17
7555,-61,-6,-12,-68,-12,-3,-3,-34
7560,-3,1,11,-6,-3,0,-2,17
7565,-26,0,3,9,-7,-5,1,0
7570,11,7,11,42,13,4,-4,-1
7575,27,-5,-23,-10,-7,-5,11,6
7580,-46,-2,27,54,9,0,-3,-14
7585,22,0,-3,-30,-6,0,1,29
7590,-21,-7,-1,-24,-2,-2,-8,-47
7595,-19,-2,8,86,10,1,2,41
7600,43,-2,-7,-6,2,3,2,24
7605,26,1,14,-5,2,-2,-4,12
7610,-32,9,1,-11,9,5,7,4
7615,-14,-7,0,-46,-8,-3,-3,-24
7620,-1,4,11,79,7,-2,-4,-9
7625,-28,-1,10,43,9,1,-4,27
7630,9,-6,-22,-82,-9,-1,4,-10
7635,-6,7,18,22,8,5,6,36
7640,23,0,-34,-98,-20,0,-4,-5
7645,-55,-18,3,33,8,-3,0,-12
7650,17,5,11,0,-2,-2,-9,-40
7655,-11,-14,-20,-38,-5,1,6,71
7660,-8,7,39,112,18,2,-4,-4
7665,-26,5,-39,-72,-12,-4,-4,-28
7670,66,-7,-7,19,6,-2,0,4
7675,-14,3,6,7,-1,0,-4,-31
7680,-5,2,4,9,5,3,1,-8
7685,38,7,-14,-54,-3,2,5,17
7690,-13,-4,21,24,1,-4,0,-5
7695,65,3,-3,-2,-1,-1,-7,-21
7700,2,-5,-5,-8,-11,-2,3,30
7705,-6,2,-13,-60,3,0,-1,-16
7710,-26,-6,10,52,-2,-3,2,12
7715,36,8,-1,0,-9,4,6,42
7720,1,6,18,19,1,-5,-5,-55
7725,20,-1,-20,7,-6,0,1,69
7730,0,6,-16,-29,-5,-4,-2,9
7735,-29,-12,1,17,7,-1,-8,-26
7740,40,11,10,12,14,7,3,5
7745,-28,8,-20,-95,-35,-10,-5,-44
7750,6,6,14,15,5,2,4,15
7755,-32,-6,1,13,2,-3,-6,-22
7760,21,6,-13,-39,-4,0,1,4
7765,9,4,7,30,10,3,-2,-17
7770,13,-11,14,-13,-5,0,0,8
7775,-70,9,-4,12,4,0,-3,-55
7780,49,7,-10,-41,-3,-2,6,63
7785,21,-3,-9,37,8,4,0,24
7790,-26,-8,-15,-121,-32,-10,-4,-18
7795,15,4,27,73,13,-3,-5,-33
7800,-51,-9,6,51,-1,-2,-7,-17
7805,6,-2,-6,-25,-9,-5,1,1
7810,6,-2,1,73,17,4,-2,-15
7815,42,3,-7,-20,-2,-2,-4,26
7820,-14,-16,6,3,-1,0,1,2
7825,13,-6,-24,40,10,2,1,15
7830,-4,-6,-2,-55,-5,-1,-4,-13
7835,-7,5,4,-17,-6,-2,0,4
7840,24,-6,1,-29,-7,-3,-2,-2
7845,-14,-17,-10,1,4,0,1,-21
7850,2,3,-17,2,-1,0,2,17
7855,26,-7,4,30,3,-2,-4,-54
7860,-31,-6,7,-10,9,1,-3,24
7865,22,11,38,-8,-8,-2,2,23
7870,-26,-6,-18,-15,-7,-6,-5,-24
7875,55,-5,-19,-61,-7,0,2,24
7880,17,10,-4,47,2,2,5,-17
7885,-10,-15,-27,-45,-7,-3,-5,-12
7890,-11,1,31,41,2,0,2,4
7895,20,-8,-11,18,9,1,1,23
7900,-26,14,17,19,-15,-4,-3,-31
7905,-20,-2,26,48,9,-2,-9,-14
7910,13,-10,-25,-35,4,7,6,22
7915,-37,0,-9,-42,-10,-2,-2,-13
7920,-14,-11,0,27,7,0,-1,-57
7925,65,5,14,-19,3,2,3,21
7930,-64,9,-11,-14,-8,-6,-8,48
7935,-6,2,0,36,10,2,3,8
7940,-11,-8,-27,-65,-12,-4,-5,-25
7945,5,3,7,44,6,0,-2,23
7950,15,1,14,29,6,-1,3,-9
7955,-28,2,6,-12,-3,-3,-2,4
7960,8,7,-17,82,9,2,3,43
7965,-11,-3,2,-32,-19,-11,-4,-7
7970,24,-6,0,-64,-10,-2,2,6
7975,-34,6,-8,7,-10,-1,-3,6
7980,-5,1,8,19,7,3,-3,-20
7985,-1,4,5,1,11,6,2,16
7990,20,5,11,36,7,1,-3,-16
7995,29,1,1,32,10,4,2,10
8000,-54,-20,-30,-78,-13,-9,-11,-2
8005,-1,0,16,21,-4,2,-2,-16
8010,-9,0,13,39,0,-7,-5,-5
8015,2,-2,-9,-42,0,1,0,-52
8020,5,-3,2,-7,-11,-1,7,91
8025,-9,-2,-5,21,10,3,2,-19
8030,4,1,3,9,-4,1,-3,-11
8035,-9,-6,-10,5,1,-2,1,-8
8040,6,0,13,10,12,6,2,-9
8045,-3,14,-9,-39,-9,-2,-2,-43
8050,7,-1,14,18,-1,-1,-5,30
8055,-9,-8,8,-20,-20,-10,-3,-4
8060,6,3,4,32,12,4,2,-10
8065,15,1,-16,-44,-8,3,0,-11
8070,-1,-7,-5,26,2,-3,-5,-25
8075,-24,2,6,8,1,-1,3,1
8080,9,6,11,10,0,-1,-1,6
8085,-14,-16,-31,16,4,-2,2,1
8090,18,7,0,-3,-2,-1,-2,9
8095,27,-3,9,25,2,1,0,34
8100,-23,10,-10,-38,-10,-4,-5,-53
8105,8,1,24,56,3,-2,1,57
8110,12,-6,-17,-42,6,1,2,4
8115,-7,10,22,67,-1,0,-1,-17
8120,62,0,-15,-32,-6,-3,4,34
8125,-11,-5,-11,-12,-3,-2,-3,-1
8130,-41,-18,6,43,5,2,4,-26
8135,-3,3,-11,-53,3,1,-3,12
8140,-5,7,12,-16,3,1,-3,-35
8145,1,-10,12,13,8,0,-3,-18
8150,-23,0,5,55,3,2,8,19
8155,-8,-12,-5,-67,-20,-6,-4,11
8160,-25,-11,18,6,-4,-2,-2,4
8165,21,8,5,12,7,-2,-2,-17
8170,16,-1,-13,55,-3,-2,-4,-19
8175,-3,3,-4,-38,-3,0,-1,-4
8180,-1,-4,6,-5,2,-1,-2,-7
8185,7,-8,-16,43,8,-1,-18,-40
8190,91,24,-14,-73,-12,2,14,74
8195,1,0,14,14,0,-7,-2,-8
8200,5,-7,17,19,-5,-5,-7,22
8205,-36,-4,-12,-7,6,4,6,-3
8210,-21,-4,-8,-6,-3,-2,-4,-18
8215,12,-2,-14,33,6,2,-2,6
8220,-17,0,-5,-29,-2,0,2,-10
8225,-7,5,10,60,12,3,0,0
8230,-7,-3,-15,-62,-4,-1,-5,-23
8235,11,-8,2,14,-13,-4,-2,-8
8240,23,-5,-3,11,3,-4,-1,55
8245,24,3,8,-12,-8,-3,2,-18
8250,-32,-11,-3,-28,-16,-10,-10,-10
8255,2,-19,-6,22,10,1,-2,-2
8260,-7,6,-12,6,1,3,1,21
8265,21,6,21,-9,3,4,2,15
8270,-71,-4,16,17,13,3,-5,-41
8275,-10,-15,-23,14,11,7,7,-9
8280,8,15,-18,29,-18,-8,-9,31
8285,-22,-9,-10,-128,-24,-7,0,-2
8290,7,8,15,62,12,1,0,-20
8295,-2,8,25,78,9,-1,-5,12
8300,-46,-12,-12,-26,6,3,4,-28
8305,-6,-1,-16,6,-2,-1,1,2
8310,20,1,-8,-31,-1,1,-1,18
8315,-15,6,7,-10,2,0,-1,0
8320,16,-10,-8,-24,-7,-3,0,-58
8325,-18,4,12,36,3,0,1,31
8330,-3,3,-31,-25,-1,-1,-2,-5
8335,-15,0,3,23,-25,-4,-4,2
8340,-49,11,34,18,6,-6,-3,-8
8345,23,-31,2,-17,-13,-3,0,8
8350,-8,5,-10,44,12,0,0,-10
8355,-11,5,-3,-42,2,2,-3,2
8360,19,3,4,-28,1,1,-1,46
8365,4,4,-5,16,1,-1,-1,-19
8370,5,-8,7,5,-3,-3,0,10
8375,0,-6,-3,-43,-10,-6,-6,-25
8380,-17,-16,-6,-2,2,1,4,-31
8385,19,13,25,89,9,-2,2,30
8390,11,-7,-23,-85,-14,-2,2,8
8395,-21,10,-3,-2,7,1,-1,-18
8400,14,-7,-4,6,3,0,0,-15
8405,-14,-2,-5,-17,2,1,2,0
8410,8,11,10,31,3,0,-1,2
8415,26,-4,8,-80,-18,-4,4,3
8420,-22,-1,-14,16,8,0,-1,-28
8425,4,9,-22,-13,0,-2,-5,-11
8430,-5,-9,16,19,-1,0,2,36
8435,-8,4,-2,40,20,4,1,20
8440,12,-6,-23,-49,-18,-1,1,-11
8445,42,10,5,-14,7,1,1,-28
8450,70,1,7,24,-7,-5,-1,49
8455,-46,-3,-11,9,-3,-2,-1,8
8460,14,1,12,47,5,1,-1,-15
8465,-49,12,-2,-19,-5,1,-4,-10
8470,-4,-11,-2,-7,9,3,3,54
8475,23,-5,-2,-67,-5,-4,-4,-20
8480,3,-2,7,82,-1,-1,-3,11
8485,-26,-4,7,-7,-10,-5,-2,14
8490,-21,-7,-3,-10,2,2,1,-55
8495,32,23,-23,-13,-2,-1,2,27
8500,5,-9,0,26,14,7,4,7
8505,-26,-5,-3,-32,-15,-6,-5,-5
8510,-19,-4,20,95,5,-4,-8,-52
8515,-18,-8,-23,-43,3,1,1,12
8520,18,3,-15,-77,-10,-3,-3,-14
8525,0,-1,13,42,12,6,5,49
8530,-16,-2,10,-4,-7,-6,-8,-25
8535,-10,1,2,-25,-14,-4,0,-10
8540,-5,2,1,-6,-1,0,-1,18
8545,-2,2,-7,-2,3,0,-4,-39
8550,4,-1,5,-12,11,4,4,10
8555,-29,-3,18,67,7,-1,0,30
8560,-52,-14,-25,-33,-11,0,-1,-2
8565,27,2,7,-28,-3,-3,1,5
8570,1,10,10,30,11,5,2,-26
8575,40,-3,2,20,3,2,0,-29
8580,-42,0,2,6,4,1,1,37
8585,43,-6,-3,11,3,2,1,-5
8590,-27,3,6,-15,-15,-7,3,20
8595,27,9,-2,-6,4,4,-1,1
8600,20,-17,2,15,7,0,9,10
8605,-17,-5,-6,-30,-14,-5,-3,-3
8610,8,-8,-23,-13,2,1,-2,-2
8615,-23,-11,9,0,5,-2,-5,9
8620,46,7,19,-23,-8,-3,-8,-20
8625,13,10,-9,34,3,-2,0,17
8630,-10,-6,0,-9,4,2,1,-7
8635,4,-1,-12,-5,-1,-4,-4,-8
8640,-22,-1,11,23,13,2,-4,-37
8645,57,6,15,28,-5,0,1,18
8650,-11,-1,-2,-7,-6,-8,-9,-16
8655,1,4,6,25,12,6,11,14
8660,15,4,-45,-94,-17,-5,-3,3
8665,-13,-4,10,47,4,0,-1,-8
8670,49,18,-13,-26,1,2,0,-11
8675,-57,-14,11,51,-1,-3,-6,42
8680,36,13,9,-13,-5,-1,-1,-1
8685,-16,-8,-19,19,2,0,3,-7
8690,1,11,-5,9,3,1,0,43
8695,-19,-13,-1,18,-5,-3,-1,-8
8700,6,20,15,16,-8,-3,-8,0
8705,-66,-6,-10,32,11,4,-4,-11
8710,32,6,10,-9,-2,1,9,-6
8715,13,5,-8,-27,-4,2,1,-20
8720,2,-2,7,41,8,1,0,-12
8725,-1,-25,-16,-82,-13,-6,-4,1
8730,-29,17,-3,17,6,1,-2,-14
8735,27,-4,-5,-41,-7,-1,-3,-10
8740,-19,-7,21,33,-3,-4,-3,-5
8745,-37,17,-8,-9,3,0,0,-45
8750,12,-21,-12,-52,-4,-1,2,59
8755,42,2,-10,-24,-10,-4,-3,-18
8760,5,-2,-1,14,2,-1,2,11
8765,14,3,-3,-41,5,0,-3,-6
8770,-9,-8,-2,-1,-9,1,0,-31
8775,9,7,-9,-2,-5,0,1,22
8780,27,-7,7,39,5,-2,-1,3
8785,-16,-1,10,-34,0,-2,-1,-31
8790,11,8,8,-5,3,2,4,3
8795,5,-8,-1,8,5,3,0,-6
8800,-9,4,-25,36,-5,-4,2,-4
8805,18,-9,2,-21,-8,1,-2,1
8810,-4,-7,6,18,5,-6,-12,-15
8815,-28,4,1,-2,-4,-3,0,-16
8820,112,3,-2,-15,-4,-2,-3,10
8825,-51,-5,8,48,3,2,2,-1
8830,-8,-5,-25,-62,-2,0,-6,3
8835,8,3,5,31,5,1,0,3
8840,-22,-2,-2,17,2,0,0,-20
8845,-14,-1,-3,-24,-8,-2,1,63
8850,2,-6,-1,14,2,-1,-3,-34
8855,19,-4,14,11,-8,-6,-10,-34
8860,-25,-1,-7,7,-3,-1,-6,41
8865,18,12,10,37,11,4,11,1
8870,-19,2,-12,-35,-5,3,6,8
8875,-7,3,8,75,15,0,-4,3
8880,-26,-16,-24,-107,-20,-6,-2,-14
8885,8,-2,-3,4,8,-1,-5,0
8890,-9,-5,-2,9,-13,-4,2,-4
8895,17,5,13,34,1,-3,-7,1
8900,-14,0,-4,-36,2,3,13,12
8905,-13,6,-3,14,4,3,-2,-8
8910,-7,0,9,-29,0,-1,-3,-7
8915,29,-2,-3,95,11,0,-6,-8
8920,-34,-4,16,-60,-16,-2,-6,15
8925,-1,-10,12,95,9,3,18,4
8930,21,7,-1,-59,-6,-3,-4,-10
8935,-5,0,-7,-52,-2,1,0,11
8940,67,5,-8,56,12,5,-4,-20
8945,-53,-15,2,-54,-3,0,-3,21
8950,42,19,7,28,-8,-6,-4,-1
8955,-54,-1,-11,9,4,0,-1,-38
8960,-25,3,0,6,-4,-1,2,40
8965,23,4,-6,-74,-6,1,-2,-25
8970,8,-10,-1,71,11,0,-1,20
8975,-26,9,-11,-111,-23,-6,3,-16
8980,5,5,-1,-5,11,7,-2,-29
8985,57,-1,13,32,-6,-8,1,34
8990,-46,-18,-24,10,1,-1,-8,-15
8995,33,4,-13,-3,2,1,3,21
9000,-21,-15,8,-50,-1,-2,-3,-11
9005,7,3,13,38,2,1,-5,1
9010,-13,-3,23,-26,-11,-4,-2,-31
9015,1,-4,-17,28,-3,-1,5,51
9020,-22,1,-29,-42,-6,-1,-1,-6
9025,5,-3,-22,-4,3,0,-5,-7
9030,5,-4,-1,16,0,-1,2,0
9035,-7,-1,22,32,8,2,-2,-24
9040,-10,-1,16,45,6,1,1,17
9045,18,3,-41,-21,-1,-2,-2,-28
9050,-9,0,42,-22,-18,-6,0,37
9055,12,-8,15,11,4,-1,-3,-12
9060,-4,5,-10,18,-1,-3,-1,-21
9065,14,-2,-1,27,3,-1,-3,10
9070,0,5,-6,15,13,7,5,-3
9075,6,-7,-6,-66,3,2,0,-7
9080,-29,-2,10,37,-3,-6,-13,-41
9085,-10,-17,-15,-35,-19,-5,7,81
9090,7,4,-1,-13,7,3,5,4
9095,5,4,8,18,1,1,0,2
9100,-9,-1,-5,-10,4,3,1,-5
9105,-16,4,-2,21,5,0,-5,-36
9110,47,8,29,61,3,1,-4,-30
9115,-32,-15,-25,-72,-19,-12,-5,18
9120,4,-3,21,22,-3,-3,-4,-13
9125,-15,-9,-22,-23,-10,-1,3,-19
9130,0,4,13,33,10,5,-1,-23
9135,-1,3,-6,16,5,1,1,-9
9140,6,-4,2,13,1,-1,-3,2
9145,-11,5,9,-58,-17,-4,-5,-4
9150,57,-10,-25,2,7,0,-2,20
9155,-11,-4,17,20,-7,-3,-2,-25
9160,-5,2,-3,5,-1,-1,3,30
9165,-3,4,11,26,6,0,-5,-29
9170,-17,-3,-18,-43,-11,-5,-1,11
9175,-1,-1,-2,1,4,4,2,12
9180,4,3,2,1,3,2,2,-15
9185,4,4,-4,45,17,9,5,29
9190,-11,-6,-15,-50,-20,-8,-8,-24
9195,4,9,7,10,-6,-4,1,42
9200,-20,-3,23,0,3,0,4,-2
9205,-3,-8,-30,-53,-11,-5,-8,-36
9210,-16,2,11,40,12,2,3,35
9215,3,1,-9,28,6,4,1,-12
9220,10,0,3,4,7,0,-3,3
9225,23,8,32,38,6,1,2,-5
9230,12,-5,-28,-53,-22,-8,-8,12
9235,23,-1,12,-52,-11,-5,-3,-33
9240,-32,-1,-7,22,-1,0,6,21
9245,-5,-3,29,15,5,0,-2,-11
9250,-19,-6,-5,1,1,0,-5,-16
9255,-17,-9,4,43,7,2,-1,-31
9260,15,2,-7,-35,-3,-1,-1,-14
9265,29,-3,-1,-6,-7,-3,5,85
9270,-25,3,-13,-35,-6,1,5,-11
9275,-22,-19,5,4,3,-1,1,-10
9280,12,2,-14,10,4,1,0,1
9285,-20,7,27,39,4,-1,-7,-24
9290,-24,-21,-11,8,-7,-2,2,-18
9295,9,11,-9,-30,3,3,3,40
9300,29,-6,-15,14,0,-2,-4,-4
9305,-22,-6,-18,-31,-5,-2,4,-10
9310,-13,4,10,29,10,1,-1,7
9315,14,5,4,17,1,1,-4,-48
9320,-26,-7,-11,-36,-6,-1,3,35
9325,-4,11,-1,3,-2,-2,-4,-36
9330,8,1,7,31,8,0,-2,3
9335,-19,-3,-4,-12,-3,0,0,-4
9340,9,-6,-4,-20,-9,-5,-2,-1
9345,0,-4,-6,-7,-1,0,-3,-10
9350,-13,-2,2,-1,-2,0,-1,-32
9355,16,8,12,20,3,1,4,96
9360,-26,-1,-11,-35,-7,-3,-1,-20
9365,29,-6,2,24,3,-3,-5,-10
9370,-50,12,25,54,12,3,-6,-20
9375,5,-20,-35,-29,-12,-5,7,-22
9380,-19,4,-2,-58,-14,-3,-1,7
9385,11,0,-15,-31,-12,-3,-3,8
9390,18,14,12,30,14,6,7,14
9395,1,6,14,18,-1,-1,-6,-35
9400,-3,-6,-3,20,1,-1,-2,-2
9405,-14,1,-6,10,6,2,-8,-19
9410,16,9,10,-16,-1,-4,-4,-11
9415,-17,5,9,-29,-8,1,7,8
9420,18,-1,1,15,3,-3,-1,-19
9425,13,2,2,44,-7,-2,-1,15
9430,-11,-7,-6,-14,-4,-4,-7,19
9435,4,-1,13,26,7,0,-4,-8
9440,14,1,9,2,1,2,-2,21
9445,-6,1,4,-25,-3,-1,-6,-23
9450,-2,-4,-4,16,2,0,6,-3
9455,-16,0,-20,-57,-3,-2,3,6
9460,21,-2,12,71,-2,0,0,5
9465,-22,2,0,-31,-7,-5,-2,-16
9470,12,-4,-7,-26,-3,-1,0,-1
9475,22,-1,-4,6,10,3,0,10
9480,-28,-6,-7,-2,5,0,-4,3
9485,32,14,-6,-7,-3,3,1,-8
9490,-54,-30,-6,-1,-2,1,15,45
9495,-7,6,3,16,-5,-1,-7,2
9500,-4,2,-1,-12,7,1,4,-8
9505,-12,-8,11,6,-6,-4,-4,-3
9510,16,3,5,7,3,3,-1,9
9515,-12,-5,-19,19,8,0,-6,-34
9520,7,4,-7,-83,-31,-6,1,14
9525,-15,-2,-5,-4,4,-1,5,20
9530,18,0,9,9,-1,-2,-8,-35
9535,-5,-3,-4,24,5,3,0,15
9540,22,10,6,46,10,2,-3,-1
9545,4,2,-15,-56,3,1,3,5
9550,21,-4,18,89,4,-3,-6,2
9555,5,2,-26,-30,-23,-12,1,-14
9560,-5,-11,3,-42,0,0,0,-11
9565,-2,-7,6,6,2,0,1,2
9570,-1,1,-26,-8,4,2,-1,11
9575,5,1,13,12,5,1,-6,-1
9580,-2,-2,4,71,8,0,-1,-9
9585,-17,-10,-23,-10,-3,-2,0,-35
9590,34,0,-5,-67,-13,0,1,23
9595,-54,-2,5,5,-10,-3,-1,15
9600,13,11,20,36,15,5,6,4
9605,-16,-5,3,40,2,-2,-7,-22
9610,-9,1,-2,28,6,-2,-5,-5
9615,20,-5,-6,-21,-6,-5,-8,-30
9620,-22,4,19,-16,-3,0,11,4
9625,-14,-8,5,20,4,1,0,40
9630,-2,7,-7,-33,-10,-2,-1,-13
9635,7,1,0,17,2,1,-4,20
9640,1,-6,-13,-3,-1,-1,-9,-39
9645,3,9,40,13,6,1,6,-16
9650,-8,1,-16,-34,-7,1,5,29
9655,9,-1,-17,-7,7,4,-2,-9
9660,-2,-4,8,35,-8,-7,-5,4
9665,7,2,-8,-86,-9,-3,-1,16
9670,0,-4,15,-4,5,3,8,-8
9675,-2,2,-19,-18,5,0,-4,2
9680,9,13,0,16,3,5,8,18
9685,24,-4,-22,22,-1,-4,-2,-8
9690,-23,-6,19,-8,-10,-8,-10,-12
9695,15,-2,9,-5,2,2,2,5
9700,6,1,-3,-7,0,-3,-13,0
9705,-32,0,-7,91,14,4,0,-7
9710,61,6,-33,-110,-14,1,5,4
9715,-7,1,14,7,-3,-6,-5,-19
9720,8,-8,6,9,-2,-5,-7,0
9725,2,3,2,-26,-2,2,2,12
9730,-49,-1,-8,38,7,1,-9,-42
9735,30,-2,-22,-23,-6,2,20,52
9740,25,5,3,-5,-1,4,4,17
9745,-54,-29,3,-48,-17,-9,-10,-5
9750,1,13,11,22,12,4,6,4
9755,-2,-3,-9,13,2,-1,-22,-14
9760,-31,5,7,24,5,1,5,13
9765,41,-7,-5,-10,-4,-5,14,-28
9770,-24,10,9,1,-6,1,-3,19
9775,-21,3,13,11,10,6,22,37
9780,16,0,-9,-34,-19,-5,-14,8
9785,-32,-8,2,32,0,-4,0,-19
9790,4,-1,-7,3,-2,-1,-10,-5
9795,8,1,7,-10,4,2,2,-6
9800,-22,-6,-2,23,1,1,3,-22
9805,24,19,16,-24,4,3,-3,21
9810,-9,-9,0,35,3,-4,4,-8
9815,-4,-4,-4,1,-5,-3,-7,-5
9820,12,-1,-4,-74,-7,-3,-3,-10
9825,9,4,11,28,-1,-2,-24,4
9830,20,-4,-6,1,6,1,11,28
9835,-22,-6,-2,-13,-3,-1,6,-33
9840,13,-4,-10,17,12,-2,0,10
9845,3,4,6,46,0,0,8,1
9850,-7,-2,4,-47,-4,-1,3,-2
9855,8,3,3,-8,-4,-1,5,13
9860,1,-4,-9,2,8,5,10,-28
9865,7,4,6,22,1,1,-2,26
9870,7,2,-12,-43,-7,-2,-18,10
9875,-6,-1,16,29,-10,-6,-8,-15
9880,-7,-9,-21,-21,-5,-5,-7,-7
9885,8,0,6,28,6,0,-17,10
9890,-8,-3,-10,30,8,2,22,-14
9895,-6,1,13,18,-5,-2,-9,-8
9900,27,-2,2,-22,-3,-4,-18,4
9905,-30,2,-31,-79,-9,1,13,-14
9910,11,1,24,57,7,-5,-10,-15
9915,18,4,3,45,14,4,8,6
9920,-46,-9,-26,2,5,0,5,2
9925,-6,-11,0,-31,-16,-2,-27,-17
9930,27,17,21,7,0,1,10,12
9935,12,-10,-25,1,-17,-7,13,4
9940,7,3,8,16,1,2,12,-19
9945,-13,-2,-8,-8,7,-2,-6,11
9950,-15,-2,12,33,4,2,-12,-10
9955,-10,-3,-1,-44,-10,-4,-6,1
9960,4,13,5,-16,-4,1,-19,-6
9965,11,-2,4,26,6,2,37,25
9970,-56,-10,-13,-22,-4,-2,-10,-30
9975,-8,3,-12,-32,8,5,2,30
9980,13,-2,27,60,10,1,-5,11
9985,0,-4,-14,-36,-14,-4,-22,3
9990,-18,-15,-9,31,7,-1,20,-4
9995,-8,0,9,-10,4,0,-16,0
10000,-13,4,11,23,11,2,28,7
10005,16,8,5,34,-11,-4,-1,-6
10010,9,-17,8,-53,-12,-7,-8,6
10015,-21,9,13,56,6,-1,-30,-19
10020,-2,4,-24,6,-5,-2,35,-24
10025,20,-6,-2,6,11,5,6,59
10030,21,-4,-22,-47,-8,-2,-17,8
10035,-9,1,14,-11,-2,-1,31,-6
10040,3,-1,-4,-11,-4,-2,-21,-3
10045,19,7,17,30,8,0,2,-13
10050,-32,8,-9,-51,-14,-1,-3,7
10055,-17,-11,-21,17,4,1,-8,-13
10060,33,2,8,-32,-3,1,7,18
10065,-22,-5,-15,-100,-12,-5,-3,-30
10070,29,5,14,68,8,1,-6,19
10075,-4,-3,-7,8,9,1,-15,-42
10080,1,3,-10,-55,-19,1,20,34
10085,6,3,4,20,8,1,12,2
10090,15,5,-30,-18,-3,0,-4,-7
10095,-27,-21,17,-70,-10,-6,3,1
10100,-22,-12,3,35,8,0,-20,-4
10105,5,5,-18,-35,-1,0,-2,-4
10110,11,0,5,-20,-10,-4,6,-2
10115,29,1,-8,-11,-2,-1,-5,-1
10120,-15,-8,2,80,2,-1,-11,-5
10125,-17,-4,-4,-35,-3,-3,6,-11
10130,-24,-8,-6,56,9,1,-3,-3
10135,27,6,-4,-30,-1,2,2,0
10140,-51,-2,6,-10,-7,-4,-6,-4
10145,18,1,-13,4,6,2,-6,-7
10150,5,1,20,14,0,2,-1,-23
10155,10,2,7,-7,-5,-4,0,22
10160,7,0,3,2,1,-2,-3,-8
10165,-15,-1,3,38,-1,1,-41,-13
10170,9,2,-12,4,-2,2,50,-11
10175,9,6,7,22,6,3,1,13
10180,-3,-5,-16,-4,-3,-5,-8,-15
10185,11,1,13,44,1,0,-9,1
10190,17,5,-25,-25,-6,-7,-13,-42
10195,-61,-14,-10,-25,-6,0,9,41
10200,6,-3,-3,4,-5,-3,-8,7
10205,2,-2,6,21,6,0,13,17
10210,27,-7,6,21,-4,-1,-8,16
10215,13,6,13,57,6,-2,1,-24
10220,-7,-1,-14,-70,1,3,-7,-8
10225,-14,-6,-7,-30,-8,-4,-22,-3
10230,-32,-17,7,54,4,2,36,1
10235,10,14,1,-52,-20,-5,-7,-4
10240,5,-3,-14,19,1,-2,-2,16
10245,6,4,5,17,4,0,16,-9
10250,-13,1,5,-18,4,1,-22,11
10255,3,-6,9,30,6,1,-4,-12
10260,3,2,-7,7,12,4,-7,-4
10265,19,-4,-1,2,-6,1,27,-56
10270,7,-6,9,-19,-16,-9,-13,52
10275,7,-4,-59,-105,-8,-3,-12,-10
10280,3,4,-11,-41,-10,-1,12,-2
10285,-4,-2,9,72,11,0,-3,-7
10290,-5,6,12,24,12,3,-6,-7
10295,12,0,4,31,2,0,3,-4
10300,-2,2,21,6,9,-1,-12,1
10305,-7,-5,-21,-31,-3,5,17,18
10310,18,8,-1,-4,-7,-3,-5,19
10315,-6,-3,-11,-22,-16,-6,-5,4
10320,-21,-1,16,11,-7,-6,-9,-20
10325,-11,-1,9,-19,0,-2,5,1
10330,1,-1,-13,-10,2,3,-6,3
10335,3,0,0,65,17,4,-2,-8
10340,-2,1,4,-3,-5,-1,0,2
10345,7,1,-1,-7,-3,-2,1,6
10350,7,-1,-10,1,20,5,-19,-12
10355,-2,6,39,59,-13,0,2,-15
10360,-4,-8,-20,-50,-8,-6,23,15
10365,36,8,-7,-79,-14,-5,-12,8
10370,22,17,5,8,9,2,0,7
10375,-37,-24,-13,16,5,-1,0,3
10380,14,2,7,30,7,1,-5,-8
10385,-18,-2,-5,16,2,2,-6,2
10390,-25,-2,2,-20,-3,-2,1,-40
10395,52,10,14,39,14,2,-11,12
10400,37,4,-1,-43,-16,-6,10,-1
10405,-18,-2,-14,-33,-2,0,8,11
10410,-5,2,17,2,-17,-4,-1,-15
10415,-4,-1,-8,-1,4,-6,-4,-5
10420,-10,-10,-13,-1,-2,-1,-5,1
10425,0,1,0,30,5,0,-5,-2
10430,2,-2,-2,3,1,0,-5,-1
10435,-7,6,1,-10,1,3,14,3
10440,-1,1,-1,27,7,2,-2,-1
10445,-22,-8,12,0,9,4,-5,2
10450,13,0,-3,-32,-11,-2,25,12
10455,-3,-1,16,18,-3,-5,-12,-7
10460,-5,-4,-26,2,-4,-1,-1,-3
10465,-5,2,0,33,7,0,3,1
10470,-2,-2,2,37,11,1,-15,-1
10475,2,3,2,-51,-4,5,14,8
10480,-3,0,-5,18,4,0,-4,-9
10485,18,-3,6,9,-7,-5,-2,2
10490,-16,-4,-3,12,2,-3,-12,1
10495,-3,1,-4,-25,-5,0,-2,-54
10500,-4,-1,13,39,5,2,-3,56
10505,8,-4,-8,-14,-8,-6,-23,-33
10510,-17,-2,15,28,6,1,44,68
10515,-67,0,-30,-36,-10,-3,-6,-20
10520,39,3,10,-39,-5,0,-9,-14
10525,-26,2,8,5,5,-2,-6,-15
10530,-5,-5,-11,17,3,-1,-30,-13
10535,31,10,34,-27,-12,-8,11,3
10540,-30,-19,-7,-11,-3,1,33,18
10545,-3,3,15,33,3,-2,-6,-3
10550,-1,-2,-26,-40,-4,1,-5,5
10555,23,-6,-18,1,2,1,-8,17
10560,-4,-3,7,1,-4,-3,-16,-21
10565,4,0,8,-6,-5,-2,6,5
10570,15,-1,13,31,-2,1,10,-27
10575,-69,-10,-7,-22,5,1,-12,17
10580,2,-8,-6,44,-1,-3,-8,-1
10585,-9,-2,-12,-19,-8,-1,12,8
10590,-10,-1,1,-12,3,2,-20,-19
10595,15,-2,-22,-19,-7,-1,9,21
10600,-11,8,18,13,8,1,4,-21
10605,-10,3,-18,-26,0,2,0,15
10610,9,-1,4,-9,-9,-8,3,9
10615,16,6,13,70,18,3,3,-12
10620,-8,0,-3,-26,-10,0,-13,-5
10625,20,-1,-9,28,2,1,12,6
10630,-20,-1,3,-41,2,-1,-1,-25
10635,-7,0,0,6,-4,-3,-13,18
10640,-10,1,5,3,4,1,10,-19
10645,32,5,-4,28,0,-2,-3,20
10650,-12,0,7,-25,-1,1,-26,-6
10655,-5,-8,-22,-19,-8,-6,29,-16
10660,6,5,4,-12,-1,3,6,25
10665,-7,-3,10,15,3,0,1,-20
10670,-2,-3,-18,-30,0,2,6,35
10675,14,3,2,17,3,0,-23,-4
10680,-8,1,7,-45,-9,-4,-7,-8
10685,3,-1,7,43,7,3,17,11
10690,11,1,10,30,-3,-5,-16,-14
10695,0,3,14,18,4,3,6,9
10700,2,3,-49,-36,-4,-3,-11,-11
10705,-12,-6,0,-17,-7,-3,-5,-12
10710,-15,-6,-2,25,1,-4,-29,18
10715,-7,7,12,12,6,5,48,34
10720,18,0,7,9,1,1,19,-3
10725,-8,-9,-16,-63,-18,-5,-17,-11
10730,0,1,-6,23,-3,-3,7,1
10735,15,-4,0,22,9,-2,-20,-1
10740,10,-1,7,22,0,-1,-14,-7
10745,-16,6,1,-17,3,3,10,-13
10750,5,-7,-7,-14,-1,-1,-3,3
10755,-2,4,-6,26,-5,-2,-4,-2
10760,-2,10,26,14,7,2,5,-3
10765,4,-9,-17,-72,-7,-3,-12,-1
10770,5,-7,-6,19,-4,-1,21,7
10775,9,1,10,11,4,0,-16,-6
10780,23,-8,-18,5,-3,-3,8,9
10785,-4,7,14,6,7,1,2,7
10790,-9,-4,-5,27,-2,-1,-9,-19
10795,4,-1,-7,-94,-16,-2,16,-5
10800,-3,6,11,31,5,1,-20,-18
10805,15,0,1,18,9,5,7,38
10810,30,-1,-5,-22,-10,-7,5,-18
10815,-44,-17,-9,-24,-5,-3,-19,-2
10820,-11,10,2,-6,4,-1,1,2
10825,5,2,-1,12,0,2,2,-12
10830,16,11,11,-28,-1,0,-41,-26
10835,6,-13,13,26,9,3,55,14
10840,-4,-3,-13,-26,-8,-1,3,-14
10845,-14,4,7,42,4,-3,-4,31
10850,2,7,-3,14,6,3,9,-6
10855,14,-1,13,39,5,-1,-29,-18
10860,-26,-7,1,-40,-3,-1,10,-1
10865,29,6,10,90,0,-4,2,-7
10870,-6,-7,-11,-78,-7,-3,2,-9
10875,-14,7,6,19,8,5,-4,4
10880,-12,-9,-33,-36,-2,-1,4,-2
10885,4,1,-12,-33,1,2,-13,-11
10890,20,2,3,13,9,4,24,12
10895,2,-2,-9,2,-10,-6,-11,0
10900,5,3,5,8,-3,-4,-8,6
10905,-13,-7,-7,-41,-6,-5,-14,-10
10910,-8,2,0,31,3,2,14,-2
10915,17,4,-3,34,15,7,-3,-4
10920,-37,-1,40,-3,-16,-4,11,-14
10925,6,-2,-2,8,-9,-5,-11,20
10930,-12,-9,6,-76,-5,-2,8,0
10935,44,7,-20,-10,5,1,3,-12
10940,-39,-1,-5,9,1,0,-19,6
10945,23,17,14,12,6,4,11,14
10950,2,-20,16,48,2,-1,-2,-17
10955,-40,-5,-3,6,-4,3,-2,29
10960,46,-10,-16,-65,-10,-3,-2,11
10965,-14,-5,-7,12,4,-1,2,-20
10970,6,8,-2,36,-4,-6,-7,4
10975,5,-3,3,-64,-9,-7,-21,-28
10980,21,-1,1,70,14,2,8,9
10985,-32,-13,-9,-61,-10,-2,3,-2
10990,-5,4,-12,13,0,1,-2,2
10995,36,3,-4,-34,-9,-4,-2,0
11000,-34,0,-3,-2,-4,-3,-11,0
11005,5,-5,8,6,10,-5,0,-34
11010,-12,7,-6,2,2,3,-9,-6
11015,11,-2,1,33,-7,-1,-3,8
11020,8,-2,-9,-97,-3,1,28,19
11025,-18,-7,13,33,1,1,-6,-1
11030,-14,0,-3,15,9,4,21,2
11035,-22,5,-1,-11,-5,-3,-24,-18
11040,0,-12,-5,9,4,2,13,28
11045,-1,11,-2,4,-8,-7,-25,-10
11050,22,-1,8,-45,2,-2,18,-2
11055,-63,-8,10,10,-2,-3,8,24
11060,29,8,-19,31,1,3,-11,0
11065,28,-9,-6,-3,6,3,-1,-2
11070,19,0,9,34,2,1,10,-4
11075,8,2,-8,-10,-6,-4,5,-4
11080,-3,-2,15,46,3,-2,-22,-26
11085,-44,-8,-5,8,-1,3,21,9
11090,43,-3,-4,-13,-12,-4,-4,9
11095,-32,-10,2,29,9,0,-30,0
11100,-23,1,8,39,5,1,27,6
11105,1,1,4,32,-1,-3,-14,-10
11110,-38,-6,-6,-3,-7,0,6,0
11115,21,-1,-16,-5,1,1,-3,-8
11120,12,0,-11,-5,3,0,-29,-3
11125,18,-2,14,-48,-11,-1,44,-4
11130,-1,8,7,1,-3,-2,-7,12
11135,9,5,9,12,1,-1,6,-5
11140,-6,-3,-6,43,10,-4,-19,-20
11145,2,-5,-14,-39,-3,0,-6,2
11150,12,11,-3,-17,1,4,6,4
11155,21,-1,-10,-45,-10,-2,3,-7
11160,-16,0,16,22,7,-2,-14,-12
11165,16,2,4,-47,-11,-6,-16,2
11170,-5,-8,-14,35,8,2,10,15
11175,0,-1,13,-53,-3,-3,-12,-27
11180,44,16,10,-33,1,1,11,-11
11185,-23,-11,-14,49,9,3,4,49
11190,-42,3,-17,-11,-1,1,6,-3
11195,16,1,10,-24,-7,-2,10,4
11200,-12,-6,8,32,-3,-4,-25,-11
11205,8,4,-8,-6,5,5,17,-25
11210,1,-3,-7,3,-6,-2,-8,3
11215,21,1,-1,9,7,-1,0,-2
11220,1,2,-1,-87,-13,-4,-1,6
11225,-12,-9,-9,42,-3,-6,-12,-4
11230,-12,-4,5,26,0,-1,-8,2
11235,9,2,-5,3,-1,0,6,-30
11240,5,5,-3,28,-2,0,-9,36
11245,2,-11,7,-61,0,-3,19,18
11250,-4,-2,-10,-21,-9,-1,-7,-9
11255,-3,3,3,-5,0,-3,3,-7
11260,0,-3,-7,-10,4,4,13,8
11265,2,4,1,2,4,6,-12,-26
11270,15,1,13,-11,4,-3,-8,34
11275,-46,-2,-6,13,0,4,-13,-7
11280,-6,-2,7,49,3,0,31,24
11285,-2,7,-8,-14,-4,-3,-5,-7
11290,-7,-4,-3,-10,2,-4,-9,-34
11295,-10,-1,-3,16,9,3,2,44
11300,-2,-2,-2,32,-6,-4,-8,-13
11305,2,3,-1,-4,3,-1,-3,7
11310,7,1,-10,-4,2,1,1,-19
11315,1,-2,18,20,-12,-4,-4,12
11320,-5,-6,-18,24,-1,-4,5,-9
11325,-9,4,7,11,2,2,-5,-3
11330,-3,0,-2,19,4,2,1,-5
11335,13,-1,-2,74,13,4,1,9
11340,-1,-2,4,-107,-27,-7,-10,-1
11345,-36,-8,-7,58,-1,-2,-7,-26
11350,26,-4,4,28,12,0,-25,20
11355,-18,7,7,-26,-24,-4,40,-9
11360,-5,-5,13,6,12,0,-16,4
11365,9,6,-8,-25,-2,1,28,10
11370,-22,-3,11,7,-4,-2,-6,-10
11375,1,-5,-10,6,7,0,0,0
11380,7,3,0,-14,4,2,-2,-5
11385,-12,-5,-25,10,-5,-2,-3,-4
11390,-16,0,2,8,4,0,-6,0
11395,34,4,19,-12,-2,0,13,-6
11400,-8,-9,-27,-10,-2,-3,-35,-24
11405,5,-6,13,10,1,0,34,37
11410,-16,14,10,-6,-9,-4,-5,-27
11415,-3,-12,-24,-10,3,-1,-14,-27
11420,39,22,10,39,13,6,0,-14
11425,10,-5,16,-10,-8,1,2,50
11430,-2,-6,10,9,-8,-6,-3,9
11435,-1,-2,-2,-16,-2,-2,3,8
11440,-19,-7,-14,-12,-6,-5,4,-17
11445,5,0,-10,-2,1,1,-19,-22
11450,-1,-6,-9,-16,-3,2,22,5
11455,-3,6,-30,-32,-17,-7,-12,7
11460,-2,-6,13,25,15,3,-8,-7
11465,11,3,13,-12,-6,-4,-2,-3
11470,4,-4,9,22,-6,-2,13,9
11475,-24,-4,-11,2,7,2,3,-3
11480,7,-1,-14,37,4,2,0,7
11485,-5,-4,-2,-89,-11,-4,-15,-20
11490,-23,-2,-2,4,-5,-1,-5,-6
11495,-1,-2,-14,25,11,2,-5,-4
11500,-13,-1,17,2,-4,-2,13,7
11505,1,-2,2,48,0,-6,-20,-5
11510,-3,-10,-12,-58,-6,3,5,-5
11515,0,7,21,14,5,3,-1,-27
11520,4,-6,-3,16,1,-1,14,63
11525,-13,8,-17,-37,0,0,16,-11
11530,12,-1,1,-1,-1,-5,-10,-5
11535,-2,-11,3,-11,-5,-1,-10,-19
11540,1,7,16,-24,-3,4,23,33
11545,-7,5,-5,25,-1,0,-14,-5
11550,13,1,-4,-11,6,3,19,5
11555,-8,-3,-14,-31,-9,-5,-21,15
11560,-2,-4,3,41,4,-5,-3,-34
11565,16,3,12,21,7,2,0,2
11570,-41,-1,9,6,3,2,-13,-7
11575,22,-4,8,71,2,-3,-14,3
11580,7,1,-31,-73,-24,-1,35,9
11585,-2,-4,5,-7,-3,1,0,-1
11590,13,8,6,21,-4,-7,-12,-4
11595,3,-4,-6,-38,3,0,3,-7
11600,-6,-1,13,46,9,1,0,-16
11605,-3,3,1,27,5,2,-6,4
11610,17,-7,-20,-37,-3,2,13,15
11615,-17,0,18,30,4,2,9,5
11620,-6,3,3,2,-1,-3,-9,-17
11625,0,-3,-32,-57,-3,-2,-14,8
11630,2,0,5,21,0,0,13,25
11635,17,1,6,-22,-4,-2,-6,6
11640,-20,-5,-16,56,2,-3,-9,-22
11645,-6,-15,18,-45,-18,-4,18,4
11650,6,8,-4,20,4,0,5,-25
11655,3,0,-24,-31,1,2,6,16
11660,6,-2,-13,-46,-2,2,-13,-14
11665,-10,-2,15,92,11,-4,-23,-20
11670,1,-5,5,-20,-1,-3,-6,4
11675,7,4,11,47,6,1,5,-11
11680,-20,5,-1,-94,3,4,-7,-21
11685,-1,-4,-6,28,-12,-9,-3,-17
11690,21,-4,-11,-24,-3,4,19,38
11695,-47,2,1,11,4,-1,-10,-3
11700,19,-6,-14,-21,-7,-3,4,35
11705,3,11,16,14,11,2,7,38
11710,7,2,6,-9,0,-2,-13,-23
11715,2,1,-5,7,-4,-1,0,6
11720,10,1,-3,-5,0,2,0,-5
11725,5,-3,-8,4,4,1,-4,-11
11730,2,-9,5,66,7,-4,-21,-5
11735,-39,-5,6,8,-17,-7,-1,-30
11740,47,1,-27,-48,-22,-4,29,55
11745,-22,2,-5,-7,5,4,-5,-28
11750,-24,-5,-8,4,3,-1,1,9
11755,19,-2,1,-38,-2,0,-3,-19
11760,-3,1,19,51,14,3,-9,-3
11765,-4,-1,-3,-46,-5,0,-4,-4
11770,-34,3,13,29,-17,-7,-19,-18
11775,64,-10,20,-32,-8,-10,-12,-31
11780,-24,-2,-24,27,-2,7,29,13
11785,16,4,-3,-37,5,5,23,26
11790,-1,-8,-1,-23,1,-2,-16,-23
11795,-12,3,4,26,6,2,-8,25
11800,-16,-1,13,50,7,-3,-17,-22
11805,19,7,6,6,18,7,-2,-13
11810,9,-14,-21,2,-27,-15,-2,-16
11815,4,7,16,57,11,0,0,5
11820,8,-4,-10,-28,-6,0,-1,-2
11825,-25,-1,-4,11,4,3,4,8
11830,29,3,-3,-25,3,-1,-3,-6
11835,4,-1,-17,-40,-3,0,13,19
11840,-16,2,28,45,5,-3,-13,-14
11845,28,0,14,73,9,3,-21,-4
11850,-34,-9,-29,-79,-8,-3,-11,-68
11855,34,10,-18,-68,-20,-7,36,56
11860,8,-9,3,30,1,3,28,-12
11865,12,0,-9,23,-11,-9,-13,38
11870,33,11,-3,-8,7,5,5,23
11875,-21,-4,4,64,16,3,-22,-30
11880,25,-5,-7,0,13,2,-12,-20
11885,-43,0,4,-91,-39,-10,-9,-58
11890,40,-3,-27,-28,-13,-1,18,60
11895,-6,8,0,35,4,1,-2,4
11900,9,0,17,38,8,-1,-5,0
11905,4,-1,2,33,10,2,-1,-5
11910,-11,6,12,-15,10,4,0,0
11915,-4,-7,-17,-59,-10,0,8,-3
11920,-29,-1,-18,-26,-4,-4,-9,9
11925,7,5,14,18,11,-4,-9,-21
11930,-24,2,5,-14,-3,6,17,5
11935,1,-8,-11,-54,-24,-5,-2,15
11940,21,-4,7,10,1,-2,14,-16
11945,-10,1,10,-11,-5,-1,8,15
11950,5,5,3,58,22,5,-4,-8
11955,8,-3,4,66,21,9,-11,3
11960,-34,-9,0,-106,-37,-14,-20,-19
11965,59,11,13,85,20,5,8,-11
11970,-49,-38,-35,-50,-19,-3,-13,23
11975,-36,6,20,49,4,-1,20,-15
11980,1,-5,-6,-8,-5,-2,-13,3
11985,4,0,-4,32,11,2,5,10
11990,-65,17,36,39,0,-2,-12,-40
11995,100,3,-2,-11,-4,2,0,30
12000,-12,-2,10,21,7,-4,-6,-1
12005,31,-9,-40,-52,-11,-3,-2,-20
12010,-63,-2,30,49,-6,-6,-8,10
12015,-27,-5,-20,-47,0,2,4,-8
12020,11,9,28,57,6,0,-4,1
12025,36,12,-21,-6,1,0,11,60
12030,4,-20,-8,-69,-12,-7,-27,-35
12035,-7,-4,4,96,8,-1,-3,9
12040,-9,5,-48,-109,-4,3,1,-14
12045,-13,-3,20,-23,-13,-1,-10,1
12050,53,7,-10,57,11,0,14,55
12055,-48,-1,-10,6,-5,-2,-23,-8
12060,28,-6,14,11,2,3,23,3
12065,-16,7,4,10,1,-4,-7,-13
12070,59,-7,-17,-24,-4,0,2,12
12075,4,6,14,24,15,4,-14,3
12080,-2,-4,2,36,2,0,20,8
12085,-25,-11,-14,-55,-29,-9,-9,1
12090,6,5,-2,48,15,3,12,-33
12095,-16,-2,-3,-75,-5,-2,-19,-16
12100,71,3,-13,43,1,0,-4,12
12105,-7,5,8,42,12,2,6,-21
12110,-5,7,11,-29,-4,-1,-18,34
12115,35,-23,-15,-49,-25,-9,34,-35
12120,-39,13,12,-15,-7,-4,-12,29
12125,35,-4,-3,28,4,2,-12,-5
12130,-4,1,11,3,17,6,18,-6
12135,-29,-9,-8,88,15,-1,-43,2
12140,7,-3,7,-110,-27,-8,46,-19
12145,-28,-2,3,14,6,4,3,18
12150,4,-4,-22,-44,-14,-3,-4,-11
12155,-17,2,-5,-33,4,0,-3,-4
12160,-33,4,1,54,3,-6,-38,-26
12165,-58,-22,-16,-66,-5,-2,20,0
12170,-4,8,26,49,5,0,-19,-29
12175,-1,-4,-5,-34,-2,6,50,77
12180,39,12,18,41,13,3,-21,9
12185,-18,-5,-10,-59,-18,-4,10,-1
12190,6,7,-13,24,13,6,-2,-3
12195,21,0,5,-49,-6,-6,-6,-17
12200,-26,-7,8,39,8,2,-52,-14
12205,16,-2,10,24,6,4,67,-5
12210,-27,11,11,-12,-2,1,10,39
12215,11,5,-16,1,-3,1,-2,3
12220,-22,-3,-13,-1,5,0,11,9
12225,-35,-3,5,27,-1,-4,-43,-29
12230,8,3,-12,-34,-11,-2,1,-9
12235,1,1,15,43,10,6,27,9
12240,-2,5,-8,10,4,4,-1,16
12245,-2,-4,4,0,-5,-9,-32,-9
12250,-5,-3,-8,34,3,4,33,20
12255,-5,2,11,-15,-12,-5,-16,-75
12260,-58,-20,-2,-37,3,4,1,62
12265,17,7,-4,99,18,7,-20,17
12270,8,-9,-7,-94,-18,-10,33,-47
12275,-36,-4,-7,29,3,-2,-7,28
12280,33,-1,-5,-24,-3,-1,-17,-30
12285,-48,5,17,60,5,1,18,10
12290,19,-5,15,21,3,-1,-20,-9
12295,13,2,-7,-49,-14,-2,5,15
12300,-1,7,-14,20,9,6,-8,28
12305,28,-17,6,-54,-26,-12,-6,-8
12310,15,3,-5,3,6,0,-1,1
12315,-6,3,20,33,7,0,-2,4
12320,-18,1,-6,-10,-8,-1,-4,-33
12325,12,-4,-22,-43,1,5,-5,-9
12330,4,-4,-7,21,-1,-3,-1,-5
12335,24,7,11,19,6,2,1,-9
12340,12,-6,-11,33,0,-3,3,-8
12345,-38,-16,-5,-76,-18,-6,1,-25
12350,9,2,10,18,3,1,-13,5
12355,6,-1,-15,65,11,3,-5,1
12360,1,2,-2,-102,-15,-4,7,-36
12365,21,6,11,51,10,2,7,31
12370,2,0,-8,-9,4,-2,-41,-9
12375,12,-8,5,36,-12,-4,-1,-20
12380,-22,-8,2,-53,-10,-3,75,21
12385,2,-2,-21,11,-4,-3,-22,30
12390,-8,5,-7,-9,-3,1,17,-6
12395,7,2,0,-72,4,2,-9,4
12400,-18,0,8,61,7,1,-14,-13
12405,20,3,5,30,8,1,-5,-13
12410,-47,-14,11,-10,-25,-10,19,-3
12415,-15,-2,-7,8,3,-1,-9,-21
12420,-4,5,5,3,5,0,-5,-18
12425,0,3,5,8,9,2,0,7
12430,8,7,3,25,4,1,-7,9
12435,-2,1,-1,-12,-4,0,11,-8
12440,2,-8,-28,-43,-12,-4,-14,-5
12445,10,4,-8,-7,6,0,-35,8
12450,0,-1,-4,-30,16,8,53,1
12455,-4,-3,6,-40,-34,-8,-6,40
12460,22,7,25,63,8,1,-5,-1
12465,4,1,6,-19,1,3,4,-11
12470,-24,-4,-4,54,7,-2,-24,-9
12475,-6,-1,-13,-13,2,-1,3,-7
12480,15,-3,5,52,5,-1,-10,-1
12485,-14,2,-21,-93,-18,1,16,10
12490,38,-2,10,-49,-4,-1,-8,-3
12495,-1,4,13,71,15,2,10,-13
12500,1,2,-16,-17,-9,-2,-17,-4
12505,8,0,8,-31,1,1,7,-11
12510,13,-5,7,101,10,-1,-5,-1
12515,-35,8,5,1,5,-1,-16,-32
12520,46,13,10,-5,-3,3,-3,60
12525,8,-11,-29,-42,-8,0,8,0
12530,-6,6,-6,-81,-9,-1,27,0
12535,-80,-5,2,39,6,-4,4,-31
12540,-14,-2,4,-7,7,2,-8,-15
12545,-38,2,15,54,10,2,0,-29
12550,30,10,2,0,-10,-2,-9,30
12555,20,-12,-16,-39,-5,0,0,-5
12560,-13,-1,8,25,0,-3,7,-9
12565,5,3,3,40,3,-2,1,3
12570,-17,2,13,15,10,3,-14,-18
12575,23,1,-6,-6,4,4,9,17
12580,-15,-12,-18,-36,-20,-10,-6,-6
12585,-2,-2,8,-5,1,-4,-5,-3
12590,2,-5,3,47,4,4,0,2
12595,-2,-3,2,-47,0,3,0,6
12600,6,2,9,-23,6,2,2,7
12605,5,-2,-3,17,-1,-1,-5,-13
12610,-20,1,-11,-9,-8,-2,13,-2
12615,24,3,10,20,6,-2,4,48
12620,-17,0,4,21,-3,0,-2,-29
12625,-5,-3,-1,-21,1,-1,5,-5
12630,13,8,1,10,7,2,-32,-5
12635,2,-1,-6,-4,-20,-7,5,-17
12640,-19,-7,-25,-10,-5,-5,18,7
12645,35,-3,2,38,2,-1,-23,-14
12650,-46,-8,15,-40,-8,-5,16,38
12655,1,3,-24,-1,-1,0,-10,3
12660,-4,-2,12,23,11,4,-7,-9
12665,7,6,1,-9,3,1,9,5
12670,-17,1,0,4,1,2,-5,-2
12675,3,-3,-6,-23,-3,-1,-7,-17
12680,-25,-2,1,-6,-12,-5,-7,-15
12685,38,5,-1,8,8,0,4,42
12690,23,1,0,23,-1,0,0,-5
12695,11,-2,-12,-85,-5,1,-8,-30
12700,0,0,19,60,-7,-8,-6,33
12705,-5,1,5,3,5,2,5,-13
12710,7,-4,-26,-42,-3,-2,-4,-11
12715,17,2,25,-2,3,-2,-1,4
12720,-2,0,-9,0,18,6,2,-15
12725,-2,0,7,9,-9,-3,-15,-9
12730,23,-5,-23,-34,-1,1,26,36
12735,-6,-5,-34,0,1,2,4,0
12740,12,-3,-1,15,7,1,2,0
12745,-28,5,8,-20,-6,0,1,1
12750,33,7,19,56,2,-3,-22,-35
12755,-25,-14,-15,-25,3,-4,3,30
12760,33,6,40,10,-5,0,10,9
12765,5,-2,-19,23,2,3,3,6
12770,-14,-10,-11,1,-4,-3,-1,-9
12775,14,-1,-1,-17,-8,-3,-27,-1
12780,-4,4,-6,15,14,7,12,-52
12785,-36,1,10,-22,-7,2,26,68
12790,11,4,0,-4,-9,-2,-1,-5
12795,4,8,22,69,13,1,-4,-1
12800,7,0,13,-20,-2,-3,-9,-10
12805,-10,-8,-6,5,-1,-5,6,-21
12810,-12,2,-5,23,10,4,-10,-16
12815,13,5,2,16,-10,0,9,22
12820,-13,-13,-33,-39,-5,-2,-7,9
12825,12,-2,7,11,-10,-6,-2,-17
12830,-6,-4,9,-21,-2,-2,-4,2
12835,-6,6,12,14,7,2,-2,-32
12840,26,1,-11,17,7,2,6,51
12845,-3,-2,-12,-61,-18,-4,-8,-18
12850,-17,-2,4,13,6,1,-4,16
12855,-12,-5,9,9,-5,-4,-3,-55
12860,53,2,-15,-13,-12,-5,9,59
12865,-36,-5,7,41,9,3,-2,-3
12870,1,5,6,-53,-14,-4,1,9
12875,2,-3,11,48,7,-1,-9,1
12880,-11,2,-6,-36,-7,-2,-5,0
12885,33,-2,-2,7,10,2,-4,-8
12890,-7,0,9,33,5,0,-7,-4
12895,-8,-3,-8,-12,-1,-1,9,5
12900,-2,6,-1,29,3,5,-11,29
12905,-17,-3,-30,-72,-18,-2,18,33
12910,-53,-12,15,89,8,-5,-11,-13
12915,49,11,14,-55,-16,-2,8,6
12920,-33,-8,19,35,9,-3,-5,-25
12925,11,6,7,43,9,0,-9,2
12930,-15,-3,-23,-39,-3,1,0,-30
12935,-9,-2,-3,-4,2,-1,-12,51
12940,10,17,21,11,7,3,28,-40
12945,0,-24,-31,2,-19,-8,-15,-23
12950,28,2,-1,-72,-4,-1,-7,-19
12955,-3,-4,-25,-76,-16,-4,5,-1
12960,-23,-1,7,21,8,1,-7,-9
12965,4,6,12,33,10,3,6,-21
12970,23,2,13,31,1,2,1,14
12975,-15,-2,-3,13,13,5,1,-20
12980,-2,-13,-29,-92,-25,-5,-17,13
12985,21,7,14,1,10,2,15,-8
12990,3,-1,-14,7,3,2,1,4
12995,3,3,15,10,-7,0,5,22
13000,-34,-10,-7,-25,-7,-7,0,-46
13005,8,6,6,29,13,6,-8,-1
13010,0,2,5,-77,-18,-5,-7,-1
13015,12,-1,-18,31,8,1,6,10
13020,-6,-1,7,41,3,-4,-16,-16
13025,-13,-3,-5,6,3,0,-5,-2
13030,7,-3,-8,-11,-7,2,2,-35
13035,-9,-6,16,43,1,-5,-11,13
13040,1,-2,-21,-15,-7,3,-10,42
13045,-1,3,-1,19,3,-1,2,-15
13050,9,3,-7,26,6,3,32,26
13055,-10,-10,-16,-25,-4,-7,-4,-37
13060,10,2,10,-8,4,1,0,29
13065,-10,0,4,10,-4,-2,-14,-84
13070,-2,-2,7,43,-1,-3,-3,29
13075,-7,0,4,-41,13,8,7,0
13080,7,-13,-39,-60,-32,-10,2,-16
13085,-9,6,0,50,7,0,-9,-6
13090,4,-9,-18,-85,-25,-6,-5,-6
13095,-11,2,19,86,13,0,3,8
13100,23,-1,10,-7,-2,1,-10,-28
13105,-23,1,7,-12,0,0,1,16
13110,6,0,6,37,-1,-3,-12,11
13115,-12,0,-20,-71,-11,0,8,-15
13120,-36,-4,-16,-15,4,0,1,28
13125,41,4,9,-11,-11,-4,-3,11
13130,-5,-1,-3,18,18,0,2,17
13135,1,0,3,14,-6,-3,-5,-29
13140,-27,3,18,22,8,2,-7,-35
13145,2,-6,-2,27,14,3,-15,16
13150,19,7,-26,-55,-14,2,40,58
13155,-10,8,11,9,-4,-5,-15,-20
13160,38,2,-7,-23,-1,-1,22,8
13165,-37,9,-7,3,-9,0,-9,43
13170,0,-4,11,-11,5,-3,-24,-36
13175,0,0,-5,16,3,3,11,2
13180,4,3,17,58,10,1,-8,-2
13185,17,0,6,-12,-1,0,9,-12
13190,-7,1,3,27,1,0,-1,-12
13195,3,-4,-17,-9,3,0,-4,26
13200,-29,-7,-7,26,1,-3,-4,-42
13205,48,-1,5,-26,-1,4,13,15
13210,-33,-4,-14,-40,-17,-5,-6,-13
13215,6,-9,-18,14,0,-2,-15,12
13220,1,-1,16,48,-11,-7,5,-14
13225,-14,2,20,22,8,4,10,-1
13230,10,0,-4,-10,6,1,-10,3
13235,12,5,8,29,6,2,-3,-8
13240,-5,1,-1,-12,5,0,-6,-27
13245,-4,-3,-16,-47,-11,-4,17,64
13250,-3,-3,19,47,10,1,-7,-10
13255,-21,1,1,27,3,2,3,-74
13260,7,-9,-38,-39,-22,-5,-1,91
13265,-13,-11,-12,-91,-20,-9,-7,-35
13270,-19,-2,-5,84,13,-1,-12,-18
13275,12,2,28,-18,-2,-1,5,18
13280,-5,0,12,15,12,4,-5,-34
13285,-2,0,-6,10,3,2,-10,-13
13290,9,-3,-10,-20,-3,3,16,17
13295,-1,0,1,6,3,2,-2,-9
13300,-12,17,1,25,1,4,9,-13
13305,-15,-26,-24,-87,-14,-7,-3,36
13310,2,-1,-3,50,6,1,-7,-19
13315,9,2,15,-51,-8,-3,2,2
13320,-3,2,15,65,1,-1,3,4
13325,-14,4,-14,-7,-8,-4,3,-24
13330,23,-3,-2,11,9,-1,-1,9
13335,-4,3,-11,-39,-3,2,-2,19
13340,7,-3,-1,20,7,0,-3,-16
13345,-11,0,16,44,3,2,5,-12
13350,2,1,-4,-6,-2,-4,-7,17
13355,10,-5,-13,6,0,-1,0,-3
13360,5,6,15,-41,-1,0,-8,-4
13365,4,-1,-20,-8,-2,1,10,3
13370,-2,2,18,8,-1,-2,4,-2
13375,1,-2,1,47,2,-2,3,0
13380,0,-1,-4,-28,-1,1,-6,30
13385,-12,-2,-2,8,0,-3,-3,-35
13390,-12,1,-1,-13,-1,4,-2,37
13395,8,3,-5,3,-6,-4,0,13
13400,-6,-3,-8,-23,12,4,-3,-18
13405,7,5,28,-33,-9,-4,-19,-14
13410,-5,0,-6,30,-1,-1,6,-7
13415,-22,-8,-26,-58,-16,-6,0,23
13420,7,4,9,12,11,4,7,1
13425,1,-1,-13,20,5,-1,-8,-9
13430,-5,2,11,-15,0,3,8,-23
13435,5,-2,11,35,8,2,-18,25
13440,3,-2,-18,-29,-17,-8,19,-22
13445,-5,3,1,16,8,2,2,-8
13450,7,-7,-5,-40,-5,0,-9,-6
13455,2,8,22,-15,-4,-2,9,4
13460,3,-10,-14,6,-4,-5,-10,-10
13465,2,2,16,38,-1,-3,-6,2
13470,2,-1,4,-5,0,-2,0,-15
13475,-3,-1,8,6,3,2,4,-11
13480,-6,0,10,-1,6,5,-19,-4
13485,-2,-5,-18,-6,-3,-3,23,-1
13490,42,15,16,-3,0,0,0,-17
13495,-18,-11,-18,30,-3,-6,0,26
13500,-9,4,8,-50,-17,-4,6,-12
13505,-3,-4,3,11,6,-1,-6,7
13510,2,1,9,16,6,0,-7,0
13515,3,-1,-24,-11,-2,-1,-5,-21
13520,-9,-4,12,15,3,-3,8,-37
13525,4,-3,-2,9,14,7,-6,8
13530,54,26,3,-39,-16,-4,16,28
13535,-4,-7,11,-15,3,2,-5,-8
13540,-12,-12,-52,7,-13,-4,-6,-4
13545,0,4,19,-44,-2,-2,-2,1
13550,-23,-4,1,46,7,0,-10,-5
13555,6,2,5,13,3,1,12,-15
13560,21,5,7,-27,-2,3,3,11
13565,-3,1,-7,13,1,2,0,2
13570,11,-7,-10,2,-2,-1,-3,13
13575,4,3,-5,5,5,-1,2,8
13580,-8,-2,15,-31,-5,-3,-9,8
13585,3,2,10,22,1,-3,1,-12
13590,-31,-10,4,4,-5,-6,-12,-26
13595,8,3,-12,-43,-9,-3,-13,34
13600,-2,7,6,62,21,6,21,18
13605,1,5,0,9,-2,2,-3,19
13610,11,-4,-6,-19,1,2,3,-8
13615,-5,-2,3,29,0,-3,-4,-45
13620,-6,-7,-19,-34,-5,-5,-4,18
13625,1,3,9,-14,-5,-1,3,4
13630,-30,-3,-9,2,0,0,3,15
13635,-8,-3,-8,-25,-7,-1,6,-6
13640,11,-2,3,-9,-1,-3,-11,-16
13645,9,-1,10,14,-10,-2,3,40
13650,-8,-2,-12,-55,2,-2,-9,-13
13655,5,2,7,44,9,3,-4,0
13660,-3,-2,9,-18,11,3,4,-17
13665,-6,4,-10,36,-14,-6,1,28
13670,1,-10,15,-36,-5,-3,-4,4
13675,0,-3,-22,-61,-8,1,4,30
13680,-4,-1,5,40,4,2,-9,-22
13685,-2,-2,-15,-6,3,-1,-1,-23
13690,-8,2,12,-20,-3,-2,-20,12
13695,1,-3,19,35,0,-2,22,-49
13700,-11,-1,-14,10,-4,0,8,31
13705,19,3,-2,-23,-4,-1,-2,-8
13710,-13,-4,-15,22,2,0,3,0
13715,6,-4,-10,-3,11,0,-10,-13
13720,-2,0,8,23,-1,-1,-5,4
13725,-10,-3,6,-50,-11,-3,6,3
13730,11,2,-10,43,6,-1,-13,-50
13735,12,3,-13,3,-2,0,5,26
13740,-9,-6,15,-1,-6,-3,1,17
13745,-10,-4,0,-8,13,1,-12,-52
13750,-3,-1,-5,16,-17,-6,-7,-17
13755,10,1,13,-10,-4,0,-4,37
13760,5,5,-9,7,2,2,9,0
13765,-11,-15,-28,-41,-12,-3,-14,-18
13770,6,8,10,9,9,2,19,6
13775,-9,-9,-6,-14,-10,-8,-11,-7
13780,-5,1,24,45,8,-1,9,-23
13785,22,-3,0,-1,2,-2,-2,78
13790,-27,-2,-9,-7,6,8,19,-32
13795,31,-4,-13,-48,-20,-6,-2,33
13800,7,-5,2,0,-1,-1,-6,6
13805,-5,6,25,65,7,3,0,-26
13810,-5,-4,-16,-49,-15,-5,8,9
13815,-22,-4,-17,-17,1,-1,-15,-36
13820,7,-2,0,-4,9,5,7,-19
13825,34,4,1,-29,-8,-3,-2,11
13830,-2,2,36,57,14,4,-4,21
13835,-16,-3,8,18,4,-1,3,-24
13840,2,-3,-33,-7,-8,-5,-5,11
13845,-14,-4,-5,-63,-5,-1,-2,-18
13850,-18,3,-8,-8,-5,0,5,-5
13855,1,0,6,64,8,1,8,39
13860,-4,1,3,-33,-9,-5,-12,2
13865,-15,0,0,71,17,3,7,-24
13870,3,-6,-7,-57,-18,-5,-8,40
13875,-12,6,31,0,11,1,-13,10
13880,-24,-10,-22,-30,-9,-6,-3,-14
13885,21,5,-2,-6,-5,2,16,-18
13890,-1,-2,3,23,6,0,-15,19
13895,6,2,0,26,1,2,21,6
13900,-18,2,8,-12,5,0,-19,23
13905,-3,-3,-1,0,-3,-4,-2,-37
13910,26,-4,-26,-3,-2,0,8,0
13915,-17,6,14,4,-5,0,-2,0
13920,1,0,-11,-9,-3,-1,3,-3
13925,5,1,7,16,7,2,-3,18
13930,-3,-4,-13,6,-3,-2,0,-13
13935,0,-2,-19,-42,1,0,-1,3
13940,20,2,14,1,-10,-3,4,-14
13945,-15,5,16,5,1,-1,-1,26
13950,13,2,-3,18,5,0,-4,5
13955,2,-3,-5,28,4,-1,9,-19
13960,25,-2,-32,-28,-2,5,6,24
13965,-8,-1,14,-18,-11,-5,-6,-6
13970,-13,-1,12,22,5,-1,-4,-12
13975,2,0,-6,-18,-1,1,-6,-14
13980,10,7,25,55,8,0,0,8
13985,2,-12,-30,40,8,3,-1,-9
13990,-28,0,0,-90,-14,-4,-1,4
13995,17,1,9,48,-6,-2,3,74
14000,-12,2,4,21,3,-1,10,-15
14005,-1,0,19,22,5,0,1,49
14010,-5,-6,-14,14,-1,-6,-5,-34
14015,11,-3,-3,1,2,0,-3,-11
14020,-10,-5,-6,-31,-1,-1,-9,6
14025,-8,2,4,27,9,6,2,-20
14030,19,-1,28,70,4,-6,-24,35
14035,-1,3,-18,-72,-16,4,49,-1
14040,-36,0,-8,5,6,1,-14,18
14045,4,5,6,25,-15,-8,17,-24
14050,3,5,11,22,11,4,-5,18
14055,-20,-12,-4,-6,-5,-4,-21,-42
14060,9,2,1,-17,2,2,3,-1
14065,1,0,-10,2,5,2,-6,4
14070,-14,-2,-11,-26,-7,-1,6,-15
14075,1,3,1,15,1,-2,-5,-24
14080,22,-1,-3,16,3,2,1,9
14085,2,-2,21,15,-5,-1,-12,9
14090,8,-4,-25,-62,-31,-8,22,-32
14095,24,1,-9,-31,5,1,-12,13
14100,-6,-4,-11,-22,-3,0,-5,-29
14105,12,-3,-9,8,1,3,7,54
14110,-14,2,18,30,12,3,3,-3
14115,2,4,13,65,7,-1,-7,-23
14120,3,-1,-24,-64,-3,0,2,3
14125,-8,0,10,-3,-15,-8,-5,-25
14130,1,-6,16,65,17,1,-1,1
14135,4,1,-1,29,-5,-7,-22,-45
14140,3,-9,-4,-35,-10,-3,17,67
14145,21,0,-23,-37,7,4,14,-4
14150,-30,12,-30,4,2,2,0,-21
14155,-3,-9,17,-37,-3,-3,-9,-8
14160,2,3,27,29,1,-1,-10,-32
14165,56,13,-4,-20,3,1,-13,-18
14170,6,-17,-10,22,2,-2,18,33
14175,-23,-2,9,25,2,4,-6,-38
14180,5,11,-5,-55,-13,-6,11,34
14185,-8,-3,-9,-8,-5,-2,-2,-47
14190,3,-5,-1,-95,-9,-1,-10,3
14195,-11,13,-1,48,8,-1,4,-11
14200,21,-6,18,-25,-6,-2,-7,11
14205,-29,-1,-24,112,19,3,-3,-6
14210,6,0,9,-110,-17,-4,-2,-11
14215,-24,-2,-21,-58,3,2,3,31
14220,-40,-14,31,74,-2,-2,-8,-34
14225,-21,0,-1,5,-1,-3,-2,-2
14230,-2,-3,-18,9,3,1,-6,-9
14235,33,-1,2,-2,-7,-4,9,25
14240,-13,7,-3,14,4,3,-2,-13
14245,-6,-5,3,-45,-6,-3,-1,26
14250,-2,-6,7,55,4,-1,-2,-20
14255,-21,-3,-12,-28,-10,-6,-8,19
14260,18,3,4,55,11,4,13,22
14265,-26,-4,3,-27,-2,1,-8,-6
14270,19,1,-1,16,7,4,12,-16
14275,-1,4,4,-37,-12,1,6,6
14280,10,0,12,56,7,-3,-9,-13
14285,16,-3,-13,-13,3,1,-1,3
14290,7,0,5,-13,-16,-4,-14,-2
14295,-33,-1,18,51,7,4,14,-17
14300,-7,-3,-20,7,9,0,-7,27
14305,-3,-3,9,-5,-17,-4,10,-7
14310,18,9,-2,7,14,4,-5,8
14315,3,-12,0,10,-9,-3,-2,0
14320,13,1,0,1,-1,1,-3,-16
14325,3,1,0,11,4,-1,0,3
14330,14,8,1,-1,1,1,8,44
14335,-33,-20,-5,4,3,0,-4,-24
14340,32,2,-5,13,-1,-1,2,-45
14345,-33,-6,-10,6,3,-1,-2,3
14350,3,-2,7,0,-7,-2,-4,3
14355,-7,10,9,10,3,2,-3,-10
14360,30,-3,-29,-28,-9,-6,3,-7
14365,-2,-9,-9,-41,-12,-5,-3,69
14370,-11,2,15,44,3,-2,-5,-13
14375,-4,1,1,-49,0,-1,-3,-1
14380,-24,-9,13,2,-3,-1,-14,-30
14385,28,4,8,17,6,3,7,-9
14390,5,-1,-14,18,-3,-2,20,43
14395,36,5,7,38,-4,-5,-8,9
14400,-12,5,-7,-109,-8,2,-2,-3
14405,-12,-1,4,45,7,-2,-7,-21
14410,-6,-3,1,12,14,6,-7,-16
14415,21,0,-11,-27,-7,-2,2,11
14420,-45,-11,1,11,-11,-7,-3,3
14425,-22,-2,-19,-30,-8,-1,-9,-40
14430,13,-1,-2,-9,4,1,4,5
14435,-20,1,7,33,5,2,1,28
14440,-25,-6,0,-2,5,-2,1,-40
14445,27,15,0,-12,-2,1,3,57
14450,-19,1,-9,-24,-11,-4,-6,-20
14455,-9,-6,-1,-6,-2,-3,-4,-4
14460,-37,4,20,10,0,0,-1,39
14465,23,-4,-3,-11,1,0,-7,-41
14470,-9,-13,-2,8,-7,-5,7,35
14475,26,3,5,25,9,1,-8,-2
14480,5,7,-16,-37,-9,-1,0,-32
14485,-6,-4,11,25,6,-1,-2,2
14490,-14,3,13,-35,-3,0,-6,-4
14495,6,-1,-19,-8,-3,-3,-1,-25
14500,64,2,8,51,1,-4,-2,12
14505,-6,3,-14,-35,-3,1,-1,-13
14510,5,-2,3,26,1,1,-4,1
14515,-7,5,1,29,12,2,4,1
14520,0,3,6,-22,-7,-1,4,24
14525,-15,2,3,7,3,-2,-1,14
14530,1,1,-12,2,-6,-3,-2,-20
14535,22,2,-2,-63,-13,-7,-5,-33
14540,20,-12,2,45,11,4,-6,30
14545,-50,-13,2,-15,-8,-4,1,-52
14550,-34,7,-13,-2,3,0,11,63
14555,45,0,0,-8,-3,-2,-5,-28
14560,-68,3,10,-22,-5,2,2,1
14565,33,-8,-6,0,-10,-6,-7,-19
14570,29,2,-1,12,0,-2,-7,-44
14575,-12,-8,-7,-26,5,1,4,24
14580,0,1,-8,4,3,0,-3,-28
14585,-15,-9,4,22,10,3,2,52
14590,-22,3,-5,-65,-20,-6,-7,-39
14595,-8,0,15,59,9,-2,2,16
14600,16,-2,-12,13,6,3,-1,-13
14605,-8,2,-10,-21,-3,0,-1,-12
14610,15,-1,-4,76,15,2,-5,-16
14615,-1,-2,11,-98,-7,1,-5,10
14620,-35,-4,-21,21,-12,-8,4,12
14625,21,-4,6,16,7,5,16,14
14630,-8,-4,4,6,1,-1,0,9
14635,-8,0,-3,-4,-5,0,-6,7
14640,8,-2,16,17,5,2,-3,-28
14645,22,0,-13,-35,-9,-5,-5,17
14650,-2,1,6,39,5,-1,-6,2
14655,-8,-4,-10,-12,-4,-4,3,-7
14660,25,4,5,11,7,3,1,-15
14665,2,8,19,-4,-9,-1,0,34
14670,-5,-2,20,-24,0,-1,-2,-20
14675,7,-13,-16,35,-3,-2,-3,22
14680,-24,-3,7,-15,-2,-2,1,2
14685,-17,4,-18,-53,-3,-3,-8,-35
14690,55,-2,1,27,6,-1,1,-27
14695,-88,-11,5,-7,-8,0,7,7
14700,5,2,7,24,2,0,-6,5
14705,-5,0,-8,-29,-5,-4,-5,-14
14710,-13,-5,9,6,5,-1,-5,-10
14715,3,-1,-6,31,7,0,-2,-6
14720,32,11,-9,-77,-24,-4,4,10
14725,-10,-1,-3,50,9,1,-5,11
14730,1,-5,-7,-42,-9,-1,-4,5
14735,15,6,-8,-29,3,0,-2,0
14740,-10,-4,-20,-30,-2,-1,1,14
14745,8,-2,12,3,-2,-3,-1,-12
14750,-6,1,6,49,10,1,3,12
14755,40,4,-8,45,-2,4,6,8
14760,-14,0,11,5,0,-1,-2,-7
14765,-8,-1,-15,-64,-12,-1,4,-1
14770,-3,-6,7,30,10,1,-1,-1
14775,-56,-4,-5,-82,-18,-7,-9,-18
14780,10,-4,-3,7,1,-3,-6,1
14785,-4,-7,-18,48,5,-1,16,4
14790,-5,10,-4,-55,-5,3,-5,-2
14795,18,-8,-17,17,-2,-2,3,-30
14800,-2,4,20,60,7,-2,-6,11
14805,16,1,8,-26,-7,-2,4,2
14810,-2,-5,-12,13,1,-2,-3,-31
14815,17,12,9,1,1,1,-4,18
14820,5,-8,-1,10,1,-1,-9,17
14825,15,-9,18,2,0,4,14,0
14830,-4,25,-6,18,5,0,-1,2
14835,-38,-21,-12,-58,-8,-1,-3,3
14840,10,-2,-1,15,2,1,5,10
14845,-18,-1,5,20,6,0,-11,-20
14850,34,-4,7,18,-3,1,7,39
14855,0,0,-11,19,6,0,-2,-6
14860,-18,-5,2,31,-3,-5,-6,-9
14865,5,4,22,-6,-6,-1,-3,-7
14870,44,10,-26,-52,-4,0,2,1
14875,5,3,4,-38,6,0,-2,3
14880,-5,-8,-5,-33,-1,-1,-2,-11
14885,28,7,-5,74,13,2,-10,-26
14890,-8,2,7,-23,-17,-1,14,41
14895,-2,3,6,40,7,1,-9,-22
14900,14,1,-2,-29,1,-1,2,-6
14905,18,1,-19,-57,-9,-2,15,-1
14910,-91,-19,-12,-10,-2,-2,-15,-20
14915,38,4,0,33,5,3,4,-2
14920,-15,8,20,25,-2,-1,0,-14
14925,-5,-5,-6,12,7,0,-11,19
14930,-1,-4,-6,-25,-12,-5,2,-16
14935,18,2,6,12,2,-1,1,0
14940,-2,-3,-6,85,8,1,-3,27
14945,-5,0,-23,-112,-24,-3,-1,12
14950,-70,-10,4,30,-1,-3,-2,-10
14955,48,7,24,14,-7,-5,-7,-1
14960,-9,-3,-10,4,11,3,10,-10
14965,-17,-6,10,68,11,0,-5,-7
14970,5,-1,-9,-1,3,2,1,22
14975,12,9,-3,33,3,3,9,11
14980,-21,-12,-6,-116,-22,-5,-5,-16
14985,0,0,10,25,5,-2,0,24
14990,8,-4,-26,-7,-7,-2,0,36
14995,-13,-6,32,29,7,1,0,-18
15000,21,7,-13,-18,-5,-1,3,33
15005,-17,2,23,18,10,0,-10,-3
15010,21,0,3,13,7,2,-3,-33
15015,-7,1,-10,-5,-7,-2,11,39
15020,-17,-2,2,37,4,0,-3,-14
15025,-5,11,-4,-77,-28,-7,-6,-2
15030,-3,-5,24,14,7,-2,-1,-7
15035,-85,-2,-1,28,5,1,-3,-19
15040,92,9,4,6,-5,1,5,20
15045,23,8,-15,21,14,5,2,1
15050,-8,-14,-1,-77,-15,-11,-11,-18
15055,-25,-1,11,2,3,-1,0,-7
15060,5,0,4,22,4,0,-3,8
15065,-54,-17,-25,16,-4,-2,-3,-12
15070,0,17,-2,-16,1,5,2,-10
15075,27,-6,-2,66,7,-1,-9,43
15080,-16,2,9,-28,2,-1,11,-8
15085,20,5,-12,-79,-17,-5,-5,-8
15090,-20,-7,15,11,5,0,-5,-3
15095,-3,0,-9,-21,-9,-1,0,-16
15100,18,6,-13,4,9,4,0,-38
15105,-13,-3,-14,6,-1,1,5,53
15110,34,-5,16,51,8,-1,1,-4
15115,4,3,-7,-47,-7,-4,1,2
15120,-8,-2,-23,3,-3,1,0,-5
15125,-1,-3,12,1,-4,0,0,-15
15130,2,-2,-17,-2,-2,2,7,16
15135,17,-13,-35,-95,-20,-6,-5,-10
15140,4,-1,9,27,10,2,2,66
15145,-4,-4,11,49,5,-3,-8,-21
15150,22,15,4,-10,-10,0,0,10
15155,-39,-2,18,22,6,1,1,-6
15160,-58,-14,-27,-52,-10,0,-11,-23
15165,-22,6,12,3,1,0,6,16
15170,25,-3,-15,27,7,-2,1,-12
15175,3,6,7,4,0,3,-2,-35
15180,32,1,1,9,-4,-5,-9,9
15185,2,-2,3,16,7,0,-5,-18
15190,-11,-1,20,19,2,0,-1,-10
15195,13,-5,-46,-58,-8,0,4,11
15200,-30,-1,10,1,-3,-4,-2,-15
15205,12,3,10,22,6,3,2,-4
15210,-9,3,-7,-45,-13,-6,1,-4
15215,-6,2,12,22,7,2,0,11
15220,20,9,-8,-39,5,1,-4,-19
15225,-47,-21,8,25,-6,-3,0,-4
15230,-15,4,-26,-33,-8,-1,1,-7
15235,9,5,31,14,-2,-2,-12,11
15240,-21,-3,-4,26,8,-2,6,-15
15245,16,11,23,8,1,3,3,-3
15250,1,-8,-16,-12,-3,-3,-6,-10
15255,24,-3,-5,21,5,2,4,46
15260,-33,0,5,-18,-7,-2,-9,-10
15265,46,4,-1,-8,-7,-4,4,3
15270,-13,-5,-26,3,-3,-1,0,-1
15275,9,2,4,-43,-2,-3,5,31
15280,-2,-4,13,-5,-3,0,0,-4
15285,10,1,9,36,8,-1,-9,3
15290,-13,-2,8,-12,-3,0,4,-8
15295,-16,-5,-7,26,8,1,-1,-29
15300,6,18,0,17,-5,1,0,15
15305,-59,-10,-36,-100,-14,-3,-6,-6
15310,-1,-8,30,37,-2,-2,7,-6
15315,-6,2,-8,35,11,3,2,7
15320,18,-3,1,15,0,-4,-3,-1
15325,10,3,-1,-48,0,-2,-15,-13
15330,-7,-5,-3,1,0,1,15,-2
15335,7,-2,-11,20,-12,-6,-6,19
15340,11,-4,-6,-71,-8,0,8,4
15345,14,0,7,47,16,6,1,6
15350,-4,-6,-5,-31,-13,-5,-13,4
15355,-25,-11,0,7,2,-3,-2,-40
15360,24,1,-17,19,-8,-2,-1,32
15365,-16,3,-5,-37,-1,2,8,-7
15370,8,0,4,-3,5,1,-6,14
15375,-4,0,-7,12,7,2,2,-22
15380,12,-5,2,17,-7,0,0,-5
15385,-28,0,15,27,-2,-1,8,-5
15390,34,8,-14,16,11,1,-7,13
15395,9,-5,1,-28,-4,-2,4,2
15400,16,-2,-9,18,5,1,-5,-18
15405,23,-1,6,34,0,-1,-3,0
15410,13,1,-17,-32,-2,-2,-7,25
15415,-21,6,26,42,3,1,12,-6
15420,-12,-2,8,-3,0,-1,-3,-16
15425,12,3,-16,1,-3,-3,-2,-8
15430,-16,-3,6,20,-3,0,-3,-11
15435,5,-3,-11,-78,-2,-1,-12,-6
15440,-14,-5,2,-31,-8,-2,8,9
15445,-12,4,16,45,6,-1,-1,-7
15450,26,8,34,12,4,1,-2,7
15455,5,1,-24,-14,-10,-4,-4,5
15460,-4,-4,-9,3,0,1,8,-9
15465,-4,-6,0,27,6,1,-6,2
15470,7,-4,3,15,5,2,3,11
15475,0,2,16,-2,-9,0,-2,-12
15480,-3,-4,-9,-40,2,-2,-9,-36
15485,-29,1,-5,-23,-13,-6,-1,58
15490,10,-19,-19,-54,-12,-3,7,12
15495,-41,0,2,-13,-8,-6,-7,-19
15500,30,3,22,28,8,1,-2,1
15505,16,-3,-4,16,7,-1,-4,-11
15510,-12,2,0,5,3,2,-2,-21
15515,-5,-2,-1,35,13,3,-13,11
15520,47,1,9,-33,-22,-7,-1,-11
15525,-19,0,-19,-42,-12,-3,30,13
15530,2,0,24,35,3,-4,-2,10
15535,4,-4,-17,-25,0,-1,-3,-13
15540,-1,0,1,10,5,1,-5,16
15545,20,-4,-22,-21,-2,1,-7,-16
15550,-18,0,-5,29,5,1,-4,-26
15555,21,-7,-8,23,19,5,6,35
15560,-20,0,2,-68,-30,-9,-7,-9
15565,2,-6,-10,-22,-3,-2,-2,1
15570,-39,-2,0,-10,-1,-2,-1,-10
15575,26,8,17,18,3,2,3,15
15580,-27,-2,-6,31,11,4,4,25
15585,4,0,5,7,2,-1,-9,-25
15590,5,2,-2,5,4,2,0,9
15595,2,-2,-4,1,-5,-3,1,-20
15600,-39,2,9,29,7,3,7,12
15605,40,15,-8,3,4,3,-1,47
15610,31,-21,-7,-7,0,1,3,-5
15615,29,11,-19,-117,-35,-9,-6,-11
15620,-12,0,21,85,12,-1,-3,6
15625,2,1,15,16,9,0,-7,-17
15630,-12,1,1,-17,-2,0,-2,-2
15635,10,-5,-7,19,3,0,3,-7
15640,-23,6,-5,-14,10,5,-1,-26
15645,44,5,18,40,1,-3,-6,18
15650,-4,2,9,-5,-2,-4,1,1
15655,-7,0,-16,4,-14,-4,0,-12
15660,2,-5,-5,-24,5,-1,-4,20
15665,-15,-8,2,34,7,2,5,-10
15670,-14,8,1,11,6,1,-7,3
15675,6,3,16,35,10,3,2,9
15680,13,-6,6,-5,-7,-2,1,-15
15685,-9,-8,-7,-2,0,-4,-8,-33
15690,11,3,-1,-1,-7,-2,-2,16
15695,-11,-3,-4,18,9,1,4,-2
15700,-18,3,-16,-43,-14,-1,3,-16
15705,-18,-18,5,-29,-7,-4,-5,3
15710,-19,6,0,0,-2,-4,0,-37
15715,6,-5,-1,26,5,3,-3,27
15720,-3,0,3,13,6,-2,5,2
15725,-3,-2,-2,24,1,2,-9,-18
15730,-8,3,-35,-95,-8,0,12,-14
15735,-11,-7,28,43,1,0,-3,35
15740,-30,-12,11,20,-14,-13,-6,-22
15745,23,2,-9,-16,-6,-1,1,24
15750,-15,-8,3,46,10,2,-3,-19
15755,-7,4,-13,-24,-6,-1,0,3
15760,22,-4,-8,-19,8,7,1,-14
15765,-39,-2,-15,-22,-5,-4,-6,-26
15770,24,-1,26,44,5,2,5,32
15775,20,4,2,-51,-12,-5,-4,-27
15780,34,10,-3,12,4,-2,8,62
15785,-16,-20,-11,-16,-8,-1,-4,-11
15790,18,4,4,-1,4,2,6,15
15795,-34,-6,-8,19,-5,-5,-4,-45
15800,10,4,-2,14,5,2,-4,16
15805,19,10,-6,-27,-1,0,0,-13
15810,-5,2,2,12,0,-2,-8,-8
15815,-10,-6,14,5,-2,-1,5,7
15820,-5,-2,-4,69,4,0,-4,-20
15825,-4,-10,-5,-68,-21,-5,0,-7
15830,-43,2,17,78,15,0,-8,7
15835,10,0,-34,-11,-10,-1,7,-16
15840,-6,-2,17,30,11,2,-4,18
15845,0,6,16,60,16,2,8,-15
15850,-2,-3,-1,-79,-19,-5,-8,34
15855,-1,-2,1,14,13,3,12,47
15860,12,-4,-12,-7,-6,0,2,-7
15865,-18,9,10,-39,1,-1,0,2
15870,35,-2,-1,9,2,0,0,-20
15875,-48,1,-13,-7,-4,-2,-10,3
15880,8,-21,-8,-11,-6,-3,-3,-6
15885,0,5,3,36,0,-3,-8,12
15890,1,3,5,15,4,1,9,-32
15895,45,5,13,-15,-2,-1,-2,24
15900,29,0,-17,-25,-4,0,1,-19
15905,2,4,10,15,5,4,7,-33
15910,-1,0,-21,16,-2,1,-2,48
15915,4,-5,20,-34,-7,-7,-9,-25
15920,-23,-9,-18,5,3,-2,-6,-2
15925,4,3,2,16,5,4,3,-7
15930,9,1,-1,9,1,1,-1,-8
15935,-2,-4,-31,-29,-1,1,-1,-6
15940,22,7,21,72,8,0,-8,28
15945,-36,-33,-18,-114,-29,-10,-2,3
15950,-27,1,-4,5,0,1,5,-4
15955,20,11,22,24,5,0,-5,-20
15960,14,2,15,20,7,1,-5,-42
15965,-11,2,-17,63,4,-1,2,8
15970,17,-1,5,-60,-9,-8,-9,-9
15975,-7,-9,-2,-11,-3,1,3,-4
15980,-97,0,-10,-26,-11,-2,-1,-24
15985,14,6,13,24,11,4,1,26
15990,-7,-11,2,1,-2,-4,-16,-20
15995,1,2,-5,18,0,-2,4,-31
16000,15,0,-13,-28,-2,-1,2,29
16005,19,9,19,-55,-5,-1,4,11
16010,-47,-4,-23,8,1,2,0,-5
16015,37,-1,20,65,-2,-7,-9,2
16020,19,3,-19,-98,-12,1,0,13
16025,-31,-10,-14,63,8,2,-1,-12
16030,21,9,9,-88,-18,-5,1,6
16035,-12,1,43,105,23,5,-4,-32
16040,10,-2,-26,-42,-11,-3,4,70
16045,9,2,-1,35,1,-2,-1,-6
16050,16,2,8,-37,5,3,1,0
16055,-24,-5,-22,-11,-7,-1,0,8
16060,-4,-1,20,8,3,-1,-2,-24
16065,10,0,-16,-5,-5,-3,-3,3
16070,-9,-7,-5,53,5,-1,-5,-10
16075,-6,2,4,-27,-1,3,9,12
16080,16,-2,-13,-47,-9,-3,-1,38
16085,83,4,-6,-13,5,0,6,11
16090,-18,-4,9,46,8,1,-17,-8
16095,3,-9,-19,-12,-6,-7,4,-9
16100,-1,11,3,10,-3,1,7,-15
16105,-36,-5,7,32,3,-2,1,31
16110,14,6,-7,-37,-10,-4,-4,9
16115,8,-1,-3,12,4,2,-1,0
16120,-14,-6,-7,40,9,2,-3,-20
16125,-21,-2,-15,-2,3,2,-4,-38
16130,24,-1,2,-74,-16,-2,9,32
16135,-30,7,-16,-51,-4,-2,-8,21
16140,-6,0,38,75,11,0,5,19
16145,0,2,-14,22,4,4,-1,-14
16150,-20,-5,16,-7,3,-3,-1,-14
16155,23,1,4,-11,-4,1,-3,-7
16160,-5,-6,-31,-73,-9,-2,-5,-19
16165,-3,1,15,2,-2,-3,-3,14
16170,-6,7,-10,44,3,3,2,-20
16175,6,6,20,-13,5,2,8,16
16180,-25,-11,-19,-5,-3,-1,-8,-33
16185,50,10,12,-13,-8,-5,4,43
16190,-20,-5,1,-12,0,-1,-2,-25
16195,-20,-2,-1,16,-5,-4,-4,56
16200,53,4,5,58,12,0,2,-17
16205,-37,10,25,6,-5,1,-1,-26
16210,36,-3,-21,-37,-6,-1,-4,12
16215,-6,-3,11,29,12,1,0,29
16220,-20,5,37,26,-5,-2,-5,-15
16225,5,-11,-55,-57,-10,-7,-9,-6
16230,-2,1,1,80,10,3,8,0
16235,0,-3,3,-31,-2,-2,-2,-21
16240,-7,3,1,-43,3,3,4,5
16245,-6,6,20,6,1,1,4,14
16250,-17,-1,3,34,-4,-5,-5,15
16255,-1,-5,-21,10,1,-2,-3,-16
16260,-2,-7,-16,5,-1,-4,-10,9
16265,6,-11,1,-35,-9,-3,10,-14
16270,49,5,-18,-45,2,1,2,-8
16275,-44,-18,16,22,3,-1,-7,-5
16280,17,-1,-10,-27,-7,-3,2,7
16285,-1,-3,3,-10,4,3,-3,-5
16290,-61,-12,16,87,5,-2,3,-3
16295,44,19,-21,-83,-7,-1,8,-10
16300,-12,-10,7,-12,-1,-1,7,-12
16305,-23,-5,-11,-10,-2,-2,-7,-6
16310,8,2,15,61,5,-2,-1,-11
16315,-34,-10,-36,-28,-4,-1,-4,6
16320,20,11,6,-39,-6,-1,-2,1
16325,8,4,22,-38,9,4,1,2
16330,-3,-5,-11,5,-8,-4,-1,2
16335,-10,0,-10,18,-4,-3,-10,-15
16340,-4,-5,-16,27,1,-2,6,-12
16345,-13,-3,0,31,8,4,1,14
16350,-11,3,-20,-58,-11,-4,-6,-4
16355,21,10,23,24,-4,0,6,4
16360,-10,-4,-8,5,-3,2,-4,-7
16365,7,2,-3,34,4,-2,-2,-4
16370,-1,-5,22,54,12,3,0,-12
16375,45,12,-16,-79,-15,-4,0,7
16380,7,-9,9,-10,-5,-3,-1,10
16385,-8,-4,-6,16,-1,-4,-5,3
16390,-2,1,-12,-49,-8,-2,9,15
16395,18,-4,7,53,11,3,-13,-45
16400,-15,1,16,34,0,1,-2,33
16405,-3,-1,-29,-78,-10,-5,-1,-21
16410,20,-5,-25,-24,0,-1,-13,8
16415,-37,-5,3,49,6,4,9,-46
16420,-1,2,21,-60,-10,-3,5,48
16425,-19,-1,4,86,10,1,-9,-14
16430,18,6,5,-28,-9,-5,-5,-3
16435,-15,-12,-10,9,4,3,7,7
16440,3,8,5,50,13,3,-7,-13
16445,15,6,-1,-14,-19,-6,-5,-6
16450,49,-7,8,8,3,-2,3,23
16455,-17,-3,-4,6,2,-2,-3,5
16460,-17,2,7,-8,4,1,-2,-9
16465,20,3,7,17,-1,0,3,-16
16470,1,-1,4,26,2,2,8,34
16475,7,-4,-20,-31,-4,-3,-3,8
16480,-20,0,1,49,10,4,-6,-17
16485,-12,-1,17,-31,-7,-4,-2,9
16490,18,-8,10,-15,-2,-1,-6,-48
16495,-2,9,14,-22,-4,-3,10,78
16500,1,5,-2,-13,2,-2,-2,-15
16505,14,1,3,32,0,-2,-4,-6
16510,-15,-4,-12,-36,4,3,4,-3
16515,-28,5,22,37,1,0,-1,19
16520,88,-7,-12,54,1,-7,-19,-31
16525,-33,-2,1,-45,-12,0,20,36
16530,-4,6,11,6,1,-2,0,-4
16535,7,0,0,10,3,1,-3,-15
16540,-30,-5,14,-7,-6,1,-3,-11
16545,5,0,-16,-7,9,3,7,4
16550,-1,-1,-29,-74,-6,-1,-2,-7
16555,35,5,21,18,0,2,-1,26
16560,-28,3,2,6,3,1,1,-1
16565,25,-6,2,49,9,0,-1,-4
16570,-30,-1,-30,-62,-10,0,-4,-5
16575,-1,-2,7,17,-1,-1,10,24
16580,-9,-7,-20,-73,-11,-2,-1,-7
16585,5,2,4,38,9,1,-1,-5
16590,-7,-7,-3,4,-5,-2,-1,9
16595,7,3,-4,-80,-4,-2,-11,-41
16600,0,-1,-25,-15,-10,-1,7,4
16605,-1,-3,4,45,11,5,0,32
16610,0,-1,19,21,-14,-8,-1,-9
16615,-13,-10,1,-8,-4,-3,-6,-20
16620,-34,5,1,11,5,2,3,-7
16625,-21,-17,-14,-31,-2,-2,-9,-21
16630,5,3,-5,62,10,2,0,5
16635,2,-1,-17,-50,2,2,-3,-30
16640,2,-2,12,15,-7,-5,8,46
16645,3,5,7,-10,-6,-3,-6,-7
16650,-11,2,22,9,9,1,0,7
16655,-29,-7,14,36,3,-2,1,-11
16660,42,0,-24,14,7,5,6,-49
16665,-29,4,14,-39,-3,4,1,53
16670,-2,-2,-5,75,-2,-7,-1,8
16675,-1,-5,-19,-50,-20,-12,-10,-6
16680,1,2,12,14,2,2,-4,-33
16685,15,2,0,8,3,-1,-1,8
16690,-24,0,5,37,13,5,1,-8
16695,7,-2,-9,21,1,3,0,6
16700,-25,-3,-8,-13,-8,-4,1,16
16705,-7,0,10,-35,-6,-6,-8,-38
16710,-8,0,-5,-11,4,2,5,7
16715,17,-7,7,-38,-7,-5,-1,3
16720,-37,2,2,-6,6,2,1,8
16725,64,5,-24,-17,-2,-1,-1,6
16730,-73,-29,-26,-21,-7,-3,0,22
16735,-40,0,-6,13,5,5,-3,-37
16740,16,5,9,11,-3,-3,-2,28
16745,-1,-3,4,27,3,-1,1,-11
16750,24,11,-1,-31,2,2,2,3
16755,4,-4,-4,27,-4,-1,0,-12
16760,-6,3,-4,-17,-1,-1,2,13
16765,-14,2,7,38,8,3,1,-38
16770,23,-3,-18,-34,-5,-3,-3,-35
16775,-14,6,5,9,-1,2,-3,28
16780,36,-9,-10,-55,-4,-1,-4,-16
16785,-36,-12,-20,-14,-8,-6,1,1
16790,-7,8,22,49,5,1,0,6
16795,34,2,-9,-17,1,1,1,-1
16800,-7,0,19,31,-1,-5,-6,-3
16805,-2,-2,18,25,5,-1,-3,2
16810,9,1,-3,24,1,2,-1,-9
16815,-9,0,1,20,-1,0,1,17
16820,-10,-6,15,-72,-6,-2,-3,4
16825,-7,-3,-33,-61,-14,-7,-7,8
16830,2,3,17,51,9,1,-3,-8
16835,17,1,-7,-29,-6,0,6,-16
16840,-12,-5,-2,30,2,0,1,23
16845,1,-2,12,16,4,0,-4,-35
16850,28,4,-5,-32,-5,-2,10,92
16855,-17,-2,5,23,4,-2,-9,-4
16860,-4,-3,-5,2,-1,0,5,-10
16865,38,-2,-14,-13,-1,1,-3,-9
16870,-79,1,0,22,2,-1,-5,-33
16875,53,-2,1,-1,-6,-2,-5,-10
16880,-4,2,-13,-22,-6,-2,-3,-18
16885,18,0,4,14,0,0,6,46
16890,-31,0,9,-19,-2,-1,-3,-12
16895,-16,1,-5,67,9,1,4,-4
16900,-4,-7,8,-94,-7,-2,-6,-21
16905,1,4,5,13,-4,0,1,15
16910,27,-2,2,37,4,-1,-6,-31
16915,-12,-5,-4,-42,2,-3,2,15
16920,20,1,-7,8,-10,-3,-2,4
16925,-38,-3,11,-3,4,-1,-5,-23
16930,23,3,-1,12,2,3,2,3
16935,-6,-2,3,15,10,2,1,8
16940,16,6,3,-31,-15,-5,-3,2
16945,-4,-4,-6,-8,-3,-1,0,-7
16950,15,3,5,2,-3,-2,-5,-8
16955,-13,2,1,20,5,3,6,-14
16960,0,-8,-2,36,8,1,-2,-13
16965,21,-1,9,4,3,3,12,60
16970,24,-5,-18,-2,-6,-2,-1,-9
16975,21,-3,-1,-58,-21,-8,-7,-12
16980,-58,-3,-9,35,7,4,2,4
16985,12,4,9,20,4,0,-1,-15
16990,-9,-1,1,10,6,1,1,10
16995,-13,-2,11,49,3,0,-1,31
17000,-8,-6,-13,-48,-8,-2,-5,-28
17005,51,0,-12,1,0,-2,-2,-17
17010,-10,3,6,-42,-7,-5,-5,-12
17015,16,1,3,38,5,3,1,-22
17020,12,8,12,53,13,3,2,47
17025,-52,-10,-9,36,1,2,-3,-12
17030,24,-3,-3,-29,-2,-1,-2,-9
17035,17,10,-8,-25,-10,-6,0,-5
17040,20,2,20,78,12,2,0,-1
17045,-13,1,-12,-7,-7,0,-1,-5
17050,4,-4,-9,-70,-3,0,-1,-4
17055,-19,2,-8,-8,4,0,0,5
17060,6,-1,4,6,4,-1,-1,3
17065,-29,-5,-7,0,-3,-2,-5,-44
17070,38,-1,16,-14,-6,1,1,-5
17075,18,-10,-4,-9,-2,-4,-3,2
17080,42,11,-11,6,-5,-2,3,-4
17085,-6,-3,-1,-51,-3,-3,0,6
17090,-21,5,0,51,7,2,-2,-31
17095,21,0,23,25,5,2,6,6
17100,-69,-7,-28,-40,-2,1,-6,9
17105,-8,14,25,-18,-7,-1,9,17
17110,-8,-8,-41,-15,-6,-2,-2,-9
17115,9,-7,-6,-68,-12,-1,8,-1
17120,-6,6,17,87,18,2,-6,-15
17125,10,-5,-8,-35,-1,-2,-6,-24
17130,5,9,12,-15,-6,-3,4,59
17135,27,8,22,75,7,2,-8,26
17140,21,-5,-13,-30,-4,0,4,-4
17145,-22,-9,0,29,3,-2,-4,-23
17150,1,-1,0,11,6,-1,2,10
17155,-23,-3,-22,-26,-2,-2,-2,-20
17160,5,-1,27,24,-4,-3,1,0
17165,14,4,13,-11,6,2,2,12
17170,4,-1,-16,-27,-6,-2,1,-7
17175,-30,5,8,-23,-1,0,0,11
17180,2,-5,-13,-22,-2,0,-2,-45
17185,11,5,0,20,1,0,3,37
17190,-39,-9,11,-11,-3,1,2,-22
17195,38,-4,-39,-16,2,-2,-1,19
17200,-36,1,19,82,-3,-4,-6,-8
17205,22,-4,-14,-79,-14,-5,-3,-2
17210,5,6,-2,42,5,1,2,1
17215,-5,-7,20,-22,1,-1,-8,-57
17220,-7,-6,-10,-9,-9,-3,-1,21
17225,7,3,-7,-11,7,3,-3,31
17230,9,-5,-8,-9,-2,0,12,-3
17235,-34,-5,5,-10,-4,-4,-8,-2
17240,52,1,-18,-25,-8,-4,-5,-18
17245,-28,-1,4,11,-3,-2,0,-16
17250,1,0,2,5,4,0,-8,5
17255,-5,-1,3,81,13,4,7,9
17260,-22,-6,-16,-76,-6,0,2,-24
17265,29,2,-1,-24,-14,-5,-3,33
17270,-27,3,5,-32,4,-2,-4,-49
17275,8,6,16,47,6,3,0,47
17280,-3,-1,-28,-25,-3,1,1,-7
17285,6,7,-10,67,7,0,-1,-20
17290,-1,-9,20,-37,-16,-8,-5,-3
17295,-17,-3,-6,-37,-7,-1,1,-24
17300,12,-3,8,26,9,3,1,29
17305,-8,-11,-19,35,5,-2,-9,-36
17310,-23,-3,-14,-41,-9,1,6,42
17315,-10,13,13,10,-4,1,-3,-13
17320,21,-12,-25,-57,-15,-9,-7,40
17325,-39,4,23,35,7,2,4,-22
17330,-33,-10,-1,43,10,2,-5,-12
17335,7,-7,-7,-3,-2,-3,0,-25
17340,12,6,5,-22,-3,-2,3,17
17345,-13,-3,-4,-18,1,1,-7,-20
17350,18,1,4,42,2,0,0,9
17355,2,-1,-12,-5,3,1,-1,2
17360,6,4,9,-27,-1,1,-2,-24
17365,28,-3,30,25,-2,-1,5,13
17370,-22,-19,-36,-2,-6,0,-4,-5
17375,-14,-7,3,1,-5,-2,-1,-3
17380,-9,0,4,-25,-6,-3,0,17
17385,-6,-5,-9,20,0,1,2,-16
17390,30,14,38,23,5,-1,-4,-2
17395,17,0,-23,9,7,0,-6,10
17400,-23,-3,15,-8,1,2,1,-7
17405,-8,-3,-16,7,-4,-2,-3,1
17410,12,7,-6,-3,1,3,-4,-4
17415,-4,1,21,11,-6,-2,6,0
17420,4,-2,-14,8,5,2,0,8
17425,-23,-2,5,-13,-2,-1,-3,-29
17430,29,2,-3,-8,4,1,10,25
17435,-19,-5,-7,-22,-4,-3,-10,17
17440,14,1,16,41,8,3,14,15
17445,-58,0,-8,-57,-5,0,-2,8
17450,30,17,29,54,15,3,-8,-48
17455,-22,-13,-45,-27,-16,-7,0,12
17460,6,10,1,-1,-5,0,6,-15
17465,57,-2,3,18,2,0,0,29
17470,-35,3,-1,-43,-3,-3,2,-8
17475,12,5,10,-1,5,1,-3,-5
17480,-1,8,11,62,14,4,-6,-10
17485,9,-15,-29,-13,-14,-6,-2,-4
17490,-17,2,1,-38,-11,-5,2,15
17495,8,-1,10,10,2,0,-3,-9
17500,-18,-10,-11,-7,-5,-3,-1,1
17505,-8,1,5,-7,5,2,-3,-29
17510,9,-7,-12,3,-1,0,-3,11
17515,4,3,-2,-16,-1,0,3,-2
17520,-26,-7,25,49,5,0,-6,-12
17525,20,11,6,1,4,-1,4,2
17530,12,-7,-17,-14,-7,-4,-2,-23
17535,3,-3,-2,-8,4,3,5,19
17540,24,6,-5,0,-1,2,-3,-11
17545,-8,-1,-7,1,-1,0,2,8
17550,1,-2,-9,16,7,3,2,35
17555,-13,0,59,22,-18,-11,-8,-26
17560,-10,2,-34,-60,5,1,-2,-5
17565,-3,-8,1,-17,-13,-4,-1,14
17570,3,3,-3,42,8,2,-1,2
17575,-9,2,1,19,5,2,-2,-5
17580,1,0,3,-1,-2,-2,-1,9
17585,-2,1,5,-13,4,0,1,-5
17590,9,4,22,43,9,3,-6,-5
17595,74,-8,-58,-61,-4,-3,-8,-56
17600,-28,-16,12,-55,-21,-9,6,56
17605,16,16,-1,-11,1,1,-8,-19
17610,-12,2,17,19,-12,-6,4,-23
17615,-1,9,4,-7,10,3,-2,26
17620,-8,0,9,89,15,1,-8,-38
17625,5,1,10,6,7,3,7,27
17630,-27,-13,-6,-19,-4,-1,-8,-17
17635,-47,12,-14,30,5,3,5,21
17640,-11,-15,-6,-19,-6,-1,6,-21
17645,-14,-7,7,-47,-8,-5,-3,36
17650,-21,-5,-13,-14,-3,-1,-2,-14
17655,4,-1,3,-16,-5,-2,3,4
17660,14,7,6,33,4,-1,-6,3
17665,-4,4,1,34,8,5,1,-13
17670,16,-2,7,15,-1,1,8,9
17675,-14,-5,-12,30,2,0,-1,-16
17680,6,2,7,-82,-18,-9,-9,-18
17685,-3,-4,-26,-59,-7,-2,-3,3
17690,23,1,-11,-37,-7,-3,2,8
17695,-23,3,20,7,2,1,-2,25
17700,0,3,7,41,9,3,1,-7
17705,-7,-7,-8,5,3,-1,-12,-17
17710,5,-3,-10,-7,-1,-4,6,-9
17715,8,-8,14,9,0,0,5,54
17720,26,9,-14,-5,-1,0,-5,39
17725,-33,-6,-28,55,-4,-2,2,-11
17730,-2,-3,-2,-81,-22,-7,-12,6
17735,-12,-1,16,38,5,-1,-1,-30
17740,5,0,6,33,5,1,5,-2
17745,17,1,12,19,-5,-2,-4,5
17750,-48,-6,2,8,4,3,-1,-20
17755,54,13,-14,-33,-9,-2,3,18
17760,-31,-16,8,72,16,4,-1,26
17765,1,-1,-19,-72,-19,-3,3,-5
17770,2,-10,1,105,2,-3,-5,4
17775,-7,-1,11,37,1,-1,-4,-31
17780,7,9,-14,15,-1,0,-8,-30
17785,0,-1,15,5,11,5,9,18
17790,22,2,7,-14,2,3,0,68
17795,-9,-11,-10,-14,2,0,-1,-16
17800,-74,0,-11,6,-5,-4,-6,-39
17805,2,-12,-9,-36,-10,-3,1,25
17810,22,3,-15,-27,2,0,-1,-8
17815,-11,-2,16,27,3,-2,-4,1
17820,14,-2,-11,-39,-4,1,4,5
17825,-5,6,5,28,4,-2,-1,-14
17830,-1,-3,7,22,0,-2,-4,-19
17835,16,-7,-8,0,5,3,5,7
17840,-23,7,-17,-18,-8,1,1,-13
17845,22,8,25,3,-1,-2,-1,9
17850,37,-4,-14,-4,5,2,-2,-14
17855,-15,4,7,-68,-21,-7,-5,-18
17860,21,4,21,54,9,2,-5,-26
17865,4,3,-1,46,8,6,4,21
17870,-23,5,-4,-24,4,4,16,3
17875,-9,-5,-26,10,-1,-1,-4,6
17880,-10,-9,-6,-45,-12,-5,-4,-9
17885,3,2,15,29,4,-1,-10,-25
17890,12,-3,-3,-64,-12,-3,-3,-11
17895,4,1,-1,-16,-2,1,5,36
17900,29,3,1,1,3,-1,2,-18
17905,0,-5,-5,7,7,2,1,4
17910,-5,2,-1,26,-2,0,3,-4
17915,1,6,-7,35,4,-2,-7,-27
17920,11,-10,-29,-37,-13,-6,-1,3
17925,-4,-2,24,-59,-6,-4,1,4
17930,0,3,9,47,7,0,-9,-9
17935,21,7,-6,-32,6,6,9,-14
17940,-10,-17,4,12,-3,-1,4,42
17945,40,4,-10,-1,-6,-5,-1,4
17950,14,-10,-6,-1,-7,-2,-8,-44
17955,6,1,-1,4,1,-3,-2,53
17960,17,3,-3,21,7,1,2,-4
17965,-2,0,-11,-38,-12,0,9,15
17970,-9,6,19,36,12,0,-8,16
17975,-49,-8,-6,-36,-8,-2,-1,-5
17980,20,-1,-3,-55,-4,-3,-4,-16
17985,-42,-3,5,24,8,-2,-6,-19
17990,-11,5,-5,10,-3,0,4,1
17995,3,-12,2,-10,-8,-4,-5,2
18000,10,10,-1,55,12,3,1,14
18005,-15,-3,18,-51,-15,-5,2,7
18010,23,0,-6,3,1,-2,0,15
18015,-8,3,17,71,5,0,3,-24
18020,-8,-2,6,-48,-2,0,-1,6
18025,2,-2,-12,57,6,0,-7,-25
18030,-8,3,-2,11,-2,-2,-1,29
18035,55,-4,-1,-49,-2,0,4,37
18040,-9,-2,-4,34,-3,-2,1,-2
18045,-8,-2,-17,16,3,0,-2,-21
18050,-7,0,12,-10,0,-2,-7,-34
18055,-15,-5,-19,9,6,1,1,6
18060,-5,-2,-3,-38,-5,0,0,-5
18065,7,-9,0,25,6,0,-1,0
18070,16,2,10,-57,-16,-4,-6,-26
18075,-5,0,-5,20,-1,-1,9,4
18080,5,0,13,6,2,-2,-1,-12
18085,0,11,8,16,2,2,-3,9
18090,-10,-5,-25,4,12,3,8,35
18095,-38,-1,7,5,-11,-5,-9,-62
18100,3,-9,-7,-6,-10,-5,-3,21
18105,15,4,25,14,10,1,2,13
18110,-50,-12,6,7,-2,-2,1,-7
18115,13,-2,-20,-29,2,1,-10,-29
18120,-14,8,13,37,5,4,7,50
18125,34,2,-2,-21,1,1,9,3
18130,0,3,0,74,9,4,-3,-17
18135,-35,-2,10,-81,-16,-2,6,16
18140,15,1,-9,-30,-9,-1,-8,-11
18145,-11,4,-3,13,6,1,0,-22
18150,35,2,-5,1,-2,0,7,51
18155,-25,-3,5,52,10,0,-5,-22
18160,2,-2,3,-5,1,-2,-2,8
18165,-10,-2,-14,-3,-3,-2,1,-18
18170,28,5,-6,26,-1,0,-1,-14
18175,8,-4,-8,-21,-5,-3,-4,7
18180,-2,3,5,-27,-2,1,2,-35
18185,-39,-10,-3,18,1,-1,-12,-40
18190,33,9,-3,-42,-10,-5,-3,20
18195,-53,-10,2,15,4,3,3,17
18200,7,-1,-12,10,5,0,2,-15
18205,-4,-4,6,25,-7,-3,3,-15
18210,4,-5,9,15,-2,-1,-6,50
18215,10,7,-7,-29,-4,-2,3,-22
18220,-10,-2,5,2,1,0,-2,7
18225,-4,-4,-17,-14,0,0,0,25
18230,-3,3,15,1,2,-2,-4,-14
18235,-23,-4,-6,5,1,6,0,-7
18240,27,-1,-1,7,0,-3,-6,-51
18245,23,5,0,50,-3,-3,-3,55
18250,-2,0,6,-35,0,0,6,-12
18255,17,1,0,65,17,3,-3,5
18260,-13,-6,1,-92,-31,-6,0,-9
18265,-3,-6,-26,24,0,1,-5,-18
18270,-27,-1,5,8,0,-6,-5,-14
18275,1,-9,12,63,3,2,2,12
18280,-27,-2,-27,7,7,3,19,8
18285,-17,3,8,-24,4,4,6,25
18290,32,-13,-23,-86,-16,-2,-7,16
18295,-16,12,20,41,6,0,9,65
18300,45,17,24,68,11,-2,-17,39
18305,-65,-10,-26,-40,-7,1,19,-16
18310,18,1,-17,-7,-2,0,5,-35
18315,6,-2,-1,-3,-3,-1,-8,-17
18320,6,-3,-3,-9,-6,-3,-5,10
18325,11,-4,0,13,9,0,-9,-31
18330,-2,3,-1,-31,-7,-3,5,7
18335,-15,-8,-13,-47,-10,-6,-12,-34
18340,-42,-11,-7,29,18,2,7,-5
18345,40,9,24,21,-15,-1,-10,4
18350,-38,-3,-9,-36,3,4,3,-23
18355,67,20,7,-7,1,2,0,30
18360,-15,-1,-6,1,-6,-4,-4,-17
18365,-40,-9,28,-11,2,-1,-1,8
18370,39,6,-4,27,1,0,-1,-20
18375,-2,4,-14,-52,-9,-3,0,22
18380,18,1,26,75,14,3,6,19
18385,9,3,-16,-35,-8,-6,-9,9
18390,-19,-6,-4,-25,-5,-2,-2,16
18395,20,-3,0,22,6,2,0,-20
18400,-23,-3,-6,-19,2,2,-2,-26
18405,48,8,3,25,-5,-4,-2,43
18410,-40,-21,1,48,9,-1,-7,-46
18415,-21,0,-3,-85,-14,-1,7,-11
18420,-2,0,10,34,2,-1,-5,14
18425,-37,3,-13,-10,5,0,-5,-53
18430,33,8,2,15,1,2,-5,48
18435,-18,-5,-8,56,1,-4,14,-8
18440,55,-3,-5,-46,-12,-2,-6,5
18445,15,-4,-23,-38,-1,-7,-4,-36
18450,-50,0,17,79,5,0,-17,3
18455,12,2,-12,-81,-9,-4,2,23
18460,-5,3,4,-7,-2,0,5,5
18465,-15,-17,-20,-2,-15,-7,-8,10
18470,-7,10,-3,63,8,1,6,-14
18475,11,-10,-13,-6,2,-4,-13,-15
18480,18,16,-3,10,-9,1,5,8
18485,2,-2,7,-38,-1,5,9,4
18490,-23,-4,-1,-44,0,-2,0,-6
18495,7,3,-1,59,8,1,-2,-5
18500,-9,0,5,-41,-5,-2,0,6
18505,0,0,28,61,10,0,3,-6
18510,-21,1,6,11,-2,-2,-5,12
18515,8,-4,2,-5,-6,0,11,-2
18520,-13,3,-9,-9,6,1,-10,-41
18525,13,-3,-17,6,2,-1,4,45
18530,-4,-9,-1,-15,5,5,13,-10
18535,56,8,10,-41,-20,-6,-15,0
18540,33,-5,10,25,4,0,-1,-9
18545,0,5,-3,-34,2,-2,1,30
18550,9,-7,7,80,6,-2,-6,-53
18555,2,1,1,-51,-6,2,4,52
18560,-20,-11,-6,-38,-11,-4,4,16
18565,35,12,6,53,9,2,-23,-42
18570,-109,-13,-2,-35,-17,-6,22,27
18575,31,11,23,33,1,-1,-12,-6
18580,-41,1,6,19,8,-2,16,-4
18585,1,6,18,25,15,6,-6,-8
18590,11,-4,-6,-78,-18,-5,-3,7
18595,-48,-6,-4,38,0,-6,-5,-34
18600,6,2,-22,47,7,3,-5,-4
18605,-6,-5,0,-17,-5,-2,7,-11
18610,56,7,-2,-81,-7,-1,-2,37
18615,8,-5,11,31,10,3,-3,0
18620,16,-8,-17,-1,1,-1,-11,-17
18625,-29,1,-3,61,6,3,5,-15
18630,-2,1,9,-53,-2,0,-4,-14
18635,13,3,-1,21,-7,-2,-1,-13
18640,-49,-11,3,12,-2,-2,-6,18
18645,6,-8,-9,-48,-4,0,14,7
18650,24,15,15,49,10,0,-3,7
18655,-18,-11,-21,6,11,3,-39,-28
18660,9,-3,13,10,-15,-3,50,-2
18665,10,2,6,-17,-6,0,-5,33
18670,-2,-6,-44,-50,-11,-4,-7,-42
18675,1,-16,-4,9,3,-1,1,-7
18680,35,10,12,-25,-2,-1,-13,56
18685,-49,5,4,9,-3,-1,-2,20
18690,81,12,8,35,8,7,11,11
18695,-26,-1,-4,13,-4,-5,-4,3
18700,4,0,1,-5,6,0,1,-37
18705,1,-1,0,-38,-13,-7,-6,-23
18710,-63,-17,-17,14,3,0,-6,15
18715,-6,0,3,5,-2,1,12,6
18720,-15,-1,9,-17,7,1,-10,5
18725,9,3,-12,39,3,-1,-3,-8
18730,9,1,15,-2,-9,-2,9,7
18735,20,6,-10,42,14,6,7,-5
18740,-18,-11,-27,-25,-4,-4,-4,0
18745,4,-4,20,-64,-16,-4,-15,-3
18750,26,-3,-1,43,11,1,9,10
18755,7,-4,-4,-10,-2,-2,-1,-34
18760,-39,6,6,-4,0,-1,-10,43
18765,-30,-5,-13,9,3,3,17,-3
18770,8,2,4,20,-4,-5,-14,-71
18775,31,12,0,-8,1,4,5,82
18780,17,0,-9,14,6,2,2,-41
18785,28,5,15,55,-2,-5,-7,-6
18790,-33,6,-6,-65,-4,1,0,-5
18795,-5,-5,-2,-8,-9,-4,4,-24
18800,-17,-13,-7,-14,4,1,-5,4
18805,-29,-6,13,-31,-4,2,1,-1
18810,49,14,-1,48,1,-3,3,71
18815,-6,1,7,-43,-7,-2,-4,-10
18820,6,5,6,25,2,1,-7,0
18825,-32,-6,10,-10,-3,-2,0,-31
18830,-11,-7,-6,49,8,2,-12,0
18835,-3,-4,-11,-95,-14,-7,11,-4
18840,6,-6,-12,10,-8,-6,-6,-18
18845,20,-2,-17,-13,3,4,10,21
18850,4,3,27,19,-4,1,-9,-3
18855,-9,4,-11,29,12,5,4,-1
18860,13,13,14,0,-13,-5,-15,-28
18865,33,-4,-25,-32,-4,-2,29,52
18870,-19,5,18,2,0,-2,-4,21
18875,-13,-5,-11,11,-4,-4,-18,-14
18880,39,3,22,-18,5,4,21,6
18885,5,-6,-16,40,10,1,-9,-21
18890,-19,-14,-15,21,-5,1,0,-19
18895,-17,0,-10,-21,3,2,2,3
18900,6,3,23,18,-4,-5,-13,1
18905,-11,-3,-10,-7,-4,-3,13,38
18910,10,-1,17,28,9,1,-9,-32
18915,1,-7,-22,-39,-2,0,5,-5
18920,5,-1,0,-13,-5,-1,-6,49
18925,19,11,-19,22,12,3,-6,-27
18930,-20,-6,14,-38,-15,-5,-1,11
18935,-38,-17,-11,20,-2,-2,-6,-37
18940,-14,14,-1,-10,3,3,7,59
18945,23,-5,0,-31,-6,-3,-8,-3
18950,-27,2,-5,14,4,0,8,11
18955,10,5,38,9,0,0,4,-26
18960,8,-3,-18,-5,6,2,4,-34
18965,-38,-7,2,48,-8,-4,-11,2
18970,11,2,-13,-31,-7,-3,-2,-5
18975,1,-2,-8,-42,-13,-2,14,0
18980,-14,-3,6,73,13,-1,-3,-21
18985,-18,-1,-4,-41,-3,4,-3,9
18990,12,0,5,37,6,-1,-2,-10
18995,4,-1,8,-10,-7,-1,-5,1
19000,-37,-1,-17,-25,3,3,0,-9
19005,21,1,29,4,-1,0,-2,-18
19010,-9,-9,-42,-11,1,-2,-3,-25
19015,14,2,10,58,1,1,-8,69
19020,-29,-9,-22,-87,-21,-8,6,-21
19025,17,-2,12,35,6,-1,-6,-11
19030,2,8,-3,-24,2,3,1,10
19035,3,0,4,50,6,0,-18,-15
19040,33,-8,-16,34,4,2,14,-21
19045,-14,1,-3,-82,-19,-6,0,25
19050,5,-1,7,10,-1,-3,0,22
19055,18,7,15,-19,8,4,5,-2
19060,-20,-7,-8,-22,-17,-5,-18,10
19065,28,-4,-10,20,10,0,9,-24
19070,11,2,15,11,-3,0,-4,55
19075,5,-4,-2,70,5,0,5,-6
19080,5,0,-9,-88,-7,0,-5,-3
19085,-24,3,9,26,6,2,-4,-50
19090,0,-2,-6,-13,1,2,-3,65
19095,-24,2,-5,45,9,0,16,10
19100,42,15,25,-36,-17,-5,-9,-9
19105,-8,-9,-24,11,-6,0,8,15
19110,2,-5,3,1,9,1,2,-19
19115,-6,5,3,9,5,3,-4,-10
19120,-4,-8,-2,86,-3,-3,1,41
19125,-7,7,22,6,0,-5,-7,16
19130,16,3,-8,-31,-2,-2,-5,-30
19135,-22,-6,0,-3,-9,-3,18,15
19140,2,0,0,0,3,-2,-3,-29
19145,18,-4,-4,-1,3,1,-10,35
19150,-12,-9,-20,-6,1,1,2,-57
19155,-30,-2,-10,-56,-7,-2,-10,7
19160,-10,-7,-7,5,-2,0,0,-6
19165,6,-4,-17,25,2,-1,-2,0
19170,-21,6,-4,27,-4,0,6,10
19175,10,-1,15,-64,-9,-6,-14,-1
19180,5,0,8,54,7,-3,2,-4
19185,-43,-13,1,-15,7,2,-6,-8
19190,44,5,3,15,-5,-1,7,-16
19195,30,4,17,32,10,-3,-4,-27
19200,-43,-4,-8,-45,-6,-1,2,30
19205,-13,-5,5,2,1,0,1,-27
19210,10,-1,-22,-43,-2,0,0,-19
19215,1,6,20,56,9,2,1,23
19220,50,12,-25,-28,0,2,-7,-4
19225,-7,-14,-8,-18,-11,-6,-2,-40
19230,-25,-7,-4,4,-5,0,-2,-21
19235,4,0,11,-17,-2,-6,-3,8
19240,9,2,12,55,11,1,-2,-13
19245,4,12,-7,1,7,3,-16,1
19250,23,-4,-15,-4,-14,-4,20,11
19255,-6,-2,2,-22,-3,1,3,13
19260,-9,4,-9,-14,-3,0,-1,1
19265,3,5,23,30,2,-1,3,-17
19270,-7,-11,-12,-30,-7,-3,-18,15
19275,-18,-16,-3,27,4,1,6,38
19280,-12,4,13,33,10,6,14,30
19285,33,1,-4,-47,-9,-4,-7,-5
19290,-41,10,19,14,-2,-5,-7,-14
19295,6,-10,-5,28,-2,-1,-1,-24
19300,-41,0,-4,-26,5,1,-2,-27
19305,10,11,-4,-11,3,2,4,17
19310,13,0,18,29,5,4,7,-6
19315,-19,6,3,-15,-8,-5,-3,20
19320,8,-7,2,34,4,1,-1,0
19325,0,7,3,7,-7,-2,2,4
19330,-5,0,8,69,13,1,0,-2
19335,8,-1,-27,-84,-15,-1,0,-16
19340,11,2,6,52,6,-3,-6,-17
19345,-4,2,-6,-53,-9,-2,8,34
19350,8,-7,1,15,4,2,-9,-2
19355,1,-3,6,17,-5,-8,-26,-46
19360,-17,-4,-16,-2,1,2,33,39
19365,32,6,-9,13,6,1,-4,37
19370,-59,-7,-3,-39,-4,-5,-6,-33
19375,2,4,9,25,6,3,1,-44
19380,5,-3,13,5,-9,-4,0,64
19385,1,-13,-24,44,2,-2,-4,-23
19390,97,14,6,-58,1,3,3,33
19395,-21,-9,20,66,-6,-6,-7,-25
19400,-34,-23,-7,-23,1,-5,-11,-28
19405,16,-1,-10,-5,-4,2,3,2
19410,-7,-4,-12,26,4,3,2,-4
19415,26,10,19,-13,-8,0,4,11
19420,10,-7,-8,-83,-4,-5,-14,-14
19425,-10,6,8,73,7,3,2,3
19430,-4,4,-19,22,-1,-1,6,6
19435,6,-3,0,-66,-3,1,1,11
19440,-15,-3,1,53,1,-1,-6,-7
19445,-30,-1,2,-17,1,-2,-4,-81
19450,-31,-4,3,33,-1,-3,-5,39
19455,-24,2,-30,-47,3,2,-5,-27
19460,56,7,7,-70,-6,0,5,-14
19465,19,-22,1,21,-1,-2,-6,-31
19470,29,10,29,13,11,2,-9,10
19475,-37,-7,-15,35,4,-2,10,-2
19480,-1,1,3,30,-3,1,-2,-9
19485,-1,8,-3,-45,0,0,3,3
19490,-5,-4,12,-13,1,-1,-8,-19
19495,50,3,-7,1,6,3,7,39
19500,-60,-3,-28,-89,-14,-2,-1,0
19505,20,4,18,45,-1,-5,1,37
19510,-3,1,8,41,4,-1,1,-11
19515,-21,5,-10,-28,-1,-1,-6,4
19520,48,2,5,117,13,4,3,4
19525,33,3,-21,-127,-13,-2,-3,3
19530,-21,-9,22,29,-6,-3,8,12
19535,0,5,-11,-11,0,0,2,-33
19540,1,3,14,52,7,-2,-13,27
19545,-25,-2,5,33,-1,2,2,-13
19550,-4,-8,-32,53,7,0,3,1
19555,-49,-6,-12,-86,-37,-7,-5,-8
19560,18,-4,10,98,10,-3,-4,-2
19565,-25,4,24,34,3,0,0,-1
19570,6,7,-9,1,3,1,2,-19
19575,19,0,-6,-5,7,3,4,48
19580,50,10,-5,-38,0,2,5,-8
19585,-25,-6,-2,56,-5,-7,-6,-3
19590,17,-12,-5,-89,-13,-2,-5,-5
19595,3,2,0,35,4,2,0,-11
19600,17,7,-11,0,10,4,0,7
19605,-10,-12,-12,-61,-11,-5,3,2
19610,19,5,9,22,3,-2,-8,10
19615,19,-10,14,-17,-8,-4,-2,-24
19620,-50,-6,-12,25,-4,1,15,28
19625,26,8,10,55,10,2,-3,0
19630,-72,-8,-9,-50,-10,-2,0,-5
19635,21,4,-13,-8,6,-1,-5,-33
19640,41,12,3,-13,-5,-2,-11,-12
19645,-32,-22,-2,-19,-1,1,6,-5
19650,42,16,0,34,3,-3,-4,-36
19655,17,-6,-5,-22,-7,-3,2,86
19660,12,2,25,42,3,0,-2,-36
19665,13,3,-2,-4,-8,-2,-3,18
19670,-28,-3,-16,-16,-6,-2,0,-24
19675,-24,-3,9,66,11,3,-3,-15
19680,-39,1,18,8,-2,-2,1,-12
19685,-42,7,6,15,5,4,0,23
19690,-3,-1,2,13,-2,0,2,4
19695,54,10,-15,-45,4,1,3,7
19700,-37,5,-8,-17,-8,-6,-25,-16
19705,11,0,-18,-17,1,3,24,-14
19710,-46,-7,-22,-65,-5,-2,-1,24
19715,-1,-4,5,26,-7,-2,-2,52
19720,26,-2,-7,-5,-1,0,-6,-37
19725,16,-7,-22,-19,3,0,-3,35
19730,-64,2,29,16,-7,-2,-3,-16
19735,82,12,14,21,5,2,5,50
19740,-16,-11,17,46,8,-1,4,5
19745,30,17,14,-17,-13,-5,-7,-11
19750,8,-6,-30,-68,5,4,5,71
19755,19,-7,9,55,8,1,-3,-35
19760,-96,-1,-44,-113,-3,-1,7,-15
19765,28,-7,15,44,-10,-5,-11,-11
19770,76,12,23,81,9,3,7,-15
19775,-29,-3,5,39,-1,-4,-6,-23
19780,22,-3,-19,-41,-1,-1,10,44
19785,-19,-2,-11,-21,3,2,-3,-16
19790,8,-5,-2,-42,-10,-2,-4,4
19795,-26,-6,-17,-39,-4,-2,-4,-28
19800,-17,-1,15,32,-5,-1,6,-5
19805,77,14,7,44,10,-1,-3,-5
19810,12,-4,27,-24,-9,-7,-1,26
19815,-46,-12,-29,-19,-2,-3,1,0
19820,20,0,-5,23,-1,-2,-11,-45
19825,-18,1,12,56,12,6,-1,30
19830,-11,6,-4,-15,-7,0,-4,-18
19835,6,12,19,42,12,2,3,-21
19840,-46,-23,-11,-70,-29,-12,-10,3
19845,43,3,-16,14,11,2,-2,5
19850,-65,1,6,-9,-1,3,7,-28
19855,5,-2,-17,-12,1,0,0,12
19860,23,5,4,61,3,-3,-2,-20
19865,-27,-1,-4,-48,0,1,-9,27
19870,8,-3,5,23,3,0,14,0
19875,1,1,1,5,1,1,-2,-29
19880,-18,-1,12,18,17,6,4,45
19885,14,-8,-8,-77,-26,-7,-10,-42
19890,69,4,-11,10,2,1,5,39
19895,-12,7,4,33,10,3,2,2
19900,-5,-24,-10,-128,-30,-2,-4,-6
19905,-44,5,29,127,21,-3,2,-14
19910,2,6,-40,-12,8,4,-3,-51
19915,16,-12,20,-55,-13,-6,-6,-19
19920,42,11,-13,0,7,5,9,27
19925,-22,-1,-1,-52,-5,1,13,31
19930,-11,-7,6,33,3,-3,-20,-28
19935,-22,-2,4,40,3,2,22,5
19940,-32,5,6,47,10,1,-2,-19
19945,10,-13,8,-88,-21,-3,8,-28
19950,-5,4,7,47,3,-6,-13,28
19955,4,0,-5,61,9,0,-11,-10
19960,32,9,25,-58,-8,-2,3,36
19965,-45,-8,-28,5,-2,-6,-6,-51
19970,-20,-4,-32,44,3,4,0,30
19975,-5,-7,13,-116,-19,-5,-3,-4
19980,13,3,28,108,7,-3,0,-9
19985,-9,4,-11,-39,6,3,-4,-5
19990,20,-9,1,-12,-3,-5,0,-7
19995,-10,12,8,115,12,4,1,9
20000,-10,-11,1,-100,-20,-4,-6,-12
20005,22,-7,-2,-48,3,3,-4,16
20010,-35,-4,14,8,-11,-8,-7,-7
20015,17,23,3,-38,-4,7,15,2
20020,68,18,-57,29,11,5,-4,-16
20025,-67,-8,-17,66,0,-6,-2,32
20030,-52,-4,22,-86,-4,-2,-14,-30
20035,-24,5,-7,-58,-12,-7,-4,-12
20040,-15,2,-2,36,16,4,5,32
20045,7,11,10,48,-2,0,-2,13
20050,24,1,5,16,4,-1,3,-16
20055,-32,-9,-24,-26,-3,-3,-12,5
20060,35,-6,24,113,8,2,7,-10
20065,-1,0,-32,-82,-16,-2,-1,4
20070,7,-1,37,41,14,6,8,6
20075,17,-15,5,116,-3,-7,-6,8
20080,-11,-1,4,30,3,0,-4,-22
20085,21,15,16,34,19,9,1,-24
20090,-19,-53,-24,-80,-28,-9,2,29
20095,-52,12,5,-30,8,-1,-10,-36
20100,17,-6,3,10,-13,-7,4,22
20105,28,6,-12,27,2,-1,-12,-17
20110,4,12,19,-24,-4,5,26,21
20115,33,-26,-45,23,8,-3,-21,-10
20120,-81,-2,2,-109,-15,-3,10,-22
20125,-7,2,10,1,-18,-7,-2,-6
20130,26,5,-21,16,9,0,-15,-14
20135,12,3,11,34,-4,0,0,7
20140,21,9,-1,-45,-4,0,-4,-11
20145,-1,-10,-13,11,-5,-2,2,-21
20150,-8,-2,-2,16,-2,1,-1,19
20155,-6,20,45,46,14,-1,6,-30
20160,42,-1,-33,-18,-16,-3,-4,70
20165,14,2,-18,16,-4,1,4,-20
20170,40,-3,-36,-28,-25,-11,-9,12
20175,-7,-5,22,63,2,-3,3,19
20180,-27,-10,-25,-58,-1,-2,-8,-47
20185,-29,1,26,2,9,3,5,12
20190,25,7,-10,17,7,4,3,0
20195,18,-9,-31,-79,-16,-3,-1,6
20200,-69,10,30,86,17,1,-4,-7
20205,-2,-14,18,-43,0,0,-1,-2
20210,0,5,-17,-36,5,3,1,10
20215,22,-6,41,-26,3,2,2,37
20220,12,3,-4,11,-3,-4,-4,-7
20225,-29,-3,16,85,10,2,5,29
20230,-5,1,6,-15,-8,-2,-3,-27
20235,2,-1,8,37,-2,-1,2,3
20240,20,-2,-7,-13,11,6,9,28
20245,-13,-1,16,56,-2,-7,-6,-28
20250,-3,4,-11,-20,6,-1,1,-3
20255,-15,-27,-24,-101,-14,1,-2,-7
20260,-66,1,-16,-30,-8,-4,-5,6
20265,23,-2,35,63,12,4,5,-19
20270,55,8,-26,-47,5,5,0,19
20275,-2,0,-2,-9,-13,-3,3,-11
20280,27,0,25,44,9,-1,-4,-21
20285,-5,-8,-20,-25,-2,1,0,18
20290,-17,0,27,8,0,0,-1,-14
20295,0,-1,-35,-80,-10,-4,-2,10
20300,-19,0,22,34,1,-6,-15,-33
20305,33,-2,-1,32,-7,-2,11,42
20310,15,9,0,-10,9,8,5,-19
20315,-11,-9,-49,6,-15,-8,-2,55
20320,15,-1,34,39,9,-1,0,13
20325,76,7,-26,-62,-4,2,-3,-5
20330,-17,-13,-10,-9,-21,-12,-5,-43
20335,6,1,15,103,-3,-3,7,34
20340,56,-3,6,9,4,3,-8,-13
20345,7,5,-13,2,1,-2,0,27
20350,-63,-5,4,17,7,5,6,-11
20355,23,34,-3,-59,4,4,-3,-10
20360,-3,-30,-12,87,-5,-6,-1,-2
20365,-59,7,-3,49,3,-2,-9,-57
20370,87,2,18,-40,-13,-7,-4,40
20375,-8,-10,-8,9,12,3,-3,-6
20380,-3,-5,-34,-70,0,4,-1,9
20385,-9,-3,14,37,-5,-9,-3,-3
20390,52,13,46,119,8,0,-4,-18
20395,-99,-32,-15,-79,-5,2,-2,-14
20400,38,15,-6,2,5,5,2,-9
20405,11,11,4,-1,1,3,4,-11
20410,-99,-6,17,15,-1,-4,-3,39
20415,42,18,14,29,10,5,1,33
20420,-32,-12,-30,20,-14,-9,9,-29
20425,-12,-1,16,-29,3,1,-5,-1
20430,-21,0,-12,29,7,5,6,16
20435,16,11,17,49,23,9,26,-33
20440,-16,-9,-34,-66,-6,2,-12,-16
20445,46,-2,-11,-25,-18,-6,-7,55
20450,36,1,13,12,9,-4,-10,-20
20455,3,-10,-35,3,-14,-7,-8,-20
20460,3,5,44,17,6,-2,3,13
20465,-16,2,-23,-69,2,5,3,-1
20470,-18,-21,-76,35,-2,-3,-5,-8
20475,2,10,37,4,6,2,-4,-2
20480,25,-18,-28,-24,-16,-7,-5,-5
20485,-45,-19,-3,-33,-9,-6,-5,-8
20490,-1,3,36,66,10,4,5,-1
20495,33,16,0,66,4,-2,-7,-2
20500,-24,-8,14,0,2,2,8,7
20505,56,13,-3,-39,6,4,6,-10
20510,7,-5,-1,-18,-5,4,10,3
20515,-16,-4,30,0,-9,-8,-6,-16
20520,14,18,-15,53,19,7,-5,9
20525,-28,-23,-72,-78,-20,-9,5,20
20530,25,18,-1,27,-11,-4,-5,-21
20535,-78,-13,-39,40,8,0,-10,-12
20540,48,10,7,-101,-2,2,-8,4
20545,-8,5,59,98,-2,-5,-2,-8
20550,-17,-10,23,-85,-7,-3,-4,-13
20555,37,6,68,79,15,5,2,9
20560,-8,-1,35,-27,-23,-6,4,-10
20565,-22,-15,96,27,16,1,-3,7
20570,21,6,-45,-93,-13,-4,0,10
20575,0,-3,-16,37,-1,0,2,-13
20580,-22,6,3,90,4,-2,1,17
20585,30,5,-51,-46,0,5,4,-11
20590,-87,-19,-11,81,4,-1,-5,6
20595,-13,4,-38,-90,0,2,2,-6
20600,-43,-28,2,43,-1,-3,-1,-10
20605,12,16,-19,-36,-11,-6,-8,-4
20610,-12,-12,18,64,16,4,1,3
20615,13,-7,-27,36,1,-1,-4,-13
20620,-2,-4,12,-37,-26,-12,-4,9
20625,3,1,5,47,16,2,4,13
20630,-14,8,-1,4,-4,-4,-7,-22
20635,66,3,13,-56,-7,-4,-5,-8
20640,-17,11,-11,23,9,4,4,-21
20645,1,1,-1,5,-2,0,-4,41
20650,25,1,2,-71,1,-1,2,1
20655,-9,-8,17,85,-18,-8,-7,-16
20660,37,12,16,22,16,3,6,32
20665,-14,-16,-57,-114,-16,-3,-1,-19
20670,1,4,30,80,6,1,1,20
20675,10,-2,9,-35,4,2,3,-30
20680,3,-11,-9,-34,-10,-3,-9,10
20685,-28,-5,-3,5,-6,-1,-3,-4
20690,28,13,-23,39,6,1,-6,-2
20695,19,17,-2,-58,-9,-4,4,-10
20700,-18,-3,-8,30,12,4,14,1
20705,13,8,8,51,9,3,4,2
20710,-58,-10,9,-55,8,7,3,-2
20715,18,0,-25,-72,-14,-7,-8,14
20720,0,-32,-10,-72,-4,-4,-7,-6
20725,-11,9,30,50,0,3,5,-5
20730,31,8,16,-16,2,-2,-3,2
20735,-47,-39,-3,17,7,7,7,12
20740,15,13,2,-78,-12,-2,-3,-6
20745,11,-8,-6,-57,-7,-6,-6,-5
20750,-23,-1,-26,88,10,-2,-4,-9
20755,-16,5,19,-10,-18,-5,-3,8
20760,35,9,-42,-35,-12,-1,0,-1
20765,-23,-4,15,25,11,6,0,-1
20770,12,4,-6,-10,6,1,5,5
20775,-21,0,-2,23,-3,0,0,4
20780,-7,-2,-5,52,0,-3,-4,-3
20785,6,8,10,8,19,4,-1,-9
20790,17,-5,-17,-37,-30,-14,-2,-4
20795,-12,-5,-3,-4,-3,-3,-4,6
20800,-17,-8,-7,51,0,-5,-6,1
20805,13,4,3,52,21,6,7,-1
20810,2,0,9,-17,-7,3,-9,8
20815,-43,2,7,-8,-6,-4,4,-21
20820,4,6,19,67,8,3,-3,-4
20825,-21,-9,-27,-78,-16,-10,-5,2
20830,-7,-5,12,52,6,1,-18,-9
