time,emg1,emg2,emg3,emg4,emg5,emg6,emg7,emg8,hand,pose,orientation,testPerson
0,-1,-3,1,-2,19,0,1,8,1,1,100,BueBaby!
5,7,-3,2,0,-1,4,3,-4
10,5,2,7,2,-3,-3,-1,-3
15,0,31,12,12,0,-9,-4,-2
20,-25,-4,-2,-10,-30,3,3,6
25,30,6,-25,-14,12,7,1,0
30,-8,1,17,-2,-12,-6,-2,-15
35,-8,-14,-16,4,-17,-5,-1,0
40,10,-33,16,-3,20,4,2,1
45,7,37,5,4,16,3,-2,5
50,-14,0,-22,-4,-30,-5,-2,-3
55,5,-27,19,6,45,4,3,8
60,9,51,15,0,-24,-9,-3,-6
65,-14,-43,-25,-14,2,-3,-3,8
70,11,6,3,10,3,-1,-3,-8
75,-9,9,-10,-14,3,13,7,1
80,-5,-17,-2,-8,-5,-1,-1,-3
85,-6,-23,17,8,-6,-8,-4,-7
90,-12,-28,-47,1,-9,0,3,9
95,-1,38,6,2,6,-4,-6,-12
100,14,-5,1,5,32,7,-2,-10
105,-8,-3,-9,-1,-15,1,3,-1
110,-3,22,9,6,-5,-2,2,3
115,7,-6,-6,-14,-18,-3,2,11
120,15,21,2,0,-1,1,-4,-6
125,-5,-48,-45,6,-12,-10,-5,-7
130,-15,-22,6,-1,7,1,2,5
135,4,18,1,10,17,4,0,-2
140,-6,18,20,-5,-6,4,5,6
145,6,18,11,2,23,1,-4,-15
150,7,13,-4,-3,-14,1,-2,0
155,-3,-17,-2,0,-13,-3,1,6
160,11,14,12,-1,-6,-1,0,5
165,-20,15,-4,-1,-18,3,4,9
170,15,1,-13,-8,3,2,1,-2
175,2,-9,23,3,0,-2,-5,-9
180,-10,-8,-31,0,8,1,-1,0
185,3,-3,6,8,-25,-15,-1,0
190,3,-1,-17,-3,18,8,-3,1
195,-5,2,0,-7,21,2,-1,-13
200,-4,2,-8,10,-25,-9,-3,-1
205,-15,-19,13,-17,9,8,0,-7
210,4,39,21,8,-10,-8,3,16
215,1,-6,-24,13,-13,-2,-4,-2
220,-16,-16,17,-19,-11,3,1,-6
225,36,2,-16,-2,9,6,-1,2
230,-14,-13,-10,0,-3,-6,-3,-16
235,-18,-35,-14,11,-28,-8,-6,-13
240,-8,-12,-12,-3,36,9,3,4
245,-14,-25,2,4,-1,-3,4,16
250,30,0,7,-13,22,10,-1,-5
255,-10,17,0,4,-2,-3,-4,-12
260,-9,20,-8,6,5,-10,-6,-9
265,-1,4,12,-3,-7,2,3,1
270,-15,-7,-10,-1,-16,-5,2,6
275,-3,-2,11,-6,16,-7,-1,11
280,43,-57,-6,11,-13,-4,-6,-6
285,-15,40,9,-25,-20,3,-2,-15
290,-11,-77,13,12,20,0,3,10
295,13,20,-20,-4,-17,-6,-3,-6
300,-14,-1,10,2,29,1,-1,-2
305,-5,1,-5,11,-13,-11,0,14
310,15,12,-11,-1,3,5,-5,-19
315,-7,-9,5,-15,-12,5,4,6
320,-8,-26,-17,-8,13,-7,-3,3
325,0,-2,11,1,-3,-4,-5,-8
330,-10,22,19,1,-8,-6,0,2
335,-3,-7,-21,3,19,10,6,13
340,14,22,-5,3,-23,-16,-5,-7
345,8,15,15,-5,18,14,1,0
350,3,-16,-3,-1,-6,2,1,-5
355,0,18,0,-2,-11,-10,-4,2
360,-15,-24,11,-12,14,13,4,-3
365,1,19,4,7,-3,-6,-4,-2
370,1,10,-7,2,22,-3,-1,-2
375,6,0,9,-8,-15,-3,-2,-7
380,-2,16,-17,-7,-5,6,5,12
385,15,-37,-19,9,3,-2,3,-3
390,-5,7,20,-4,-26,-6,-3,-5
395,10,7,9,8,23,1,-1,2
400,11,38,8,-9,-44,-9,2,15
405,-32,-56,-11,-22,-8,6,-3,-17
410,3,39,-12,6,17,1,-1,3
415,-2,-11,23,10,5,-7,-1,-6
420,0,-5,5,-9,15,5,-1,0
425,6,30,0,10,17,-1,3,8
430,-9,-11,-15,-7,-13,-3,-2,-6
435,-2,-19,-33,-8,-7,-1,-3,3
440,-12,-32,0,12,4,-5,-2,-2
445,22,-26,3,-5,-1,-7,-6,-3
450,-18,22,7,-1,-1,4,-1,-12
455,4,38,9,8,-8,-1,6,10
460,11,-31,-12,-8,-6,4,0,-4
465,-5,24,-5,9,16,3,3,-1
470,6,-12,-1,-6,-24,-4,-5,6
475,-12,0,5,4,-4,-5,-2,3
480,-27,9,-16,-1,20,15,1,-12
485,18,6,5,-7,-21,-5,-4,-3
490,-6,-8,0,0,10,-7,0,2
495,-8,-4,3,12,3,4,1,11
500,8,-26,5,-12,-24,0,2,-3
505,2,11,-5,-1,6,0,-6,-6
510,-11,-2,-5,3,-1,-5,-5,-4
515,22,11,-24,-6,-8,4,2,1
520,-14,-9,6,15,4,-6,4,8
525,11,13,-19,3,17,1,-3,1
530,-1,-15,9,2,-13,1,2,2
535,-16,5,11,-11,-6,2,-1,-15
540,0,2,-13,11,-20,-9,-8,-5
545,-9,-6,0,-13,42,6,4,3
550,0,14,-8,1,4,-3,3,9
555,2,-35,5,-5,-9,-2,-6,-15
560,-2,-7,7,0,-25,-1,3,5
565,-4,24,7,8,-25,-5,2,1
570,11,5,-5,-1,25,6,2,-2
575,13,0,14,-7,8,11,2,9
580,-9,-21,3,8,-1,-9,-6,-15
585,6,18,-31,2,4,-1,0,8
590,-9,-6,-3,3,-6,-2,0,6
595,5,17,7,-3,14,0,2,-1
600,4,35,-7,-10,8,1,-3,1
605,-25,-39,11,8,9,-6,-3,-9
610,15,21,-6,-1,-27,-2,-1,6
615,-19,-5,0,-10,5,-3,-3,-11
620,29,26,13,4,18,4,-2,-4
625,7,28,-13,-2,-15,-4,1,11
630,-24,-48,10,5,6,-9,-6,-7
635,16,-7,-2,-8,-10,4,0,-4
640,-6,17,-5,-1,7,-10,-5,0
645,-2,-21,-21,-4,-13,2,2,1
650,3,-5,25,0,2,1,-1,-2
655,0,27,1,-4,-2,-5,1,1
660,-10,-42,0,-2,1,1,-4,-4
665,-3,-9,17,5,7,-1,0,-6
670,-12,-7,0,-11,-3,10,1,2
675,3,-2,-37,4,12,-5,-3,1
680,8,14,4,-6,9,-1,0,-7
685,-20,7,18,5,19,0,2,8
690,20,-7,-9,-5,-31,2,-3,-6
695,-8,-6,2,-2,8,2,0,0
700,-11,-8,-2,18,7,-6,-1,11
705,13,12,4,-28,-30,2,0,-2
710,14,24,-12,-7,-8,0,1,10
715,4,-16,7,6,15,-4,-5,-16
720,-6,9,-2,-7,-9,6,1,1
725,-7,12,9,6,-6,-7,-6,-8
730,-19,-6,-4,5,-29,-10,0,-7
735,28,-26,-11,-10,36,9,1,21
740,-14,9,4,4,-13,-3,4,4
745,10,3,10,1,18,4,-3,-14
750,5,8,-21,-11,-14,-3,-3,-3
755,-24,-39,-2,13,-10,-4,2,5
760,-8,24,12,-8,-10,-4,-1,0
765,30,1,-6,5,2,8,5,7
770,-13,-6,10,0,22,1,-2,-7
775,4,-22,-21,1,-3,-6,-5,-2
780,-3,3,3,2,12,-4,-6,-6
785,-6,-22,-3,0,-5,10,5,2
790,7,22,-15,-3,2,7,2,2
795,-11,-19,5,-2,32,3,1,-1
800,14,10,9,-10,-27,3,1,14
805,-12,-25,-1,7,10,-11,-5,-4
810,22,2,-12,10,15,-3,-5,-18
815,-25,46,16,-8,-30,0,-4,-1
820,21,-33,-6,-2,-2,-1,5,8
825,-20,-20,24,8,1,-5,-5,-8
830,13,20,-8,-7,33,6,1,10
835,-3,4,3,-1,-24,-2,1,1
840,-18,2,-7,-3,5,1,-4,-23
845,4,14,-2,-1,-9,2,3,9
850,-17,-28,-5,4,-9,-3,-2,-2
855,6,-1,-9,-4,-4,-4,1,10
860,10,5,7,7,-26,-15,-6,2
865,-8,20,2,4,49,18,0,-7
870,4,17,6,-26,-14,11,6,-4
875,-10,-27,-17,-6,4,2,0,3
880,12,26,2,3,-9,-5,-1,-11
885,3,-17,3,0,-26,-13,-7,-1
890,2,-8,8,15,4,-6,-1,12
895,-12,8,-10,-14,11,-5,-6,-20
900,0,-4,-18,-7,2,11,2,-2
905,-15,-8,-6,-6,-14,-7,-2,5
910,4,-16,0,4,9,0,-1,-2
915,6,16,6,3,-28,-5,-1,5
920,-16,-14,1,0,20,-1,-1,1
925,23,63,4,-8,-11,-2,1,6
930,-27,-89,-50,4,-7,-6,-2,-7
935,32,45,33,-8,34,12,-1,-6
940,-12,0,-11,-1,9,3,-1,-3
945,4,-41,-7,2,-15,-1,1,9
950,-12,41,8,2,-10,-7,-2,-5
955,-1,-27,-12,7,-4,0,-1,-3
960,-1,-12,-2,-2,6,0,0,0
965,5,-14,-20,-10,-24,-6,-1,8
970,-38,-3,4,5,48,5,-2,-11
975,17,18,19,5,-7,5,4,-16
980,16,-16,8,4,2,-7,-5,7
985,-9,-5,0,-8,-8,-1,-1,-2
990,13,7,10,-4,-11,-8,-4,6
995,-16,0,5,1,-13,-2,1,3
1000,2,24,6,4,-3,1,1,-2
1005,-10,8,-8,-8,-2,-7,-3,-3
1010,-9,-48,5,-18,-11,6,1,7
1015,31,3,-10,-11,14,5,0,-3
1020,2,8,14,5,-19,-9,-5,-9
1025,-10,4,-3,0,13,0,-4,-8
1030,8,22,10,2,-6,-1,3,8
1035,-21,-10,2,4,-30,-11,-3,5
1040,3,-8,-10,3,21,5,1,5
1045,3,-4,3,-7,11,0,-3,-10
1050,14,20,18,-8,-15,10,13,23
1055,-13,-56,-20,13,15,1,-4,5
1060,9,8,-14,-7,14,1,-1,-20
1065,0,-13,-9,-6,-31,-7,-9,0
1070,-18,5,14,7,18,-4,-4,-15
1075,10,32,6,0,-16,2,6,17
1080,-8,1,0,-6,-4,7,5,12
1085,-1,-18,-12,10,-6,-4,-3,-7
1090,5,1,-2,-3,17,1,-3,3
1095,-17,3,17,6,-23,-4,0,2
1100,5,-37,-20,0,18,-2,-1,14
1105,11,15,-2,-19,-21,2,-3,-23
1110,-1,1,6,4,1,-3,-5,3
1115,-11,21,-5,3,-33,-8,-2,-13
1120,9,4,13,1,48,12,4,7
1125,-32,-28,-23,10,8,-1,9,10
1130,22,-22,-17,-3,-11,-2,-5,-6
1135,-10,8,1,-7,32,5,-3,-8
1140,3,17,2,-2,-39,-6,-4,2
1145,-4,0,8,0,7,-1,2,7
1150,-1,19,-1,8,-26,-12,0,4
1155,14,-31,6,-10,-3,1,-2,-12
1160,-25,-9,-15,1,17,-1,-5,-11
1165,23,25,25,3,6,0,0,2
1170,-4,3,-4,-4,-21,-9,-4,-1
1175,-7,-24,7,2,-1,7,2,3
1180,-12,43,2,-8,-2,2,-1,-21
1185,7,-16,3,8,-3,-2,-3,0
1190,-6,-3,-2,4,21,6,4,-1
1195,1,9,-6,-7,5,4,6,8
1200,11,6,-9,-1,3,2,4,5
1205,-8,-3,15,-3,-11,-3,-4,1
1210,11,-10,-9,-1,15,-2,-2,1
1215,6,37,6,-6,-2,-4,-6,-12
1220,-13,-21,5,2,-21,0,0,0
1225,4,17,-7,-2,27,-3,0,5
1230,-1,-29,-7,3,8,1,-1,-7
1235,-7,6,2,1,-25,-10,-4,-8
1240,-22,-16,5,-4,-8,4,6,17
1245,16,15,14,4,14,3,0,-11
1250,15,29,5,-9,-14,-6,-2,-1
1255,-19,38,-8,8,17,4,2,7
1260,19,-9,11,1,10,-2,-2,-1
1265,-12,-11,-24,0,-22,-2,-2,-5
1270,-6,1,12,-2,6,6,0,-1
1275,4,27,-4,-8,-5,-8,-5,-2
1280,3,-5,7,6,0,-4,3,5
1285,0,-5,-26,-5,-16,1,-2,-8
1290,-12,-1,4,-7,2,0,-2,-5
1295,6,-18,-10,-2,1,-4,-1,2
1300,-7,-13,7,2,-12,-5,-4,-5
1305,0,-1,11,7,-9,-1,5,11
1310,-15,35,-14,4,-3,-7,-6,-4
1315,4,-33,3,-6,-1,-3,-1,-3
1320,19,-28,-17,-10,-31,9,2,5
1325,4,27,8,1,44,6,0,-10
1330,-6,2,5,-2,-8,3,2,-2
1335,-5,-19,-4,13,16,-6,-3,3
1340,5,21,7,-7,-18,-2,0,1
1345,-13,-9,-7,4,-6,-9,-3,9
1350,4,-4,4,3,8,4,0,-10
1355,6,6,12,0,-3,4,1,-1
1360,6,-5,-19,1,7,-6,-1,3
1365,-22,-12,6,-9,1,7,3,1
1370,27,21,5,9,-12,-7,-4,2
1375,-21,-27,-6,-17,-17,2,-2,-10
1380,-8,-3,11,0,11,-4,-6,-7
1385,7,4,5,9,8,-3,-4,2
1390,-5,-36,-8,-14,-10,4,8,3
1395,16,24,3,10,7,-1,1,16
1400,-5,24,-18,1,17,-3,-1,-7
1405,-3,13,26,1,-6,12,7,6
1410,-17,-1,-36,-14,-6,-1,-9,-18
1415,16,-8,10,2,16,-3,-2,-1
1420,-7,4,-6,-1,8,-9,-5,-6
1425,4,-3,-1,-7,-2,1,2,5
1430,-8,6,13,5,-9,-3,-1,9
1435,-10,-11,-8,-5,-3,2,1,-7
1440,4,-5,-4,2,-14,-8,-7,-2
1445,3,5,-6,-17,18,6,0,2
1450,0,10,4,-8,-13,-2,2,11
1455,3,-9,-14,7,10,3,0,-10
1460,7,-35,11,5,-9,-2,2,5
1465,-4,-10,-20,-4,3,-1,-5,-11
1470,3,4,4,6,1,-2,0,0
1475,-10,-5,-1,0,-8,-5,-2,8
1480,-5,50,20,-8,-32,1,1,2
1485,2,-21,-57,0,14,9,3,9
1490,27,-27,-1,2,21,3,-1,-11
1495,-12,1,5,7,-18,-7,-7,-5
1500,3,17,3,-2,18,2,3,3
1505,-11,14,8,0,-32,-8,0,4
1510,-5,16,6,1,18,9,7,12
1515,-13,-32,-14,2,-13,-7,-6,-22
1520,12,-15,11,13,21,3,-2,3
1525,-1,10,15,-7,-26,-11,-1,-6
1530,3,-29,-19,-20,9,10,0,-4
1535,1,20,5,3,3,1,5,15
1540,-13,5,0,-6,-14,0,-3,-11
1545,-9,-21,16,6,5,-8,-5,-12
1550,17,15,16,10,-10,-8,-4,-3
1555,-17,9,3,-13,-12,-2,-2,6
1560,17,0,-26,-3,13,8,3,4
1565,2,7,0,6,-3,-3,-2,-3
1570,-13,-15,1,-4,-9,-5,-4,-7
1575,8,6,3,7,-1,-3,2,9
1580,-12,3,-4,-3,-10,1,-2,-8
1585,-1,18,18,-8,25,0,-3,-9
1590,-14,-14,-14,13,-14,-10,-2,4
1595,6,-2,-1,-7,13,7,-1,-3
1600,7,30,2,-8,-18,-3,-2,4
1605,-7,-32,-7,-5,9,1,-3,-10
1610,-5,16,7,3,-2,0,-2,-8
1615,11,8,2,5,1,-3,-2,3
1620,-18,-29,8,4,-6,-5,0,4
1625,9,-4,-12,-10,8,7,2,12
1630,21,4,-7,5,17,-3,-1,-1
1635,-1,-6,4,-5,2,3,-2,-11
1640,5,2,-3,6,4,-4,-4,1
1645,-25,13,-3,0,-25,-1,0,-4
1650,-16,-39,-10,-1,3,-6,1,7
1655,20,26,-7,-3,21,13,1,-7
1660,-12,-25,16,4,12,2,3,-2
1665,21,17,10,2,-11,-2,0,15
1670,-7,31,7,3,-3,-1,1,-8
1675,-11,-37,-17,-7,-27,-7,-2,1
1680,-22,3,-6,-4,19,1,-1,-7
1685,30,5,1,12,-6,5,0,5
1690,20,17,7,-8,-7,3,-2,-5
1695,-12,-30,-4,-4,12,6,5,2
1700,4,-19,-17,-1,-3,-4,-3,-3
1705,-8,-3,-5,5,-26,-8,0,11
1710,-4,32,2,0,30,0,-4,-9
1715,1,-10,1,-11,9,2,-1,5
1720,-2,2,-14,-2,-25,-7,-5,0
1725,6,18,15,13,10,-10,-4,-14
1730,-13,-53,8,-2,-4,9,6,5
1735,2,33,1,0,7,0,-1,-1
1740,0,1,6,-7,9,5,3,10
1745,-15,-14,-14,4,-19,-9,-8,-6
1750,1,-30,21,-4,21,4,2,-1
1755,26,-27,-14,-7,-4,-4,-1,8
1760,-6,2,-7,5,-38,-8,1,-5
1765,-7,5,14,3,50,13,3,2
1770,-2,-1,-33,-7,-16,-4,-5,2
1775,-3,25,6,3,2,0,1,0
1780,7,8,3,-1,-16,-3,-5,-5
1785,-1,-19,-12,-3,7,4,0,1
1790,-7,10,9,-3,7,7,3,-5
1795,-7,-1,-24,-1,-15,-8,0,0
1800,1,22,3,-5,1,-7,-6,2
1805,-7,7,-5,3,-2,2,3,-6
1810,15,-59,4,-4,-15,-3,-1,7
1815,1,1,-1,5,-19,-7,-1,-9
1820,-6,-17,1,0,2,1,-2,-12
1825,8,5,-3,-12,11,-2,-5,0
1830,-13,30,-4,-9,-11,-2,1,5
1835,3,-12,12,5,-3,-7,-6,4
1840,13,-1,1,10,8,-4,0,7
1845,-18,-51,-19,-15,-19,4,-3,-28
1850,-5,30,19,-7,-2,0,2,0
1855,1,16,12,2,0,-1,0,9
1860,-1,28,-15,2,14,6,-1,-13
1865,6,9,-2,0,-1,-6,1,18
1870,1,3,-9,11,10,-3,-5,-9
1875,-12,-39,-2,-4,-29,-4,0,-1
1880,-9,2,1,-13,45,15,4,16
1885,17,25,19,0,-6,-12,-4,-4
1890,-8,15,-22,-1,-26,-1,1,2
1895,-4,-1,-2,12,3,-4,-3,-4
1900,18,-9,7,1,-8,6,4,3
1905,-18,0,0,-9,23,13,2,0
1910,13,3,13,1,-26,-4,-1,1
1915,-18,36,7,1,11,1,0,-7
1920,-13,-18,2,-2,-14,-10,-4,-19
1925,10,7,3,3,25,4,3,6
1930,4,-11,-10,8,-6,-8,-7,0
1935,-7,28,-1,-16,2,-1,2,-7
1940,1,-18,16,2,18,3,2,0
1945,9,17,10,4,-19,-3,2,0
1950,-5,-4,-19,0,10,1,-4,1
1955,-5,4,1,4,-9,-7,-5,-10
1960,2,7,-7,-8,9,2,-1,11
1965,-3,-43,-1,11,-13,-11,-5,-7
1970,-5,1,8,-2,-24,2,2,5
1975,8,10,-10,-11,6,3,0,6
1980,1,-6,12,10,23,3,2,-5
1985,-2,-2,-1,-2,-40,-8,0,5
1990,-20,29,5,-6,29,0,-4,-12
1995,29,-1,1,7,1,-4,0,3
2000,-7,-14,-11,5,1,-1,-1,-4
2005,1,-11,-5,-10,-12,3,0,3
2010,-6,28,10,-8,-9,-5,-1,-9
2015,2,1,8,-6,15,8,0,-2
2020,-18,-15,-38,0,0,-5,0,7
2025,9,-3,-6,-2,15,1,-2,-8
2030,0,5,13,3,-7,6,2,-10
2035,-9,-8,2,7,24,1,0,4
2040,16,-41,4,-11,-28,-4,-3,1
2045,-12,18,3,8,-28,-11,-5,8
2050,10,13,-24,-10,49,9,7,10
2055,-3,-8,-6,-5,-6,0,-1,-5
2060,-10,6,7,-1,-12,-3,-1,1
2065,5,-22,1,0,-27,-6,-1,-4
2070,2,5,-1,1,16,-5,-2,2
2075,-16,-6,-13,-1,-8,3,-1,2
2080,12,15,20,-3,-23,-10,-1,-2
2085,-10,-8,-27,-5,22,3,-2,-4
2090,-14,-61,-7,12,-54,-11,-6,-13
2095,17,25,10,5,68,6,1,8
2100,-10,6,-1,-18,-19,-1,-2,-6
2105,-1,-22,8,-6,10,5,1,3
2110,7,4,-17,-2,-12,0,2,6
2115,-5,12,20,3,-6,-2,1,-3
2120,-12,25,-4,11,16,0,-3,2
2125,36,22,3,-9,-2,4,-3,3
2130,-15,-18,2,-1,-3,0,0,-1
2135,15,-16,-11,-3,-20,-5,-3,-2
2140,-8,4,8,6,11,2,1,-6
2145,-1,24,-12,5,19,4,1,0
2150,3,-43,-8,-1,-1,-4,0,4
2155,10,9,-5,2,-40,-5,2,8
2160,-14,-5,7,8,50,3,-4,-18
2165,-13,24,-33,-6,0,5,2,-5
2170,4,-17,-2,0,2,3,-3,-4
2175,-2,4,1,-4,0,-6,-3,5
2180,9,-16,5,-8,-34,-5,-1,7
2185,-22,-16,-4,6,14,-7,-1,-1
2190,14,31,7,-4,4,4,-4,-14
2195,-5,-22,-4,-4,-45,-6,-4,-10
2200,1,-48,-27,-5,18,3,2,1
2205,-9,3,13,3,16,-2,1,9
2210,-30,6,2,-12,-4,1,2,6
2215,34,-6,0,1,-1,1,-4,-2
2220,4,49,-3,-4,-2,-5,-4,-2
2225,2,2,13,-2,-20,1,2,-8
2230,-17,-27,-4,7,5,-8,-3,-3
2235,-1,5,12,-1,-5,2,1,-6
2240,10,19,-4,-4,3,-4,2,6
2245,-14,-28,-7,1,9,-4,-5,-5
2250,16,14,7,-8,-1,10,3,0
2255,-25,-6,7,4,20,1,1,-5
2260,21,2,-9,-7,-43,-4,-3,0
2265,-14,-14,25,4,16,-8,-4,-9
2270,26,14,-2,5,38,3,-2,9
2275,-33,-10,-8,-18,-14,3,4,6
2280,28,-4,-2,4,-6,-1,-3,-20
2285,-4,40,8,5,20,-4,0,-4
2290,-8,12,-18,-9,-37,-10,-8,-11
2295,-20,-28,19,5,29,4,-2,-7
2300,-8,-16,-2,2,3,4,5,12
2305,8,-16,-3,-2,-18,-1,-2,-2
2310,2,-17,6,6,-8,-6,0,7
2315,5,40,-3,0,13,2,2,-2
2320,-12,-4,-4,-5,-2,-4,-2,1
2325,12,-8,-2,-4,-12,1,3,7
2330,4,30,-2,6,4,-5,-5,-1
2335,-2,-34,-10,2,12,0,-2,-2
2340,-9,15,-18,-7,-20,-4,1,-3
2345,-3,-16,-2,-5,1,5,4,21
2350,14,20,12,-10,-3,-3,-2,-31
2355,-4,-10,23,16,-15,-7,-3,-9
2360,-6,-1,-5,-6,26,12,-1,3
2365,-6,-15,-18,0,-6,-3,-5,-9
2370,-5,-3,1,-7,-8,3,5,14
2375,6,17,-6,-4,-7,-3,-1,-3
2380,3,2,28,7,7,-7,-6,-5
2385,-7,-19,-7,-2,24,10,3,2
2390,7,-30,-6,3,-6,-8,-7,-1
2395,-16,36,-14,-4,1,-3,0,16
2400,-4,-55,-2,-7,0,13,1,-35
2405,6,14,0,2,-15,-7,0,3
2410,-5,28,6,3,-3,1,1,5
2415,-14,-20,-14,-2,13,4,0,15
2420,12,41,-2,1,-2,0,5,3
2425,5,-12,8,14,17,-4,-7,-7
2430,-8,-15,-29,-22,4,13,0,-3
2435,2,12,1,-4,-46,-8,-2,2
2440,-16,-27,0,3,35,3,3,11
2445,13,6,5,0,-3,-2,1,-7
2450,2,33,-13,8,3,-11,1,15
2455,2,0,1,-7,-21,11,0,-29
2460,0,27,1,0,-15,-7,-5,3
2465,-6,5,4,-3,4,-3,1,1
2470,-5,4,0,6,-7,-4,-1,7
2475,32,-9,5,-1,36,11,1,-1
2480,-3,-12,-16,6,-7,-6,-1,-5
2485,-17,25,30,-2,-20,2,-1,-4
2490,7,-9,-8,9,-2,-10,-4,-4
2495,-9,-19,-23,-8,-3,-4,-5,-2
2500,-6,7,6,-2,2,7,2,5
2505,0,5,-15,3,-11,-5,-3,4
2510,0,-68,17,-8,3,5,3,-6
2515,-9,47,-1,12,8,-8,-1,0
2520,26,16,4,-8,-21,-2,-4,3
2525,-2,-8,-12,-5,13,-3,3,3
2530,-9,10,34,0,0,3,4,-4
2535,7,6,-9,1,-1,-5,2,14
2540,-11,-10,-2,1,-5,-3,-5,-6
2545,17,-4,21,-5,-21,-4,-1,-3
2550,-3,17,8,1,6,7,1,-4
2555,-5,-17,10,-10,20,7,2,8
2560,-9,-27,1,3,3,-5,0,2
2565,-2,-4,-12,1,-9,2,2,-8
2570,4,-15,-7,0,-7,-2,-4,5
2575,-5,-13,3,6,14,-3,-2,-13
2580,12,6,13,-4,10,1,1,6
2585,-2,-2,-5,3,4,6,6,12
2590,-5,23,11,-12,-58,-10,-4,-5
2595,1,-14,-13,5,49,4,-1,-10
2600,-11,-40,-7,-3,-10,-7,-1,4
2605,-5,14,9,-5,-6,1,0,2
2610,2,-15,-16,3,1,3,0,7
2615,0,-3,-18,-1,-16,-9,-2,-11
2620,-7,34,10,-7,2,10,0,-1
2625,-8,-13,-7,-5,-2,-4,-7,-18
2630,27,20,15,3,6,1,2,8
2635,0,10,-13,3,-1,-6,-2,10
2640,-11,56,8,-5,31,-3,0,-2
2645,-1,-18,-1,-3,-1,11,1,-12
2650,-5,-4,-16,9,13,-6,-4,-2
2655,-10,11,10,-14,-43,-2,5,11
2660,10,10,4,8,-9,-2,0,1
2665,7,1,-2,-7,25,4,-2,-14
2670,-4,-19,-21,1,15,-1,-2,-6
2675,-6,-12,15,1,-13,-4,-7,-6
2680,0,1,-5,0,-22,-5,-2,3
2685,-16,-16,-5,2,-3,1,4,16
2690,21,28,5,12,28,2,-4,-14
2695,-19,-30,9,-4,-30,-3,-4,-4
2700,3,-24,-4,-7,47,11,2,-2
2705,8,1,13,9,-25,-11,-5,-5
2710,-23,17,-24,-14,-6,-4,0,2
2715,-6,-19,16,10,8,4,-2,-8
2720,16,-5,22,5,-15,5,-2,-2
2725,18,8,-8,10,4,-8,0,12
2730,-8,-3,11,-19,-10,4,-1,0
2735,0,-24,-4,2,-30,-12,0,1
2740,-17,6,-6,-1,8,-1,-2,-5
2745,15,2,-8,-5,24,10,3,13
2750,-12,-4,5,14,-16,-5,-4,-22
2755,11,-2,-14,-17,6,6,0,1
2760,2,22,9,10,-15,-15,-2,7
2765,-31,-20,-44,-7,16,7,0,-2
2770,44,-26,-4,-7,25,-1,-5,-15
2775,14,38,12,-2,-9,3,0,1
2780,-10,-25,-5,5,-17,-3,0,1
2785,-14,42,5,1,-28,-14,-9,-6
2790,2,-39,-6,-11,8,6,13,20
2795,-4,-16,-8,2,17,1,-4,-15
2800,-10,-15,-19,1,-10,-4,-2,5
2805,27,22,24,1,2,-2,-1,-4
2810,-18,9,1,-5,-9,2,3,2
2815,5,-8,-6,-7,2,4,0,0
2820,-16,-33,-21,-8,2,-1,3,9
2825,0,1,8,0,-29,0,0,-2
2830,24,24,2,9,49,2,-5,-9
2835,-15,11,20,1,-8,1,0,-3
2840,4,18,0,-3,-24,-5,-2,-5
2845,1,-10,-11,-10,-2,-1,2,13
2850,-25,31,2,10,3,-1,0,9
2855,19,-35,-4,6,13,0,-1,-14
2860,-5,-2,-15,-6,10,3,-3,-10
2865,6,28,26,-4,-17,2,2,1
2870,-12,-14,-23,0,4,2,3,7
2875,2,11,-23,1,2,-3,1,11
2880,18,-9,-1,2,-9,-7,-3,-9
2885,-27,-24,-7,-15,4,4,2,3
2890,20,32,17,2,-4,-7,-8,-15
2895,4,18,3,6,-8,-5,-1,1
2900,0,1,-5,-6,5,4,2,5
2905,-9,-10,-11,3,-33,-3,-4,-11
2910,-17,-6,1,-4,23,3,-2,6
2915,2,23,-2,4,-3,-6,-1,7
2920,-25,-51,8,0,-17,-3,-2,-11
2925,19,16,0,-15,29,4,-3,-9
2930,-4,-45,-34,3,-11,-8,-2,2
2935,11,6,-2,-6,-1,3,-1,-2
2940,4,37,11,7,-7,-2,0,3
2945,-16,-64,-8,6,5,-6,-4,-5
2950,3,-1,-1,-7,-23,-8,-8,-1
2955,-7,8,-2,-9,0,-1,0,-2
2960,-10,-11,-2,7,27,4,3,12
2965,26,34,5,-1,7,0,0,-5
2970,-14,14,7,-4,-8,5,2,-10
2975,-10,5,3,13,8,-4,-1,2
2980,-12,22,9,-9,13,-6,-5,-14
2985,14,-37,-1,-1,-3,0,3,10
2990,-17,40,-11,7,-10,-1,5,16
2995,20,-2,20,5,18,-4,-1,-3
3000,8,-24,-20,-1,-3,10,3,-3
3005,-8,4,3,-8,-4,0,0,1
3010,0,2,13,1,2,-3,2,6
3015,-15,-19,-5,2,-26,-9,-4,-10
3020,13,9,4,-3,-7,5,1,11
3025,-5,32,-5,1,5,-3,-4,-12
3030,12,-52,33,7,-16,-1,0,-8
3035,-13,33,-21,-10,52,15,5,1
3040,3,4,2,-9,-39,-9,-2,1
3045,-20,21,-7,-2,18,2,0,2
3050,11,-4,11,14,1,-2,-1,3
3055,-8,-29,-6,-16,-7,-1,-2,10
3060,22,13,-8,-8,0,-8,-12,-27
3065,-7,-17,21,5,-10,2,2,0
3070,-8,-1,-25,1,2,0,-3,1
3075,-29,-23,4,-7,-4,-2,0,1
3080,34,28,-4,13,11,4,2,12
3085,9,7,6,0,-4,-7,-3,5
3090,-17,-5,-2,-10,-8,-1,0,-6
3095,7,8,-5,9,-15,2,-1,-4
3100,-5,-2,-1,-4,-1,-3,-3,0
3105,-2,-13,-7,1,8,-2,0,3
3110,-3,-7,-6,2,-8,1,0,3
3115,-5,9,5,4,16,-3,-1,-2
3120,6,-19,-15,-14,-29,-5,2,3
3125,-12,-23,-5,-3,15,13,1,-10
3130,12,12,16,-4,-20,-6,-1,3
3135,8,-9,4,2,-1,-3,-2,-6
3140,-36,-9,-3,11,10,-3,-3,1
3145,8,65,5,-2,-7,-5,-2,-5
3150,5,-37,-10,-10,-3,1,3,6
3155,-8,11,13,4,-2,-1,-4,-3
3160,13,0,12,3,35,1,2,9
3165,6,17,-7,-8,-28,-1,-2,-7
3170,-8,35,7,-1,-3,-4,-4,-3
3175,14,-36,-6,1,-7,-3,1,14
3180,-19,-9,-10,-12,5,11,1,-13
3185,4,-29,1,-1,8,-7,-1,5
3190,12,8,13,4,12,2,-1,-6
3195,-7,12,2,-6,-23,-2,1,-15
3200,-11,5,12,1,-34,-9,-1,9
3205,5,-12,1,10,52,-2,-5,-7
3210,4,25,-4,-15,-18,0,2,3
3215,-15,-34,-1,8,22,6,1,6
3220,12,11,-13,1,-15,2,-1,-13
3225,7,-8,-10,-1,5,0,-1,5
3230,-8,0,5,4,2,1,-1,1
3235,8,-6,-6,-9,-4,-4,3,11
3240,-3,45,10,7,-20,-6,-3,-7
3245,8,-17,2,-4,3,-3,-3,-5
3250,-9,-8,-9,-7,4,4,-5,-3
3255,-6,1,-3,1,6,-1,3,0
3260,19,-11,3,-4,-6,-3,2,14
3265,-13,22,5,6,-38,-8,-3,-18
3270,9,8,8,6,20,5,4,3
3275,5,-10,-17,-6,-3,-5,-2,8
3280,-18,17,0,5,5,5,-2,-4
3285,-5,-24,0,-1,16,5,0,12
3290,-13,-2,-9,-7,-14,-3,-6,-19
3295,8,-9,-5,3,-9,-3,1,19
3300,33,-5,-1,9,18,4,-2,-25
3305,-2,18,-11,-17,-31,0,2,11
3310,19,-33,4,-6,-13,-8,0,11
3315,-20,37,-9,-1,-2,0,-2,-5
3320,-11,3,9,3,2,-4,-3,-4
3325,14,-16,-3,-3,-7,-1,1,4
3330,7,27,11,10,4,-2,3,-1
3335,-26,-22,-26,-7,-25,-5,-5,-7
3340,21,-11,3,3,45,6,1,-13
3345,-15,1,-15,1,-16,-6,-3,-3
3350,-6,-13,-3,-9,-16,2,5,18
3355,11,9,9,3,24,0,-2,-9
3360,-6,-18,2,-1,-11,-2,-1,6
3365,-4,18,4,16,20,-2,-1,3
3370,5,26,-5,-10,0,3,-1,-12
3375,-3,-21,8,8,5,-1,3,5
3380,-15,5,-8,-22,3,6,0,8
3385,17,-13,-4,7,-2,-1,0,-4
3390,-22,4,0,-6,2,-4,-2,4
3395,23,11,3,7,5,2,-3,-21
3400,-27,-44,15,-3,-41,-4,-2,8
3405,19,-10,-38,-3,-2,-2,0,6
3410,-20,7,28,5,-5,-4,-3,-6
3415,27,-4,-27,-12,15,2,-3,-2
3420,-45,-7,1,1,22,-1,1,-5
3425,18,16,13,2,-13,-5,0,3
3430,-3,-49,-7,2,-10,-5,0,1
3435,8,61,31,5,0,3,3,4
3440,3,-8,-25,-19,-9,-2,-6,-3
3445,-26,-15,-3,3,4,-3,-3,-7
3450,0,-2,-1,4,2,-3,1,9
3455,0,24,10,-2,-30,-3,-5,-24
3460,18,-8,-14,10,35,8,4,10
3465,-10,7,11,-21,-22,-2,1,7
3470,9,-19,-32,1,-13,-2,-4,-7
3475,-19,24,21,2,17,6,2,4
3480,17,11,-7,0,14,-2,-1,-1
3485,-7,3,-1,-4,2,-2,-1,-2
3490,0,-17,0,4,12,5,2,8
3495,-35,8,-4,4,-7,-5,-1,-2
3500,29,-5,10,-12,16,7,-3,-20
3505,1,-29,13,3,-7,0,-1,3
3510,-5,21,-6,0,5,-4,-5,-3
3515,17,-30,-12,-16,-15,1,2,3
3520,-22,1,7,8,-10,-8,-2,14
3525,8,1,-3,7,2,8,2,-15
3530,-9,12,0,1,19,2,-4,-11
3535,10,14,-5,-1,-19,0,0,5
3540,-16,-2,13,2,-19,-6,-1,4
3545,-3,-24,-22,2,5,-3,-2,0
3550,6,11,15,11,24,-2,1,-4
3555,2,19,-5,-12,16,4,6,16
3560,-1,1,0,0,-18,1,-2,-13
3565,3,28,6,3,5,-5,-4,-20
3570,23,2,4,14,18,7,-3,-4
3575,-7,-8,-2,-8,-42,-6,-3,0
3580,-26,-38,-14,-6,39,5,3,2
3585,1,-36,6,-5,-10,6,1,5
3590,-17,19,-5,-1,-16,-1,0,-7
3595,31,-13,1,-5,-3,-2,-5,-7
3600,-19,21,-5,11,-11,-14,-3,9
3605,20,16,2,8,18,7,1,1
3610,4,-63,-11,-33,22,9,0,1
3615,-6,3,-4,4,-20,-2,2,8
3620,-6,-4,3,7,-4,-10,-5,-11
3625,-13,-34,3,0,-11,-4,-1,14
3630,10,29,-9,-1,-19,-4,2,14
3635,-17,-16,-11,3,11,-3,-9,-36
3640,7,19,24,-7,5,-1,-2,10
3645,2,49,-1,7,14,-2,-3,-12
3650,-4,-31,-5,-13,-33,5,1,0
3655,-7,9,6,5,15,-2,2,-1
3660,9,-28,-4,2,-9,-4,4,13
3665,3,23,-3,-5,-3,-2,-6,-16
3670,-8,-11,2,9,-17,-2,2,-7
3675,-3,-3,14,-5,19,-2,-7,3
3680,4,11,-13,-3,2,7,3,0
3685,-9,9,6,-7,-12,-2,6,24
3690,0,-19,-2,0,-20,-11,-10,-7
3695,-10,39,3,-2,78,15,1,-10
3700,0,-60,-7,-4,-17,1,-1,-3
3705,-9,-1,11,5,-19,-5,-1,2
3710,5,14,4,-5,35,5,-2,-1
3715,5,-17,-7,2,-18,-2,-1,10
3720,4,9,-4,3,7,2,0,-3
3725,9,40,1,-8,-1,5,-6,-8
3730,-16,-33,-1,6,-3,-11,2,9
3735,0,-23,1,-9,-13,-3,-3,-6
3740,16,9,-3,1,4,4,4,10
3745,-29,20,-2,3,-31,-8,-1,-5
3750,17,19,5,-1,45,13,-2,-9
3755,5,-32,-8,1,11,3,0,4
3760,0,27,7,-4,-17,0,-1,1
3765,-20,-21,4,6,12,-1,1,4
3770,4,5,4,-5,-27,-3,1,-7
3775,22,-11,-10,9,-13,-8,-2,7
3780,-3,1,5,6,21,1,-5,3
3785,2,15,-13,-12,14,5,2,-1
3790,1,-5,1,8,6,-3,-2,0
3795,-5,-2,1,0,-5,2,2,2
3800,-7,19,1,2,-20,-11,-6,-9
3805,-16,-29,-21,-6,1,8,5,15
3810,8,30,4,-1,-14,-6,2,7
3815,6,8,-2,0,-8,-5,-4,-17
3820,2,0,-9,2,-1,-4,-1,1
3825,4,-45,1,-2,48,13,4,4
3830,-38,-44,3,0,-23,-1,-2,-13
3835,23,-9,-6,-5,-35,-7,0,18
3840,21,35,3,-2,14,2,0,-6
3845,-15,-36,-5,2,7,-3,-5,-23
3850,-12,44,-3,-3,1,-3,-1,6
3855,12,15,-8,6,26,6,2,7
3860,-14,-19,-14,-13,-33,-6,-2,-16
3865,17,-11,9,5,1,-2,0,13
3870,-30,-8,-4,-3,3,-2,-9,-20
3875,20,76,31,21,20,-3,-3,-8
3880,-5,-8,-25,-26,-31,6,7,16
3885,-1,-38,5,1,9,-7,-3,-6
3890,-7,13,-3,-1,-16,-1,2,-2
3895,-9,-34,2,-4,-11,-2,1,9
3900,-1,17,16,15,2,3,-1,-13
3905,33,15,-3,-6,8,-2,-7,-6
3910,-8,8,-4,2,15,8,7,10
3915,-1,-37,-6,-6,-27,-6,-2,7
3920,-7,3,9,5,22,6,1,-5
3925,0,-16,-12,3,-22,-9,-2,6
3930,24,43,3,-4,36,10,5,5
3935,-19,-28,-2,-17,-32,2,0,-2
3940,-1,14,10,10,17,-3,-5,-8
3945,9,30,-20,5,-19,-7,-1,9
3950,-1,14,15,-8,21,-1,-1,-6
3955,-20,-18,-25,-5,1,11,1,-4
3960,-1,-19,1,-3,3,0,0,5
3965,3,48,25,3,-8,-9,-5,5
3970,34,-15,-14,-1,-12,-1,4,0
3975,-26,12,6,-7,3,-4,-3,-11
3980,1,3,10,6,-8,-8,-3,-10
3985,-1,-14,-6,6,1,6,2,12
3990,-1,-10,-2,-5,24,8,1,2
3995,-9,30,10,-6,0,-4,0,-10
4000,41,11,-7,5,4,5,3,16
4005,-29,-14,-13,-2,-5,-3,-1,-12
4010,-14,-6,-3,1,-11,-9,-9,-4
4015,21,-44,10,5,6,-1,-1,1
4020,8,9,-29,1,-11,-12,-1,11
4025,-17,13,9,-12,42,21,5,-14
4030,-8,-15,-6,8,-8,3,3,4
4035,3,3,-11,-4,-1,-4,-1,4
4040,-6,7,9,2,-15,-3,-1,1
4045,-20,-30,4,-1,-16,-11,-3,6
4050,24,10,-16,-1,-7,-2,-5,-17
4055,-1,2,8,-5,-23,1,-3,-8
4060,-22,-9,-6,-15,26,1,-3,-5
4065,5,34,10,3,-14,-8,1,9
4070,1,-55,3,4,-37,4,-2,-7
4075,3,7,-3,6,27,-3,-2,0
4080,-6,29,18,1,-2,1,2,14
4085,8,-1,-26,-3,19,-2,-6,-31
4090,-2,-11,-5,1,-6,-7,-1,18
4095,-6,17,-1,8,3,2,2,-10
4100,-18,-45,4,-12,-2,-2,-2,-7
4105,8,5,4,-16,-30,-3,2,10
4110,12,-12,-14,10,-6,-10,0,-4
4115,13,-4,-13,-7,30,4,-1,4
4120,-21,-1,-3,-6,-2,-4,-5,4
4125,21,4,13,-7,-22,-4,-4,-6
4130,-8,10,6,6,23,2,3,8
4135,3,-44,-1,5,-14,2,1,-5
4140,-7,-19,-7,-3,12,3,5,3
4145,-9,0,16,2,8,1,-5,0
4150,19,2,-19,16,9,-10,-4,5
4155,-30,6,-10,-21,2,9,1,-8
4160,15,13,7,10,-8,-3,-2,-3
4165,-9,-44,-6,-8,-28,-3,0,2
4170,-26,25,12,-11,25,10,3,13
4175,46,29,11,9,-8,-14,-9,-22
4180,10,2,-23,-2,-15,-6,-4,-14
4185,1,-3,14,-1,14,11,2,3
4190,-11,-12,-14,-7,-4,-10,-3,-4
4195,-39,19,11,5,-1,0,7,26
4200,17,22,8,-6,13,8,-1,-14
4205,-5,1,-11,3,5,-1,2,-1
4210,9,-5,-5,-6,-9,-2,-3,0
4215,-7,2,10,2,-2,-1,-1,2
4220,11,-18,-7,2,-6,-2,-2,13
4225,-4,22,0,6,19,2,3,-2
4230,-17,13,21,-9,-22,1,-4,-24
4235,-11,9,-13,10,19,-4,-1,-2
4240,27,-21,0,-2,-19,2,-1,4
4245,-2,-7,-8,5,-1,-9,-4,-4
4250,11,11,19,-1,13,11,6,12
4255,-4,-11,5,13,-1,-8,-1,0
4260,-17,38,1,-1,27,1,-2,4
4265,-5,-12,-4,-7,-34,2,4,2
4270,7,14,-8,3,-7,-8,-5,-24
4275,-11,-52,-7,-7,6,3,-4,1
4280,-4,5,5,14,-34,-12,0,16
4285,17,29,6,-1,20,-2,-4,-20
4290,-6,-22,-25,-8,-34,0,1,0
4295,-19,36,7,8,44,9,4,5
4300,28,-51,18,-12,-33,-1,1,0
4305,-8,-31,-40,5,16,-5,-2,4
4310,-14,-5,-1,0,-11,7,2,-2
4315,-16,-6,-2,-13,-6,-7,-7,-6
4320,2,34,-5,7,4,-1,-2,1
4325,2,19,29,-4,3,1,-1,9
4330,6,-9,-4,-2,12,-3,0,-4
4335,12,-9,-9,2,-11,2,4,14
4340,-16,9,5,-1,4,0,-1,-20
4345,-6,-8,-11,-3,10,6,1,9
4350,-5,34,20,4,-8,-17,-10,-15
4355,19,-12,-11,-9,-15,3,-1,-9
4360,-44,-5,8,-9,50,13,7,5
4365,33,-11,-23,-9,-18,-1,-1,-10
4370,-13,-18,10,1,3,-1,-4,9
4375,3,-15,-17,3,-2,-6,2,10
4380,-4,3,-7,-3,-13,-3,-3,-16
4385,-15,-16,8,0,-34,-4,2,13
4390,5,72,16,1,60,3,6,15
4395,18,-13,13,7,-15,-6,-5,-19
4400,-25,-45,-13,-2,-11,7,4,8
4405,10,43,13,1,19,1,-6,-22
4410,17,-50,-15,-3,-29,-8,0,6
4415,2,17,13,1,-7,-4,1,19
4420,-15,15,-2,16,-5,-11,-5,-21
4425,-5,-64,-5,-10,34,25,4,4
4430,7,5,-9,-5,-26,0,3,6
4435,-8,14,-4,-9,12,-1,-2,-4
4440,26,-23,4,16,-12,-8,-4,3
4445,-22,24,11,-13,-24,-2,1,-12
4450,-22,-3,-27,-1,29,0,-5,-9
4455,21,4,25,-2,-17,1,3,3
4460,4,2,-17,-3,-2,0,-2,1
4465,0,42,-3,7,0,-10,0,16
4470,13,-59,6,-3,22,7,-1,-16
4475,4,12,-2,-1,-35,-8,-7,-8
4480,-6,19,7,-1,-2,-7,-3,-6
4485,4,-22,-18,-4,-15,-1,0,7
4490,-18,-5,0,-3,-1,2,4,11
4495,8,27,6,12,0,-6,-1,3
4500,12,-7,-9,-29,1,10,0,-2
4505,-7,7,25,5,19,-8,-4,-4
4510,-6,7,11,1,-16,0,-1,-1
4515,-4,-28,-24,6,1,1,2,-1
4520,-5,29,4,-8,-22,-4,0,-1
4525,-7,32,8,7,1,0,0,-8
4530,16,-14,2,-1,19,-1,-2,1
4535,-27,-14,0,-7,-7,3,5,12
4540,28,-3,-7,8,6,0,-2,-5
4545,-8,1,4,0,21,-3,-7,-11
4550,9,11,-2,7,-23,-4,1,7
4555,-2,-21,-5,-15,-3,8,2,-12
4560,-30,-11,-10,-4,9,-1,0,4
4565,-10,3,4,14,-2,-5,-1,-12
4570,23,7,5,-8,22,10,3,18
4575,0,-2,5,1,-3,-3,-6,-4
4580,-25,-24,-4,0,-5,-3,-2,-11
4585,7,11,-9,5,-36,-10,-5,-3
4590,-19,7,14,10,21,5,1,-2
4595,17,3,-26,-16,-4,6,2,5
4600,24,3,4,1,6,5,3,20
4605,-31,10,0,3,-1,-3,0,-15
4610,25,7,-5,-3,-57,-13,-4,-15
4615,-8,19,1,12,41,2,-4,-3
4620,-6,-24,8,-5,-12,4,2,6
4625,11,-9,-6,-5,12,4,4,13
4630,-15,-1,2,-2,-10,-2,-3,-4
4635,11,6,-4,6,18,-2,-1,-2
4640,2,-37,-2,-8,2,1,-2,-4
4645,9,-7,0,-2,-17,3,7,16
4650,-12,35,-11,15,29,-4,-5,-9
4655,9,-55,7,-4,-15,-3,-4,-8
4660,6,47,7,4,-4,-4,-1,10
4665,18,-32,-17,-10,-4,6,4,10
4670,-31,-6,5,-4,-9,1,2,-12
4675,0,32,-7,-5,-19,-10,-1,-2
4680,-3,-12,7,4,32,6,0,-6
4685,8,-11,2,-1,-6,-4,-4,3
4690,-26,-8,-10,-8,-11,-7,1,10
4695,6,28,14,5,-4,3,-3,-14
4700,-4,-9,-18,-12,1,3,0,-7
4705,-6,-6,5,10,20,-4,-5,-8
4710,3,3,5,-19,-17,-1,-2,10
4715,3,-3,-6,0,1,3,7,5
4720,-1,51,8,7,7,-4,-6,-10
4725,-19,-43,-16,1,-13,-3,2,16
4730,34,8,1,-7,32,5,-1,-22
4735,-27,6,15,0,-3,3,1,0
4740,-3,2,5,15,-9,-8,-1,-2
4745,8,-11,-11,-22,-18,0,-6,-1
4750,5,3,-3,8,23,1,1,3
4755,-13,14,9,-8,-11,2,1,2
4760,21,-11,-6,7,13,1,6,17
4765,-20,-19,14,4,-9,-7,-7,-24
4770,6,-10,-37,-17,-19,-5,-5,-3
4775,1,-5,-9,-1,23,1,-2,-2
4780,-26,28,26,-1,-19,-7,-2,-9
4785,22,20,-2,0,-19,-2,0,7
4790,-17,-28,-13,0,27,4,-2,-4
4795,15,-20,7,2,-22,-6,-3,-1
4800,-9,1,-16,-2,0,-4,-2,-5
4805,11,2,8,-2,4,1,-4,1
4810,-14,-17,12,8,-18,-6,-2,-1
4815,-12,11,-16,1,6,0,-3,-5
4820,6,-19,1,1,11,4,1,1
4825,7,30,-5,4,16,1,1,2
4830,0,9,8,6,2,-4,-4,-1
4835,-5,19,10,-10,-8,3,3,1
4840,8,-51,-17,1,0,0,-1,-2
4845,-23,-1,-2,-10,-22,-6,1,-3
4850,25,4,8,3,12,3,3,13
4855,1,7,-3,2,-18,-9,-4,-3
4860,-5,44,9,-7,16,3,-2,0
4865,-8,-63,-8,6,14,2,1,-7
4870,-28,15,4,-3,6,2,2,5
4875,21,-19,8,-6,-15,1,-2,-21
4880,14,-1,3,-3,5,-1,-4,5
4885,-19,12,12,2,-6,-5,1,-5
4890,1,2,-3,-6,-19,-7,1,8
4895,13,0,3,14,-4,-9,-4,8
4900,-14,2,3,-18,14,5,0,-4
4905,5,0,-18,2,-2,3,0,2
4910,-22,9,1,8,-6,3,2,3
4915,20,5,-10,-1,11,-10,-6,-3
4920,0,-6,-2,-5,-16,3,3,0
4925,-3,22,17,-3,7,-3,-4,-2
4930,9,-1,-8,3,-20,0,0,0
4935,-11,-21,-3,6,12,0,8,16
4940,13,24,4,13,23,3,-1,-22
4945,5,7,-13,-24,-3,12,0,-5
4950,3,-7,18,4,-16,-4,-3,-2
4955,-11,-1,-1,-8,-2,0,0,13
4960,4,1,0,8,-17,-7,-2,6
4965,-1,0,-11,4,12,-1,1,-3
4970,12,4,9,-2,-8,-3,0,3
4975,-39,1,-1,7,4,-9,-3,1
4980,29,-10,-13,-33,-25,14,4,-23
4985,-1,5,9,13,45,2,-3,-11
4990,6,5,-15,-3,-7,-3,1,2
4995,1,-12,10,5,13,2,3,4
5000,-10,-3,-6,-1,-20,-12,-5,13
5005,1,0,3,0,-9,-4,-1,-2
5010,-8,-6,2,6,-16,-2,-1,-5
5015,-13,-12,-13,7,55,5,4,1
5020,18,25,21,-27,-41,5,-3,-3
5025,10,3,20,6,10,0,0,-5
5030,-11,-11,-9,-2,1,-4,-2,-6
5035,-3,-4,-39,1,-6,0,-2,-3
5040,-29,-36,-9,7,5,-5,1,5
5045,19,25,17,-2,-1,0,2,9
5050,3,-3,1,5,-13,-7,-5,-11
5055,-12,-14,-6,-17,-3,5,-1,-3
5060,14,14,-6,5,40,8,6,13
5065,0,21,-10,-13,-20,-5,-3,-17
5070,-6,-28,6,3,-1,-1,-4,-10
5075,13,8,1,2,-6,0,-3,0
5080,-26,8,-5,21,-28,-14,-2,4
5085,8,-10,0,-15,37,10,6,16
5090,10,-1,-6,-2,6,6,0,0
5095,-6,-3,-10,-7,0,7,2,-4
5100,2,2,12,6,-24,-10,-1,1
5105,-18,-18,-13,10,-5,2,3,11
5110,13,36,8,-5,1,-11,-9,-14
5115,16,21,11,2,16,13,0,1
5120,-10,-1,-7,3,12,0,1,1
5125,-6,-22,-5,3,-12,-7,-2,1
5130,-25,-37,-14,2,24,10,0,4
5135,9,8,3,-14,-33,-9,-4,0
5140,5,-7,0,4,17,-1,0,-9
5145,-10,5,-7,-3,-21,-6,-5,-3
5150,-8,43,6,-7,3,-1,5,10
5155,9,11,1,-3,-4,4,2,6
5160,7,4,-17,-4,11,0,-3,4
5165,-10,-33,12,14,-11,-5,-2,-22
5170,5,-50,9,-8,-14,-2,-4,-2
5175,-12,-26,-21,-2,4,-6,-6,-3
5180,-7,24,0,0,-10,-1,-2,3
5185,13,17,4,1,34,6,1,12
5190,0,8,3,10,-2,2,-1,-6
5195,-5,-3,14,-2,-10,-6,-1,-6
5200,-6,-22,-16,-3,-24,1,0,1
5205,1,10,-3,-1,-3,-2,0,6
5210,1,3,-2,5,10,1,0,5
5215,20,-31,-2,-6,2,1,-1,-4
5220,-35,-13,14,15,6,-12,-3,-11
5225,13,18,-22,-19,-16,-3,-6,-7
5230,-4,-5,7,-4,9,9,3,5
5235,-7,-12,1,6,8,15,5,4
5240,1,-5,8,-8,9,-3,-1,12
5245,1,7,0,9,2,3,-3,-20
5250,-2,19,-9,-1,-15,-7,-1,-1
5255,5,17,16,-1,2,-3,-2,4
5260,2,1,9,3,7,1,-4,-11
5265,-8,-21,-14,-2,11,1,-1,8
5270,5,5,-13,0,1,1,2,-1
5275,-7,27,14,-1,-12,-1,4,-1
5280,6,-31,-20,1,15,1,0,7
5285,14,15,6,-3,-14,-5,-4,-14
5290,11,-11,-25,-9,5,3,-1,-5
5295,-17,2,3,20,7,-10,0,11
5300,3,3,-17,-20,10,20,4,-6
5305,-13,6,-1,-2,15,4,3,14
5310,16,-10,5,-3,-12,-7,-7,-3
5315,-4,-17,5,7,-13,-7,-4,-4
5320,-1,-4,9,0,-5,3,-1,-10
5325,6,-3,3,-1,-1,2,-1,11
5330,-15,23,1,-2,38,0,0,-3
5335,4,5,0,2,-10,-5,-2,-1
5340,-4,-21,14,-5,-13,0,-2,-3
5345,2,3,-2,-1,-13,0,1,0
5350,9,-67,-11,8,-13,-10,-5,-3
5355,-1,29,13,-21,2,5,-6,-12
5360,8,-12,-7,5,-1,-7,0,0
5365,-10,14,-2,1,3,0,1,8
5370,-20,20,6,-1,-13,-2,2,7
5375,-31,-15,-15,-3,19,8,7,-2
5380,53,36,5,-1,-12,-4,-9,-10
5385,-5,-10,-1,-1,-7,-5,0,-6
5390,-3,0,0,-3,-3,-1,-3,3
5395,1,-3,-2,0,-13,-4,1,7
5400,-19,9,-13,2,13,-1,-1,-1
5405,-3,-23,4,4,2,0,-2,-2
5410,-9,-12,-3,-7,-11,10,8,11
5415,8,3,9,-3,-6,-12,-10,-18
5420,8,14,-14,-3,-22,1,-1,-4
5425,-4,1,-8,5,50,4,2,-6
5430,-5,-12,8,-5,-4,-7,-9,-3
5435,-11,-22,-3,0,-7,3,4,10
5440,21,11,-1,2,-5,-3,4,-6
5445,-21,10,15,4,-15,-4,-2,6
5450,37,3,-18,-2,2,1,1,-9
5455,-23,23,3,-5,-8,-3,-5,-22
5460,-16,-16,8,-5,0,-3,-2,-3
5465,2,14,-2,8,-17,-4,2,15
5470,-26,34,0,0,17,7,1,-12
5475,29,-20,-11,2,-12,-2,-2,1
5480,-23,-14,15,0,17,8,2,-6
5485,13,14,-1,-9,-26,-9,-4,-4
5490,5,2,3,5,27,0,2,15
5495,3,-15,-16,0,-27,3,2,-1
5500,-6,2,13,4,32,-3,-6,7
5505,0,-45,-22,-3,-24,-5,3,5
5510,21,31,20,-14,-26,-6,-9,-13
5515,-10,27,15,10,17,-4,-2,0
5520,15,-9,-12,-14,-14,0,2,8
5525,-24,-21,5,-2,-11,-3,0,-11
5530,-3,8,-2,15,-14,-5,1,8
5535,17,21,4,-17,28,4,-4,-10
5540,-11,2,-12,1,5,1,-1,-1
5545,-2,-26,-3,0,-5,-2,-3,-12
5550,-5,2,11,0,-14,2,5,-1
5555,4,-15,-7,3,1,-6,-4,10
5560,-5,-9,1,-7,14,2,4,3
5565,9,41,-10,0,-8,3,0,7
5570,-6,-86,13,4,-6,-3,-2,0
5575,8,16,-32,17,43,6,2,5
5580,-6,-8,6,-32,-29,-3,0,-7
5585,12,-3,15,5,2,2,-6,-12
5590,-5,29,7,-1,-16,-1,2,8
5595,-11,-14,-9,-4,-10,1,1,1
5600,-21,15,3,15,26,-4,-5,-4
5605,23,22,7,-12,-11,0,0,-3
5610,3,7,-12,0,5,6,2,-9
5615,-1,-18,-11,-7,8,2,-1,-2
5620,-3,-8,-5,13,-15,-5,2,9
5625,1,21,0,-4,-7,-2,0,14
5630,-7,-14,-2,8,29,2,-1,-10
5635,1,-1,27,-4,-24,-5,-2,-1
5640,-31,-35,-28,-6,10,7,-2,-6
5645,39,16,5,10,0,-5,-3,3
5650,-2,2,-13,-12,13,3,1,4
5655,-8,4,27,3,-18,0,2,6
5660,12,-18,-3,0,-12,-10,0,6
5665,-17,-14,0,9,17,1,0,7
5670,8,-2,-3,-1,-4,-1,-7,-24
5675,-13,7,6,-6,8,-7,-10,-7
5680,13,61,1,7,5,3,0,-7
5685,-9,-57,3,-1,10,11,3,5
5690,-2,19,6,-1,-4,-4,2,11
5695,9,-9,-5,-2,-15,-2,1,0
5700,-8,4,3,2,-9,-10,-6,-5
5705,-28,23,11,20,-5,-11,-6,-8
5710,20,9,9,-33,11,27,15,10
5715,9,-17,-16,2,-3,-5,-5,-1
5720,-4,-8,-5,2,-3,-1,-2,-4
5725,0,0,-10,1,-17,-11,-6,-7
5730,-19,3,10,5,-3,-3,0,-1
5735,7,2,-10,4,-5,1,6,16
5740,18,-24,0,-1,10,7,1,-5
5745,-12,23,15,-10,-3,-4,-4,-12
5750,3,-30,-14,11,15,5,-1,7
5755,-6,-32,1,-1,-2,4,2,-4
5760,3,28,19,6,-10,-6,-3,3
5765,-7,-5,-14,-3,9,1,4,1
5770,-9,16,-8,-9,-50,-14,-7,3
5775,-6,-5,13,14,41,7,-1,-18
5780,1,-21,-12,-3,14,11,2,3
5785,9,-12,4,-14,-6,-2,-3,6
5790,-9,11,-4,2,-9,-6,-1,6
5795,4,10,-2,0,-14,-7,-3,-6
5800,3,25,-13,2,-2,-4,-3,1
5805,14,-17,-17,-11,1,3,2,6
5810,-29,-8,-3,11,5,-4,-7,-29
5815,-9,-28,3,-13,-9,-1,2,5
5820,-5,-2,6,10,-3,1,3,6
5825,11,39,2,-12,-8,1,-4,-5
5830,4,8,-1,7,-15,-9,-2,3
5835,-13,-26,-27,-6,29,0,-1,5
5840,25,2,7,-6,-17,5,1,-9
5845,-10,-35,-23,-13,10,11,2,-6
5850,10,17,15,5,20,-2,-1,4
5855,10,50,2,0,-4,-5,-3,-2
5860,24,-42,-21,0,-6,-7,0,16
5865,-3,19,15,-3,-12,-2,3,5
5870,-11,-21,-26,-1,32,9,-1,-25
5875,-2,56,19,-5,-33,-7,-5,-11
5880,-22,-18,16,4,-1,-5,-5,-8
5885,13,18,14,3,3,-4,2,13
5890,-10,14,-44,-11,14,-1,0,1
5895,5,-31,-6,-5,-18,-5,-3,2
5900,-23,15,11,7,-12,4,4,-5
5905,15,9,6,-2,37,1,-2,-4
5910,-5,-49,1,3,-28,-1,1,7
5915,13,3,7,-3,19,0,-4,-10
5920,-2,10,9,-6,-7,-1,0,4
5925,-7,-17,-11,10,-15,-4,-4,-4
5930,4,6,1,1,20,1,-1,4
5935,-2,14,6,5,-3,2,7,9
5940,-4,-3,5,-8,-17,-4,-5,-4
5945,-1,14,-15,5,17,3,1,-17
5950,-2,35,18,-8,-8,-3,-3,7
5955,9,-17,-7,-1,-4,0,-1,-9
5960,-3,-15,-3,11,19,-6,2,9
5965,-9,6,10,-5,-16,-3,-2,-1
5970,7,-25,-5,-7,-5,4,2,4
5975,-3,13,-2,0,-23,1,1,5
5980,-12,1,-12,-8,36,-3,-4,-7
5985,15,1,0,4,10,0,2,-3
5990,7,0,13,12,-23,-7,0,4
5995,-19,-9,-11,-5,-4,4,2,5
6000,0,41,5,-5,-31,-11,-7,3
6005,-3,-15,-11,0,-3,2,0,-6
6010,-8,-7,5,-10,22,5,-7,-17
6015,-6,-45,-10,-1,-4,-1,-1,-3
6020,-8,-35,-10,6,-5,2,1,-9
6025,-15,2,-9,-3,7,-3,-3,1
6030,16,16,14,2,-4,-5,4,11
6035,-19,5,-4,7,8,-5,-4,-11
6040,14,0,2,-11,3,2,1,-3
6045,-2,-8,-2,-7,-7,3,-3,10
6050,-7,-28,-9,5,-7,-4,-1,-5
6055,12,20,8,-16,23,2,-3,2
6060,23,38,16,12,-28,-6,3,-1
6065,-13,-29,-10,4,21,1,-1,-4
6070,-12,41,-5,-7,4,-4,-4,4
6075,-4,-57,-1,-9,-24,2,1,-9
6080,-6,-2,-10,7,28,0,-3,-5
6085,6,18,21,2,-3,0,3,4
6090,-16,-32,-26,1,-30,-11,-5,-8
6095,24,33,7,-1,6,4,4,15
6100,-15,-24,2,11,23,-3,-3,-3
6105,15,5,-4,-16,-16,11,4,4
6110,5,-5,19,3,-5,0,-3,4
6115,0,18,-22,1,20,2,2,2
6120,6,30,12,-6,-31,0,-2,-10
6125,-10,-18,3,12,42,0,1,13
6130,-11,-2,-8,-1,-20,-3,5,1
6135,10,22,10,4,5,0,-10,-21
6140,-4,9,-1,-10,-22,-5,-1,14
6145,-19,-2,-13,-1,-14,0,1,-13
6150,35,1,3,-7,13,-5,-1,14
6155,-22,-1,12,15,-10,-3,-1,-10
6160,-5,-4,-5,-1,-8,-1,-1,4
6165,2,14,-1,1,7,1,-1,-4
6170,5,3,6,3,6,-4,-3,3
6175,20,75,3,-3,3,4,6,15
6180,-2,-70,9,0,5,-1,-5,-13
6185,-7,-23,-21,5,4,-6,-1,0
6190,-21,-21,-4,5,8,-2,-1,-7
6195,25,32,7,-9,-26,-3,-1,8
6200,-6,-6,5,1,19,2,4,8
6205,-15,-2,4,-3,-28,-4,-3,-12
6210,15,-4,6,4,12,2,-1,0
6215,-49,-28,-9,-3,13,-2,-4,-1
6220,61,13,3,0,0,7,5,7
6225,-6,-30,-26,9,0,-9,-7,-4
6230,-2,13,9,-20,-1,9,2,-2
6235,-10,-50,3,7,12,0,1,-13
6240,-35,24,-8,-9,-24,-7,-7,-10
6245,14,15,14,4,-1,-4,3,15
6250,5,-16,1,3,-17,1,-6,-15
6255,-4,0,2,8,8,-9,-1,5
6260,0,-7,-11,-4,-5,6,3,-2
6265,3,22,27,-7,-11,2,2,-2
6270,-19,-8,-14,-4,-6,-5,-1,13
6275,14,23,1,0,2,-5,-2,1
6280,14,17,-5,18,-3,-3,1,-4
6285,-2,1,9,-25,-8,6,5,4
6290,-8,-8,-5,3,16,-2,-4,-1
6295,-10,-29,-15,-4,-27,-8,0,1
6300,12,8,-9,0,19,-3,-4,0
6305,3,8,11,12,-8,-6,-1,-5
6310,-7,-11,-25,-12,8,8,2,-2
6315,8,24,-3,-7,10,5,-1,-1
6320,-8,-6,-7,-9,2,-7,-2,1
6325,-6,8,19,12,-8,-9,-5,3
6330,12,39,4,4,21,8,2,0
6335,-1,-16,-4,-8,-16,0,-3,-3
6340,-1,5,-1,-2,10,3,5,7
6345,15,12,-6,3,8,1,-5,-2
6350,-2,8,8,0,-2,0,7,12
6355,12,-9,0,2,9,3,0,0
6360,-31,-7,-31,-3,-13,-7,-5,-6
6365,-17,-3,-13,-3,9,-3,-1,-8
6370,29,4,14,1,-16,-6,-3,-5
6375,-6,-8,-3,3,6,2,1,6
6380,-9,-19,13,-6,-1,2,-2,6
6385,2,38,-2,-3,-19,-1,1,1
6390,9,-9,-16,8,9,0,-2,5
6395,-3,-68,6,-19,-10,7,-3,-9
6400,-4,-9,-3,3,45,2,-5,-22
6405,-17,-47,-10,9,-29,-7,-3,-7
6410,5,13,1,-7,-3,3,0,-6
6415,6,25,-6,-2,-9,-5,2,17
6420,7,14,13,5,-2,4,3,4
6425,-7,-59,-15,-15,-5,-3,-6,-20
6430,-2,27,-19,8,31,-5,-6,-5
6435,-5,-12,1,0,-2,0,3,1
6440,-14,-6,9,1,7,-6,-3,-3
6445,2,-7,6,-3,29,14,7,5
6450,-12,45,13,-3,-61,-12,-3,4
6455,10,12,6,3,55,4,-3,-13
6460,11,7,7,7,-6,5,3,15
6465,3,-8,-7,3,15,-4,-5,-10
6470,-11,-7,4,-15,-18,1,2,-4
6475,17,-3,-1,7,-23,-2,0,13
6480,-23,13,-29,-11,-10,-7,-6,-15
6485,23,15,10,1,25,3,3,6
6490,-3,-21,15,6,5,3,-4,-9
6495,-4,42,4,4,-28,-6,-1,11
6500,7,-71,-3,-4,8,-4,-2,-13
6505,-8,22,2,0,1,7,2,8
6510,-1,-14,-2,2,-29,-7,-1,-8
6515,-15,-16,-16,-3,27,3,0,8
6520,-10,8,-16,-5,-21,-5,-4,-8
6525,-7,2,-6,3,-10,-6,-7,-12
6530,-5,-7,17,-12,12,4,-4,-10
6535,4,11,-8,9,13,9,3,0
6540,14,25,5,-12,-18,5,4,12
6545,-5,-1,-4,5,-1,-4,0,-1
6550,-10,6,-8,1,15,1,1,1
6555,-16,-42,14,-6,-5,-1,-3,-1
6560,14,11,5,6,8,2,0,3
6565,1,-2,-2,-5,-23,-1,-4,-5
6570,4,9,-11,4,36,5,3,0
6575,-10,-38,4,-4,-18,-11,-4,-7
6580,-5,25,5,-9,-11,4,1,4
6585,9,-13,1,11,13,3,2,7
6590,3,7,-6,-14,-8,-3,-1,1
6595,6,5,9,-9,-4,-3,-8,-11
6600,-8,3,-3,3,-7,-3,-2,-3
6605,-17,-8,5,-1,9,-3,3,0
6610,-3,-21,11,5,-10,-3,-4,-4
6615,21,31,-10,-2,-2,4,3,7
6620,6,-6,0,1,5,-2,-3,-2
6625,-13,10,-11,-8,-5,-4,-1,13
6630,14,3,8,12,-5,-5,2,-8
6635,-7,-7,0,7,16,2,2,-3
6640,-7,-6,5,-15,-13,4,3,1
6645,2,-20,-7,2,10,0,-1,7
6650,-1,34,-1,2,-29,2,4,11
6655,2,7,-1,-1,5,-6,-8,-25
6660,4,12,7,4,17,1,-2,-6
6665,0,-7,-6,2,-6,-4,-3,-5
6670,-2,-13,12,6,-7,-6,0,9
6675,-23,26,5,-5,-3,5,4,-4
6680,23,6,-8,-2,13,7,1,4
6685,0,11,6,-11,-9,-7,-4,-5
6690,15,-44,-22,6,6,1,-4,11
6695,-25,6,6,-1,-28,-8,3,-7
6700,-6,-19,-6,14,30,4,-1,-1
6705,-20,11,10,-7,-12,-1,1,-6
6710,26,32,-4,-8,13,7,-3,-7
6715,0,-6,-7,3,-20,-6,-1,0
6720,-8,9,3,-2,-16,-7,-3,-1
6725,5,-44,-11,5,-2,-8,-2,11
6730,-7,2,8,-4,-1,4,1,-14
6735,14,-13,-8,-8,-13,1,-1,2
6740,-15,4,8,-1,6,-7,-2,-2
6745,14,5,11,6,23,3,-3,-8
6750,27,7,-30,-16,-1,2,8,28
6755,-31,-38,-4,-1,-13,-4,-7,-27
6760,-1,-6,1,-7,-26,1,2,-1
6765,-9,0,0,-6,-5,-2,-2,0
6770,-10,-11,-2,13,21,-3,-1,-5
6775,15,41,4,0,17,-2,3,13
6780,-14,-16,6,4,4,2,-3,0
6785,7,15,-12,-7,-16,-1,-2,-8
6790,-3,-5,19,6,-9,-3,-1,-6
6795,-14,17,-2,5,-19,-4,-5,-1
6800,-24,-40,-3,-7,18,1,3,9
6805,52,22,5,-12,20,5,-4,-10
6810,-13,-5,-4,-2,-14,-3,-5,-5
6815,7,-17,2,6,21,0,-1,6
6820,-6,4,-12,-13,-23,-1,0,0
6825,3,19,5,1,-1,-1,2,14
6830,-36,-12,-2,0,-5,-4,-2,-16
6835,24,36,-13,-4,24,3,-3,-4
6840,2,-44,-12,2,-2,-4,3,15
6845,-15,-8,5,3,-7,1,1,-10
6850,4,5,3,1,-2,-3,-2,2
6855,15,29,0,-2,5,3,2,16
6860,-8,-29,10,6,-7,-2,2,-6
6865,10,3,-3,-3,-25,-6,-3,-9
6870,-12,-9,-7,-4,22,1,-1,2
6875,-7,-2,4,6,-14,-5,-1,2
6880,41,23,9,2,7,8,1,10
6885,-12,-28,0,3,-11,-4,-1,5
6890,-12,5,-7,-3,-1,-6,-7,-18
6895,-7,-29,-2,-7,-25,0,-2,6
6900,0,25,7,3,-19,-5,0,0
6905,-19,4,-8,3,19,4,0,-8
6910,8,-9,4,-4,-3,-2,-1,6
6915,-6,-17,7,14,11,-4,-1,-3
6920,4,38,-25,-26,-50,-3,-4,4
6925,13,12,5,-1,51,12,2,-2
6930,-2,1,-17,3,-17,-5,-4,-7
6935,-10,-13,15,-8,21,7,3,-3
6940,26,16,-11,12,6,-1,0,7
6945,-21,-8,3,-9,-12,-2,-1,-5
6950,3,0,15,1,5,1,-2,1
6955,15,-12,-14,-7,-12,-2,-1,0
6960,-14,4,2,13,6,-7,-2,3
6965,-12,13,5,0,0,0,3,-14
6970,1,-10,3,0,14,7,-1,-1
6975,-6,26,-4,1,-13,-3,1,0
6980,-11,-51,-18,-5,9,-3,-6,-9
6985,19,5,-6,1,-11,2,6,24
6990,8,25,14,-1,0,-1,-5,-8
6995,6,6,-14,-12,5,1,-2,-3
7000,-10,5,10,2,0,5,5,5
7005,19,18,0,0,18,0,-3,8
7010,-19,-30,1,5,-12,-8,-2,-14
7015,6,4,-25,-9,-7,-4,-3,0
7020,12,-8,-16,-5,-4,6,1,6
7025,-55,6,6,-3,-14,-9,-5,-36
7030,10,33,10,2,1,3,0,1
7035,-6,-3,-1,7,-6,-3,1,10
7040,9,16,2,7,-15,-3,0,-2
7045,-2,-7,1,-11,8,2,-3,11
7050,8,-8,-20,0,20,1,3,-2
7055,-1,0,5,-7,-11,0,-2,-8
7060,-2,11,1,0,6,-7,-7,4
7065,19,-21,-1,4,4,-3,1,15
7070,-21,5,4,0,5,6,3,3
7075,18,2,-18,7,-22,-1,-3,-8
7080,5,-7,0,-7,30,0,-8,-25
7085,-16,-29,-27,-5,5,1,-3,-6
7090,3,-11,2,0,-12,-5,1,9
7095,-5,-8,-6,2,9,0,6,22
7100,14,39,13,3,-20,-5,-6,-19
7105,-4,-34,-8,1,3,3,-3,1
7110,-8,-9,-14,-15,15,7,1,4
7115,20,-14,12,12,22,3,1,-5
7120,-26,-7,8,-13,-22,0,1,3
7125,26,18,12,10,-24,-11,-6,6
7130,-4,-27,3,1,18,7,4,-5
7135,-12,-14,9,-5,-6,7,-5,-18
7140,-6,29,9,7,21,-1,-3,-8
7145,-5,-52,-18,-4,-12,-1,2,7
7150,17,32,0,11,-12,-7,-1,15
7155,-21,8,4,-11,7,-3,3,-3
7160,15,-25,0,5,25,4,-2,-16
7165,-9,11,2,-6,-52,-10,-7,4
7170,-9,13,-12,5,52,5,-1,-1
7175,49,-25,-19,-21,-15,8,1,23
7180,-31,18,24,5,-9,-8,-4,-28
7185,-6,33,-35,-2,-7,4,1,0
7190,-3,-23,19,9,-16,-10,-3,3
7195,-17,-9,10,-11,22,9,5,6
7200,17,-1,-5,-2,-13,-1,1,7
7205,-3,19,25,0,25,-1,-4,-6
7210,3,-5,-5,0,-13,-7,-3,2
7215,-8,1,11,-6,-27,-3,-1,-1
7220,-1,-13,-12,-6,26,2,3,7
7225,-20,-5,8,6,-9,-1,-1,-13
7230,29,16,7,-3,0,-1,-2,7
7235,-3,-69,-28,20,11,-7,0,18
7240,-15,5,0,-19,-15,6,0,-22
7245,12,12,18,11,3,3,4,9
7250,-9,1,-4,-15,8,5,-5,-12
7255,5,26,15,14,-30,-14,-7,-14
7260,7,-32,-6,4,26,0,-1,12
7265,-14,2,-11,2,14,2,6,12
7270,24,-21,8,-11,-17,-2,-1,-1
7275,-17,38,8,-2,-15,-3,-3,-10
7280,-13,-49,-9,-1,26,1,-1,2
7285,21,1,9,2,8,-7,-3,0
7290,-17,-18,-37,-13,-24,-5,-3,1
7295,-4,-1,-6,2,10,6,-1,-11
7300,-4,36,21,8,2,1,3,12
7305,4,17,0,3,-23,-8,-1,1
7310,4,-39,-10,-12,22,7,5,3
7315,-19,13,-8,5,19,-3,-5,-5
7320,12,26,9,-6,-31,-4,-3,-6
7325,11,13,-8,0,-5,1,0,-2
7330,-26,-8,5,12,7,1,0,-5
7335,15,2,6,-10,11,7,4,2
7340,8,-50,0,5,11,-3,0,12
7345,-7,11,-17,-15,-15,-3,-2,-1
7350,-7,-5,-24,1,-30,-2,0,-10
7355,-16,-15,1,0,16,-4,-1,-6
7360,8,41,-1,-3,-10,-2,1,13
7365,14,-18,7,-3,3,3,2,-2
7370,-21,-33,-7,5,-2,0,-1,-6
7375,15,44,10,-3,2,-4,-5,-6
7380,-11,-16,3,6,-11,-6,-4,2
7385,-2,-30,-1,-11,-1,1,2,-3
7390,14,21,11,7,19,5,0,10
7395,-17,-23,-1,3,-12,-2,0,-15
7400,-4,5,8,-2,1,-2,1,5
7405,2,6,3,-3,-10,-6,-7,-10
7410,-3,22,15,2,-8,-8,-4,1
7415,2,-12,-6,8,15,4,5,45
7420,4,-7,-39,-14,-5,3,-4,-51
7425,-19,8,14,3,3,3,-7,-20
7430,8,33,7,1,3,-1,2,9
7435,-3,16,5,7,-15,-5,-1,1
7440,-5,-9,-10,-2,-7,-4,1,23
7445,5,-23,2,2,-7,-1,-3,-7
7450,4,21,5,-15,-17,-4,0,0
7455,-13,-9,3,-2,39,7,-1,-20
7460,7,35,-3,-6,-12,0,-2,1
7465,0,10,7,3,13,6,3,0
7470,6,5,12,-1,-16,-7,-3,3
7475,-3,-55,-26,-7,-12,-5,-4,-4
7480,3,4,-5,5,9,0,1,7
7485,1,-1,-1,3,17,3,3,9
7490,-9,-25,4,0,-2,-5,-3,-13
7495,41,51,3,4,-11,2,0,2
7500,-23,-20,5,-4,38,-2,-7,-17
7505,13,12,-14,-1,-6,-2,3,20
7510,-41,-8,4,3,-16,-2,-3,-12
7515,24,9,-1,-4,9,5,-1,-10
7520,1,-10,-4,5,-17,-7,-2,6
7525,-1,-2,-14,-5,-11,-4,1,6
7530,0,-16,7,21,40,5,1,-2
7535,-6,5,2,-26,-26,4,-3,-11
7540,4,9,2,-11,-4,5,-1,4
7545,-7,-19,3,0,9,2,1,-8
7550,13,10,-2,4,-15,-1,0,2
7555,-16,-2,9,6,4,-6,-2,2
7560,10,18,9,6,0,-3,0,7
7565,-28,-35,-25,1,8,-1,-2,0
7570,22,30,16,-24,-25,-8,-2,-16
7575,2,-17,3,6,34,7,-3,-3
7580,0,13,-5,0,-11,0,2,-1
7585,0,26,8,3,6,-3,-2,3
7590,2,1,-12,-2,-21,-7,-3,3
7595,-15,-27,1,-5,-5,-5,-1,-1
7600,8,-16,1,4,-5,-1,-1,2
7605,-17,-35,-11,-1,-8,-1,-2,-9
7610,-5,3,3,24,30,-7,-4,22
7615,19,-14,-37,-51,-37,8,-1,-30
7620,-3,-15,9,-6,12,2,-1,-6
7625,4,4,-2,0,-6,-5,-8,-9
7630,4,19,3,2,-8,0,0,5
7635,-9,16,6,13,-1,-10,-1,14
7640,-6,10,-9,8,8,-1,3,4
7645,11,37,6,-16,-5,5,3,11
7650,-10,-33,-8,4,15,2,2,-8
7655,20,12,7,12,0,-2,-5,-15
7660,-4,-8,3,5,6,6,1,-8
7665,3,7,-6,-6,-10,-4,-6,-1
7670,-12,-9,-4,-6,0,2,1,10
7675,-8,15,8,6,-3,-5,1,5
7680,2,10,2,-3,-8,-2,-1,-1
7685,-2,-18,-3,9,2,-3,-2,-4
7690,-6,-30,0,-4,13,1,3,4
7695,-2,-9,-37,-6,-16,-1,-3,-10
7700,17,-9,11,0,5,8,5,10
7705,-5,4,9,-1,-5,0,0,-4
7710,5,-4,4,-1,0,0,-2,-10
7715,-12,4,6,12,8,-6,-2,11
7720,-14,-2,-7,6,-5,-8,-4,-1
7725,7,19,-2,-4,0,2,1,-4
7730,6,-27,4,-5,-24,2,1,0
7735,-10,-36,-17,4,24,9,4,11
7740,2,-19,-1,-9,26,0,0,-4
7745,-24,3,2,-3,-6,4,1,1
7750,35,49,-1,-3,-3,-6,-12,-26
7755,0,31,20,6,-22,-4,0,11
7760,-11,-33,-15,4,1,-6,-1,2
7765,6,6,16,-1,14,2,4,8
7770,-8,9,-25,5,4,6,1,-6
7775,-9,-31,5,1,-4,2,4,6
7780,26,29,-2,-4,-17,-7,-5,0
7785,-4,13,4,-9,-2,1,-5,2
7790,9,-30,-10,-1,5,2,-2,-6
7795,-15,25,1,-5,-8,-3,-2,-4
7800,-17,2,-8,4,-3,-3,-1,1
7805,4,12,1,3,-9,-9,-3,0
7810,7,10,4,-7,18,3,1,0
7815,-3,17,6,-13,-25,1,-1,-2
7820,-14,-46,-3,2,22,-3,-1,6
7825,12,7,-4,3,-14,1,1,-4
7830,-7,3,-2,-8,13,3,0,8
7835,-10,-15,2,7,0,-5,-2,-4
7840,-7,29,-3,5,-10,-4,1,-2
7845,19,-65,2,-11,-4,7,-2,7
7850,-10,26,0,0,-4,0,0,-1
7855,7,21,12,3,13,-2,-5,-13
7860,-4,2,-6,0,-12,-2,-1,-1
7865,-11,9,-22,18,43,-1,0,-4
7870,3,-52,-12,-27,-29,5,3,13
7875,5,35,15,5,13,0,2,5
7880,-11,-4,9,-4,-22,-3,-6,-20
7885,17,18,2,15,21,-2,-1,5
7890,8,-1,-15,-6,-13,2,1,1
7895,-17,-37,-4,0,3,-2,-2,-6
7900,3,-7,1,-2,-12,0,-1,1
7905,-7,-43,0,-5,-4,0,0,4
7910,-15,14,-4,9,0,-3,0,0
7915,6,10,16,-7,2,2,1,-2
7920,11,-17,-18,15,25,-3,-2,1
7925,-3,39,16,-15,-22,3,4,6
7930,-6,13,5,-5,-10,2,-2,-7
7935,-2,-46,-26,-4,4,-7,-5,-2
7940,6,41,13,-4,-5,0,1,4
7945,-11,-36,-15,2,-6,-6,-3,-13
7950,2,0,13,16,4,-8,-2,-1
7955,0,-9,-10,-10,3,5,0,3
7960,-6,20,4,-8,15,9,3,4
7965,17,-6,-8,-3,-6,2,1,-2
7970,-1,30,7,3,-11,-5,-2,-4
7975,2,-4,-15,7,-4,-8,-4,-4
7980,2,-29,-10,-4,-14,-3,-2,16
7985,6,44,18,1,13,-1,-5,-20
7990,-4,-18,-10,-2,-21,-4,-2,-6
7995,4,2,5,4,48,12,6,9
8000,-6,35,7,-6,-10,3,-1,-3
8005,2,-44,-3,-2,2,-3,-1,6
8010,-7,18,-6,2,-12,-7,-3,-5
8015,-2,1,13,4,-4,-14,-7,-5
8020,0,-13,-15,-17,-5,22,6,1
8025,-5,25,8,3,-8,-2,0,-2
8030,-10,-23,5,4,31,-1,-1,5
8035,7,7,-4,-7,-24,-1,0,3
8040,17,61,16,3,7,-10,-1,3
8045,-18,-11,-9,-2,-7,-2,-4,-27
8050,3,1,-4,-2,-1,-1,-4,1
8055,-20,4,-19,2,11,1,4,9
8060,13,-97,8,1,-12,-1,2,-10
8065,-18,-2,-2,-4,4,1,-2,4
8070,22,9,2,2,-2,-3,1,-2
8075,-5,-1,19,2,-8,-2,-5,-11
8080,-10,-2,-19,2,-17,-8,-2,9
8085,-10,0,-8,-14,27,3,3,5
8090,-23,-22,5,-3,2,2,-3,-23
8095,18,39,8,2,-10,0,-1,2
8100,2,-6,8,1,-2,-3,-1,-2
8105,-2,11,-15,11,8,-8,-8,-4
8110,-19,-8,2,-13,4,0,-1,9
8115,-2,-12,6,-7,-3,5,1,-2
8120,5,-10,-14,-8,-18,-1,2,7
8125,13,8,-16,2,-6,-4,1,1
8130,0,21,4,8,4,0,4,7
8135,1,4,-2,2,24,5,-1,-8
8140,-15,-14,10,-5,-6,-6,-4,-7
8145,7,-11,2,3,0,6,3,9
8150,5,-8,-7,-1,12,-4,-1,3
8155,-1,9,15,3,-27,-1,1,8
8160,-7,14,2,-3,1,4,2,2
8165,7,-26,-18,-4,-23,-3,0,-2
8170,0,-13,3,12,8,-3,-4,-12
8175,-2,18,-2,0,24,-3,-3,6
8180,3,28,-12,-19,-10,1,-1,-1
8185,-18,-57,19,11,-24,-5,-4,-15
8190,19,26,-10,-8,23,11,2,5
8195,6,3,0,1,-16,-9,-3,-3
8200,-25,-20,-18,7,17,2,-4,-14
8205,-6,32,8,-6,11,-4,-2,7
8210,19,23,5,-5,-13,0,0,4
8215,-3,-19,-10,4,6,-2,-1,-4
8220,1,7,19,0,-6,-4,-3,-2
8225,1,28,-12,-5,0,-1,1,1
8230,-24,0,5,-4,-3,1,-2,-8
8235,24,8,5,0,-5,-1,-1,7
8240,-5,17,6,10,1,-3,2,2
8245,0,-12,12,6,21,2,-5,-8
8250,7,10,-1,-13,-10,2,-2,7
8255,-19,-17,-16,5,-25,0,2,-1
8260,5,24,7,-7,19,1,-2,-9
8265,2,-4,10,2,-13,-1,0,4
8270,-1,-22,2,13,32,2,1,2
8275,-5,33,-7,-14,-22,-7,-3,-5
8280,8,-15,2,12,6,1,1,7
8285,11,37,5,-10,7,9,3,15
8290,-6,-26,-36,3,-12,-3,2,-2
8295,-6,-6,39,-5,4,0,-2,-8
8300,2,9,-21,1,-5,-2,-6,-7
8305,-16,-19,-7,0,24,5,2,5
8310,13,-11,-3,-4,-5,-1,2,7
8315,3,-4,3,12,19,3,-1,3
8320,-2,-4,-9,-14,-9,4,3,2
8325,-2,16,5,8,-23,-3,-5,-9
8330,-4,-3,-4,-4,-31,-11,-5,0
8335,-1,-25,-6,-17,34,12,4,6
8340,-4,-11,-4,20,12,-8,-7,-13
8345,7,-2,4,-10,-21,-4,2,1
8350,2,20,-7,2,1,1,-3,-2
8355,-4,-45,-4,2,-9,-4,-4,-4
8360,-4,1,-10,-10,6,-1,-1,14
8365,-1,-6,12,5,7,3,1,-15
8370,-2,19,11,8,-4,-2,-2,-9
8375,16,2,-18,-16,-3,1,1,6
8380,-12,17,10,-2,-6,-4,-3,-12
8385,5,-4,-10,10,-19,-7,0,12
8390,-22,-14,-7,-21,25,4,1,-1
8395,8,-51,-10,2,-20,2,2,9
8400,0,-44,9,5,-29,0,5,-3
8405,-7,0,-11,-10,37,4,-5,-8
8410,26,20,30,10,0,-4,-3,0
8415,-17,35,2,8,-10,-6,0,-3
8420,-1,-43,-15,3,35,2,-1,-6
8425,4,-7,7,-5,-17,-3,0,4
8430,-7,1,2,-17,-27,4,-1,1
8435,26,-7,3,-3,8,-5,4,20
8440,-26,27,21,7,-16,-2,-3,-18
8445,-9,2,-6,9,23,-5,-8,-18
8450,1,12,-3,-9,13,14,5,4
8455,-8,-13,12,0,-19,-2,-2,-9
8460,6,13,-15,-2,10,-3,0,4
8465,13,8,-2,0,9,0,1,10
8470,-9,-28,-6,-10,-26,-3,1,4
8475,-7,31,-6,5,14,-3,-5,-12
8480,12,-3,-6,1,8,1,1,2
8485,-7,2,15,-4,7,4,-3,-5
8490,-7,0,12,4,-31,-12,-1,5
8495,5,-5,-7,3,2,0,-4,-9
8500,10,-27,0,-5,-1,2,-3,8
8505,-5,16,3,-1,2,8,7,-3
8510,-9,-7,5,6,2,-6,-5,-2
8515,14,58,-5,3,-7,5,5,3
8520,-2,-62,0,-9,14,1,-4,-3
8525,-17,-20,-18,-5,-26,-6,-4,-1
8530,1,-16,-14,-4,18,6,3,4
8535,-2,11,4,-3,-11,-8,-3,-14
8540,-3,24,17,-2,-11,-5,-2,1
8545,8,13,-19,6,-5,-2,-7,-6
8550,-2,-13,-3,-16,-15,3,7,18
8555,-10,5,2,-5,-1,-5,-8,-9
8560,-9,-38,-12,5,-5,-5,1,-8
8565,10,-15,22,2,-14,-3,-1,-9
8570,8,44,12,4,3,-3,-8,-14
8575,-5,-46,-33,-3,-3,-1,3,12
8580,6,39,12,-10,38,2,-2,-3
8585,-15,-38,-7,11,2,-5,1,10
8590,6,-18,-12,-19,-27,-4,-2,-7
8595,-9,-5,-3,2,-11,1,-2,0
8600,0,16,3,-6,12,2,1,6
8605,5,18,-32,1,-2,-3,-2,-6
8610,-1,-47,10,11,14,2,-1,0
8615,-16,5,3,-11,19,9,3,6
8620,2,8,-10,7,-12,0,-1,-5
8625,0,-1,31,-15,5,-2,-5,-8
8630,13,9,-8,12,-13,-9,-6,-1
8635,-5,-17,13,-4,6,-5,-3,3
8640,-9,-5,-16,-2,18,4,-1,-7
8645,30,19,9,-6,-27,2,-1,8
8650,-3,-42,-2,5,5,-3,-2,5
8655,7,-15,1,-9,2,0,2,-4
8660,0,47,17,-8,-22,-2,-5,-1
8665,-9,-45,-16,2,-16,-4,3,9
8670,-13,43,6,8,18,3,-2,-3
8675,13,17,10,15,1,-9,2,9
8680,-2,-23,-6,-13,-12,10,0,-18
8685,0,15,6,-1,10,2,3,4
8690,-41,-13,-14,-1,-10,-1,-4,-9
8695,27,-12,1,1,27,-1,2,15
8700,11,7,-9,7,-17,-11,-5,-11
8705,21,11,15,-9,3,4,1,8
8710,-4,30,1,3,25,6,6,9
8715,-27,1,-11,-12,-19,-2,-7,-25
8720,-8,15,5,8,-37,-7,1,11
8725,-11,20,1,6,34,8,1,-4
8730,-2,-42,-30,-13,-8,-2,2,-2
8735,4,56,9,2,5,7,1,-4
8740,30,-19,9,4,7,5,9,30
8745,-24,27,-18,-1,-22,-4,-5,-24
8750,4,23,11,6,9,-5,-7,-12
8755,-10,-2,-11,3,16,0,-4,-1
8760,9,19,-2,-11,-13,1,2,14
8765,-12,-59,-3,9,6,-7,1,11
8770,20,21,-5,-11,-30,-8,-3,-10
8775,-16,-36,12,-6,-3,9,3,4
8780,8,13,3,12,-24,-10,-5,-15
8785,-8,-68,-4,-7,47,5,4,4
8790,-11,6,-2,8,-13,-6,-3,-9
8795,27,-12,4,3,13,-5,0,19
8800,-30,-1,-13,0,13,5,0,-21
8805,10,50,-4,-11,-18,2,0,-3
8810,-7,-18,-1,1,3,-6,-4,-3
8815,-5,10,6,1,-7,-6,-2,-1
8820,12,-42,4,0,13,5,3,10
8825,4,24,1,0,4,-7,-4,2
8830,-7,-10,6,-7,-16,4,1,-8
8835,-3,29,-12,6,-7,1,-1,-5
8840,8,5,-5,-5,7,-1,0,3
8845,-3,-5,-9,-10,-20,0,-1,3
8850,1,23,21,6,8,-1,0,-1
8855,-7,-8,-6,4,-18,-7,-4,-17
8860,-8,-10,0,-1,9,-2,-3,0
8865,18,12,5,4,23,5,5,9
8870,-16,33,-13,-5,27,6,1,2
8875,2,-43,-2,5,-22,-5,-4,-10
8880,11,36,3,-9,-19,-3,1,10
8885,-26,-13,-3,6,1,-1,-1,-15
8890,7,-25,1,-8,-5,7,6,6
8895,6,12,0,16,27,0,-1,-3
8900,-11,-3,20,-11,-12,0,-3,-1
8905,-6,-10,-7,-3,-22,-9,-10,-2
8910,21,16,13,-4,4,2,1,6
8915,-12,-21,-2,-6,4,1,1,-5
8920,-8,26,11,6,-2,-8,-1,15
8925,1,13,-4,-1,17,10,0,-22
8930,0,-22,2,2,-13,-4,-2,-6
8935,11,-12,-9,0,6,-1,-1,9
8940,-7,-6,-15,-6,-23,-9,-4,-3
8945,-15,-17,6,0,19,6,1,9
8950,11,13,-10,3,1,1,2,8
8955,10,29,-4,-5,-8,-1,0,-6
8960,-14,-24,5,12,5,0,1,6
8965,2,-6,-5,-16,-41,-9,-8,-14
8970,-2,2,10,15,43,3,-2,-2
8975,-3,9,-16,-18,-24,2,4,9
8980,-3,-26,1,6,9,-3,-2,-13
8985,10,16,-11,-2,-4,-8,-1,19
8990,-7,10,11,-3,8,3,2,-11
8995,-5,7,5,3,-22,-2,-3,-7
9000,-16,-14,-15,3,36,1,-3,-1
9005,13,30,-9,-10,-28,-5,0,6
9010,12,7,16,10,5,0,-3,3
9015,0,-9,-4,-9,-5,3,3,-4
9020,2,-11,2,-4,-6,0,-1,0
9025,-7,-10,1,8,4,-4,-2,-9
9030,-5,8,-7,3,4,6,0,5
9035,-6,-29,-9,-14,-10,-4,-2,1
9040,-6,17,4,7,11,-2,1,-8
9045,2,8,13,-8,-16,3,0,1
9050,16,-47,-19,5,22,-4,0,21
9055,-22,-18,2,4,-31,-9,-9,-35
9060,6,3,0,-5,33,13,3,2
9065,2,13,-8,-1,-4,-3,1,1
9070,-7,-14,13,2,-18,-9,-4,-3
9075,1,-9,0,-8,34,13,6,20
9080,2,13,-7,-5,-19,-11,-1,2
9085,16,21,20,18,46,8,1,-4
9090,-5,-13,-27,-22,-29,-3,-2,2
9095,0,-40,-23,5,8,-8,-6,-5
9100,-14,17,24,10,-22,-2,-1,-6
9105,-11,-3,-9,-5,-7,1,2,13
9110,10,-12,-19,-13,-8,-5,-4,-24
9115,5,27,20,3,32,6,4,18
9120,-15,-8,-13,-1,-19,-4,-4,-7
9125,6,-18,-9,2,-5,-4,-4,-14
9130,-4,0,-1,3,8,-1,-5,-2
9135,-2,37,4,2,-13,-2,4,3
9140,-2,-28,-7,-20,8,-2,-3,10
9145,26,-21,-5,-1,7,0,-1,-6
9150,-10,20,10,5,-18,-8,-4,-5
9155,4,-8,2,1,8,-1,0,-7
9160,3,3,-1,1,2,0,1,4
9165,-18,-28,8,0,-13,-4,2,7
9170,17,51,-8,-11,-2,-2,-1,8
9175,-12,-22,15,-4,-7,2,0,-7
9180,-6,-7,-10,3,5,1,-3,-5
9185,4,6,2,-5,-5,-1,-4,-3
9190,6,7,24,5,-10,-1,2,-5
9195,-1,17,-2,-5,-10,-7,-4,6
9200,3,33,-9,4,34,5,0,-2
9205,0,-10,-1,-3,-44,-8,2,18
9210,-17,-10,-5,-9,45,11,1,-12
9215,7,-26,-15,4,-18,-6,-7,-6
9220,5,-19,-3,-6,-6,-1,-1,-1
9225,-10,23,-18,11,5,-4,-4,-2
9230,5,-4,7,-11,-18,-6,4,4
9235,5,3,-9,10,-19,1,-1,1
9240,5,40,8,-9,17,5,2,16
9245,-20,-38,-6,5,-1,-7,-6,-33
9250,-2,-11,1,-3,-1,5,-6,-20
9255,-5,40,1,-1,-11,-5,-6,-9
9260,18,-21,4,6,8,-5,-3,7
9265,13,29,11,1,15,13,10,25
9270,-41,-44,-20,-4,-1,-3,3,1
9275,12,25,2,-4,10,5,-1,-3
9280,-10,-38,-23,0,-34,-9,-6,-13
9285,0,3,27,-1,28,-2,-4,-3
9290,7,21,-32,1,-7,-1,-1,10
9295,-3,-9,-10,5,9,-6,-2,1
9300,-4,-8,-4,2,18,1,4,-3
9305,14,1,7,-9,-20,4,4,6
9310,-23,-20,-8,4,-7,-2,-1,-8
9315,-8,-6,2,-3,-6,-8,-1,7
9320,19,5,2,-7,-12,2,1,7
9325,0,17,-4,4,14,8,-2,-28
9330,7,10,1,11,17,-1,-1,2
9335,-1,3,13,-15,-1,2,0,5
9340,-11,-24,-15,1,-16,-4,-3,-13
9345,-16,7,0,0,-15,-3,0,10
9350,30,-15,-11,-10,-13,1,3,18
9355,-5,-2,-7,6,-1,-2,-3,-17
9360,-1,7,13,0,25,0,1,3
9365,-10,-17,-17,0,13,-3,-2,-5
9370,-3,15,25,2,-11,12,2,4
9375,-12,-46,-12,4,13,-1,-1,2
9380,11,21,9,2,-21,-1,0,1
9385,-10,-6,-22,-5,-35,-7,0,0
9390,20,-4,11,3,45,6,1,12
9395,0,15,3,12,11,-4,0,9
9400,-7,0,-4,-16,-11,10,2,-34
9405,-3,-15,-12,3,-3,-14,-11,-3
9410,-2,14,5,-14,-51,2,1,0
9415,2,1,4,-2,44,6,1,-6
9420,-14,28,4,7,2,-2,-1,8
9425,23,12,-17,-9,-14,-1,0,9
9430,-6,8,2,15,-15,-5,1,-5
9435,-15,13,-2,-18,5,2,0,-14
9440,-3,-6,7,8,4,0,2,3
9445,-5,-33,9,-7,-17,-3,-3,0
9450,0,12,-10,2,28,3,-1,-4
9455,0,-9,-15,7,-11,-2,-3,-3
9460,1,-7,-8,-12,-4,2,1,4
9465,-12,20,-1,6,17,2,-1,-1
9470,8,-23,0,1,-3,-7,-2,-1
9475,-12,-2,20,-10,-33,1,5,8
9480,26,30,8,4,9,5,-3,-12
9485,-8,-21,5,-8,24,2,4,16
9490,-12,-8,-7,9,-6,-4,0,-2
9495,1,12,4,7,-16,-2,-2,-1
9500,-3,-7,-28,-5,-13,-8,-3,6
9505,17,27,27,-11,5,-2,-2,1
9510,-14,-21,9,10,21,0,0,-2
9515,13,-11,-4,-8,-17,5,0,-3
9520,-4,-8,-4,15,5,-13,-4,5
9525,-3,-8,-2,-22,-13,4,-1,-6
9530,-11,4,4,-7,-16,-9,-5,-3
9535,22,-10,13,3,24,3,-2,11
9540,-17,-28,-5,9,-9,0,-2,-10
9545,18,27,4,-5,-6,-4,1,-3
9550,-15,-59,-12,-1,18,6,-1,-9
9555,10,33,6,0,-18,0,2,5
9560,-17,-40,5,-5,30,2,-1,0
9565,6,-20,-11,0,-16,2,6,24
9570,-10,23,5,11,-16,-16,-7,-27
9575,0,32,9,-3,32,18,3,0
9580,-2,-2,11,0,-1,-3,-5,-6
9585,8,10,-8,8,2,3,1,-2
9590,9,-15,1,-7,4,7,5,25
9595,-5,1,-8,9,3,-9,1,-5
9600,-7,12,4,-6,-3,1,-5,-11
9605,-36,-8,-6,1,15,2,-3,-11
9610,51,4,3,3,7,-5,-2,10
9615,-8,-15,-8,0,-29,-3,0,4
9620,-4,-4,-3,-8,8,3,-3,-10
9625,2,5,8,13,16,0,0,-2
9630,4,-22,5,4,17,-2,-2,14
9635,-4,-6,-10,-13,-23,-2,4,-10
9640,4,5,5,3,22,7,-2,-2
9645,-11,-1,0,-2,-11,-2,0,0
9650,-4,15,-1,-4,-16,-6,-3,0
9655,-5,-11,-13,-1,23,3,0,-2
9660,-7,9,10,-5,-24,-7,-1,2
9665,11,-3,10,4,-2,0,-1,-5
9670,3,-1,-23,-8,1,6,1,7
9675,-12,-7,16,2,2,-8,-5,-15
9680,7,31,0,1,-32,-4,0,3
9685,-2,14,12,11,14,1,0,5
9690,-6,-2,-1,-14,-16,-2,2,3
9695,-17,-20,-15,7,8,0,-1,-5
9700,32,2,-11,-2,13,3,2,14
9705,-14,22,12,6,-32,-10,-3,-4
9710,-11,-27,17,-7,21,6,-2,-17
9715,-1,-11,-18,-4,10,0,-2,-4
9720,0,-10,4,5,-8,1,3,5
9725,0,-14,-8,-8,-15,-7,-4,0
9730,-1,19,7,5,-7,-3,0,-4
9735,4,8,3,-1,-5,0,2,16
9740,-13,-20,0,2,-3,-7,-5,-16
9745,27,28,-4,1,30,14,3,4
9750,-9,-2,-28,-5,-21,-4,-3,-7
9755,-4,-2,14,0,17,2,2,5
9760,17,25,4,6,-9,-1,1,3
9765,-27,-26,-11,-7,-30,-5,-5,-11
9770,15,7,4,4,20,2,1,-3
9775,21,-7,11,-7,-8,3,-1,10
9780,-44,14,3,5,-14,-3,-1,-10
9785,12,-38,-25,4,38,3,2,-1
9790,-12,-33,-16,-17,-28,3,1,-2
9795,-12,13,3,4,5,-6,-7,-11
9800,14,-12,-5,1,6,-3,2,14
9805,6,5,8,-2,-7,4,3,-3
9810,-14,34,6,12,10,-7,-3,2
9815,3,-2,-3,-9,-4,1,-1,5
9820,7,10,-4,-9,-11,-2,-1,-8
9825,-7,4,7,-1,-6,-6,-5,-6
9830,17,18,5,2,3,3,4,5
9835,-8,-21,-5,-3,-28,-7,-3,10
9840,9,30,0,-6,37,1,-5,-3
9845,3,3,2,-6,-10,2,2,-2
9850,-10,6,12,0,-6,-3,-2,1
9855,-2,25,-9,8,-12,-7,-1,-14
9860,1,-76,-1,2,-13,-5,2,11
9865,-9,18,12,0,16,8,1,-14
9870,17,0,2,-7,3,-2,-3,10
9875,-37,8,1,2,-6,0,-2,-16
9880,1,12,-12,-4,22,-1,-2,-4
9885,-13,-9,9,-4,-14,3,0,-4
9890,9,33,9,2,8,1,-2,-4
9895,11,-31,-4,-3,-7,-4,0,10
9900,-7,-14,-2,-1,-7,-7,-2,1
9905,6,27,2,-3,-1,3,-2,1
9910,-19,5,-15,5,3,1,4,3
9915,18,-9,-1,2,12,1,-4,-4
9920,0,6,-13,17,17,9,4,13
9925,5,-11,-7,-28,-36,-8,4,4
9930,-10,-12,11,1,-2,3,-3,-4
9935,6,5,8,15,-8,-8,-4,-14
9940,4,31,5,-18,19,14,7,10
9945,6,-44,-26,11,-15,-11,-6,-2
9950,-2,8,19,-4,17,-1,-4,-19
9955,-16,-6,7,-3,-6,0,0,-2
9960,14,12,1,-1,-26,-9,-2,7
9965,-5,-7,-14,2,-9,-1,1,13
9970,-5,-16,-1,-7,17,-6,-7,-13
9975,12,8,-9,4,42,7,0,4
9980,-11,-12,0,-9,-20,-1,-1,-11
9985,4,14,12,15,-1,-9,-2,10
9990,-22,-5,-4,3,-2,6,-1,-12
9995,15,-8,-20,-15,-9,-4,0,6
10000,-5,-18,1,-18,-21,-2,-3,-7
10005,-9,31,12,8,5,1,-1,-4
10010,4,-10,-13,6,5,-3,3,14
10015,4,0,-6,1,-19,-1,4,15
10020,-3,-7,17,-7,11,2,-5,-13
10025,-25,-4,1,-1,-4,-5,-6,-26
10030,32,6,14,-1,17,7,0,6
10035,0,-17,-16,3,-9,-9,-3,3
10040,-4,12,8,7,-9,2,6,4
10045,-6,5,3,-1,29,9,0,4
10050,-3,-35,-16,-15,-20,-5,-2,-6
10055,1,21,21,8,12,1,1,-1
10060,12,-20,-15,0,-17,0,0,5
10065,-22,-3,7,4,21,0,0,-4
10070,15,16,-12,-3,-29,-3,3,2
10075,-7,4,8,9,9,-5,-6,-8
10080,5,-11,-29,-16,-9,-1,1,4
10085,11,-2,3,10,-3,3,2,4
10090,-15,30,-1,-7,26,-2,-1,-4
10095,10,-27,14,7,9,6,0,1
10100,-10,11,-2,0,2,0,-1,-6
10105,5,14,-8,-1,-19,-4,2,9
10110,6,4,14,6,11,5,2,1
10115,3,14,-14,-3,1,2,1,-1
10120,-8,-11,-25,0,-9,-3,-3,-11
10125,10,-9,-3,-12,19,2,-5,-5
10130,-14,10,-11,4,1,-3,0,0
10135,11,9,32,-1,-15,2,5,16
10140,5,-17,6,3,-39,-6,-2,2
10145,-9,6,4,-2,18,1,0,-13
10150,3,-12,-3,7,6,-5,-3,-3
10155,-8,16,1,-8,34,6,1,-4
10160,0,18,16,-5,-19,-6,-5,3
10165,1,-65,-12,-6,-2,-7,-1,4
10170,-7,4,9,16,3,5,4,5
10175,-16,4,-12,-23,-30,-6,-1,-5
10180,16,-9,7,13,19,-1,-5,-7
10185,3,22,0,-2,-16,-2,0,5
10190,-7,-20,-3,-7,4,1,-5,5
10195,-6,-9,0,-7,-4,1,3,-12
10200,-11,27,1,12,41,4,0,-8
10205,-1,-44,3,-1,-13,-9,-9,-1
10210,1,-3,-5,-14,-38,-1,0,0
10215,2,-13,5,-1,18,-1,2,21
10220,-1,12,5,4,6,2,1,-20
10225,12,19,1,3,-1,-5,-2,-1
10230,-5,9,-6,-10,-24,-4,-4,-1
10235,-13,-4,-5,7,13,0,-1,-4
10240,9,7,12,0,-3,0,4,10
10245,-2,-14,-9,-4,-12,-2,0,1
10250,1,-11,-6,2,17,1,-2,-5
10255,1,2,4,-2,-28,-8,-5,-5
10260,-6,8,0,0,-22,-5,0,6
10265,-4,-16,-12,0,55,7,1,-5
10270,-2,34,9,5,-14,-6,-1,-8
10275,2,-37,-12,1,-5,3,-2,1
10280,5,-23,6,-19,-31,-3,3,6
10285,-8,33,-5,-10,3,-1,-3,4
10290,9,2,3,10,-16,-10,-4,0
10295,-3,-13,2,0,11,2,-6,-13
10300,3,-4,-3,3,-4,0,6,25
10305,-4,14,1,0,4,1,-3,-14
10310,-11,-13,-6,0,3,-1,-1,-12
10315,-7,17,-9,4,-20,-6,-4,-3
10320,-13,-18,-2,-4,25,0,0,6
10325,17,-3,1,1,-4,-3,-3,3
10330,-21,-22,5,-2,-17,-2,4,6
10335,-7,10,-23,-7,10,2,-9,-19
10340,6,-25,-6,8,9,-3,-2,1
10345,-2,11,-3,-12,6,8,4,4
10350,13,32,8,-9,-20,0,3,7
10355,1,-17,-22,7,-2,-3,1,6
10360,-12,20,7,-1,22,-2,-6,-7
10365,3,-16,0,2,-32,-3,2,5
10370,9,8,0,4,26,6,2,-2
10375,0,30,22,1,-3,-5,-3,-2
10380,-2,-34,-21,-1,18,6,0,-7
10385,-11,10,3,-1,-1,0,1,3
10390,31,4,-10,-5,-16,-3,2,11
10395,-14,-15,27,-2,17,-1,-3,-11
10400,10,32,-14,10,15,4,-2,-6
10405,-6,-12,6,-12,-35,-1,-4,-4
10410,-14,-13,-11,8,29,-5,-2,1
10415,14,-13,0,-8,-24,-1,6,20
10420,-7,13,14,-1,-27,-8,-6,-13
10425,9,-9,-10,9,28,5,-3,-13
10430,-1,27,2,2,-11,-1,-1,1
10435,8,0,3,-3,10,-4,-1,7
10440,-18,-11,-17,-3,9,3,6,12
10445,5,24,2,-4,-11,-7,-6,-6
10450,-1,-20,-1,-6,-23,-4,-5,-11
10455,6,18,5,11,18,6,3,14
10460,-2,-26,-4,-18,-30,-2,0,-12
10465,8,26,-12,3,20,-8,-4,-10
10470,-7,-41,0,-8,8,1,-3,-3
10475,-1,-3,-7,-3,-3,2,3,2
10480,10,27,19,10,-11,-9,-4,4
10485,-3,-44,9,6,-4,6,4,-2
10490,-2,15,-14,-5,-8,0,-2,3
10495,-6,-10,-25,6,30,8,2,-7
10500,13,1,6,-11,8,7,3,12
10505,3,8,7,6,-3,-6,-2,-6
10510,4,27,2,2,-8,-1,5,3
10515,-13,-33,-9,-7,-15,-2,-5,-17
10520,-7,-24,-21,14,12,-1,-5,-1
10525,0,-2,4,-3,13,4,6,12
10530,-5,-8,-4,-22,-10,-1,-5,-5
10535,22,27,4,-3,3,-6,2,16
10540,-15,19,14,-3,-2,-1,-8,-32
10545,-8,-29,-4,0,-10,-3,0,3
10550,2,-13,-25,8,24,-1,-3,5
10555,1,5,19,-5,-28,-4,4,-1
10560,17,59,15,10,6,0,-1,7
10565,-17,-22,-12,-10,-14,-7,-3,-5
10570,-9,-9,4,-6,9,-1,-1,1
10575,-6,-32,-13,-17,-17,-2,-5,-3
10580,2,-14,2,3,-15,1,3,11
10585,-19,31,11,7,15,1,0,-1
10590,24,16,14,13,-7,0,2,1
10595,-2,-26,0,-2,23,-1,-3,-4
10600,-22,-11,-12,-5,21,-9,-6,-16
10605,13,-2,7,9,-9,10,2,11
10610,-9,5,-7,-16,1,4,2,24
10615,1,31,11,3,4,7,-5,-45
10620,3,2,16,4,-29,-11,-3,-1
10625,-3,-16,0,1,26,4,0,10
10630,8,30,-10,1,-15,-3,-3,-6
10635,-3,-39,-8,13,4,-6,-1,3
10640,-2,-21,-10,-15,-12,8,3,10
10645,9,17,-4,-7,-10,-3,-1,-5
10650,-24,3,12,7,11,1,0,-5
10655,4,20,-4,5,-1,3,-1,-2
10660,10,35,-1,9,44,8,2,0
10665,0,-30,2,-7,-18,-2,4,12
10670,3,-4,17,1,-1,-1,-5,-9
10675,-25,7,3,3,-24,-3,-2,-16
10680,14,30,16,3,21,0,-1,12
10685,-5,-25,-19,-13,-10,-1,-2,1
10690,4,6,-10,15,13,-10,-3,-8
10695,10,34,13,-28,-40,2,1,11
10700,-9,-15,-7,-5,1,0,-2,-4
10705,3,10,-3,1,2,2,0,6
10710,-5,-19,2,14,5,-4,0,-2
10715,-9,-7,-1,-7,21,-2,-1,15
10720,10,-16,-24,-5,-9,2,-3,-25
10725,-3,40,3,5,7,-2,0,-3
10730,-20,-65,-17,-5,1,-1,-3,-11
10735,16,27,4,-3,-16,-1,-1,14
10740,-5,-27,-6,-3,-42,-6,-3,6
10745,-10,5,8,4,48,-1,-3,-10
10750,0,8,9,-3,-13,-7,-2,-5
10755,1,13,-10,2,-10,-2,0,-5
10760,-11,-11,-6,-7,28,15,5,6
10765,14,-17,2,-2,-56,-12,-5,3
10770,1,19,4,-1,21,5,2,9
10775,-4,-23,3,11,37,-6,-4,-3
10780,-13,11,11,5,-14,-13,-4,1
10785,20,-21,8,-10,-11,13,3,-10
10790,-3,0,4,-4,-10,-3,0,8
10795,4,6,-6,10,-2,-6,-3,-1
10800,-17,8,13,1,1,3,1,-7
10805,12,-12,4,7,-4,-7,-1,-1
10810,12,2,-1,-13,13,3,-3,-4
10815,24,27,3,-1,-1,7,9,19
10820,-49,-6,-6,-2,-3,-11,-6,-23
10825,7,14,-1,11,-4,-3,-2,3
10830,1,-17,-21,-20,-14,3,2,-1
10835,-3,-5,11,10,-38,-7,-2,0
10840,27,41,-6,-5,22,3,3,13
10845,-13,-2,-11,-4,37,14,4,-6
10850,-11,1,-3,14,4,3,0,-1
10855,6,8,10,-11,2,4,0,7
10860,-6,0,-4,2,-19,-6,-2,-2
10865,7,-10,-29,4,-8,-5,0,-2
10870,8,4,14,-7,-9,-5,-1,0
10875,-12,-25,-7,3,27,8,-2,-3
10880,2,14,-8,-2,-19,-1,2,4
10885,7,26,18,-17,29,6,-5,-13
10890,17,-9,3,4,-25,-6,3,16
10895,-29,-14,-7,4,3,-5,-7,-26
10900,6,-19,7,0,19,0,-3,8
10905,-11,-1,-3,2,-15,-6,0,13
10910,-11,-10,-1,2,-6,0,-4,-21
10915,-6,12,4,13,-45,-16,-3,5
10920,2,-1,-8,-27,71,29,17,28
10925,29,-73,15,2,-21,-5,-5,-19
10930,-13,1,-28,-5,1,0,-3,-3
10935,4,14,13,-3,-6,-5,-4,-12
10940,-14,-6,-2,8,-25,-13,-7,-6
10945,-9,32,-5,1,-2,-2,3,10
10950,5,-10,12,1,17,5,0,0
10955,-17,-31,0,-12,-24,-5,1,10
10960,27,10,-28,0,5,7,2,-4
10965,-14,39,9,3,9,-5,-6,-4
10970,14,5,0,0,-42,-9,-6,-6
10975,-27,0,-4,-7,36,6,2,3
10980,8,10,6,18,20,-7,-6,-11
10985,-4,-1,-4,-20,-16,11,8,13
10990,-19,-5,-6,13,27,1,0,-7
10995,18,4,-11,-15,-4,-1,0,6
11000,-5,8,19,0,-19,-5,-2,2
11005,-4,-59,-8,0,-18,-3,3,14
11010,-2,2,10,7,34,-4,-15,-31
11015,16,-21,-13,-13,-6,10,4,3
11020,3,-2,8,6,-14,-9,-2,3
11025,-19,21,-10,1,-4,2,1,7
11030,-2,-9,2,-4,22,13,10,18
11035,16,0,-6,-11,-25,-8,-2,-3
11040,-3,-15,-1,11,26,11,-1,-4
11045,6,32,20,-3,-2,-11,-4,2
11050,7,-61,-20,-11,11,8,5,15
11055,-6,20,10,24,18,-1,-5,-32
11060,3,-35,-11,-19,-40,-6,1,11
11065,-4,22,-4,-7,9,-4,-5,-13
11070,5,18,15,2,-21,-3,0,4
11075,-6,4,-4,0,6,-2,1,7
11080,10,-21,3,2,-10,0,-3,-9
11085,5,37,11,11,-1,-3,-3,-1
11090,-18,-38,-32,-7,-6,3,1,-3
11095,-4,-14,12,0,-5,-3,-1,4
11100,8,0,-5,-9,22,9,2,-5
11105,-8,6,-12,7,-9,-9,-7,-6
11110,4,22,11,0,2,-12,-3,-7
11115,-5,5,-8,-17,-2,11,3,-4
11120,-15,-2,14,3,-1,-2,-1,-1
11125,10,-6,-6,-4,-8,4,0,-6
11130,-8,-6,8,6,7,-1,1,5
11135,7,-14,-6,8,9,-8,-6,0
11140,7,3,2,-8,-12,1,1,2
11145,-21,-22,-21,0,2,-1,-3,-8
11150,12,27,10,7,-5,-4,1,5
11155,-1,2,-7,-13,-19,1,-1,-2
11160,-9,-43,4,0,14,-4,4,16
11165,17,17,-4,-15,-18,4,-2,-1
11170,15,-2,-5,3,-15,-2,-5,-9
11175,-5,10,2,4,18,1,2,-10
11180,-11,-9,-13,2,-5,-3,-3,0
11185,3,0,-4,4,-18,-6,2,6
11190,-6,50,35,0,-14,-7,-1,4
11195,-2,-55,-15,-3,57,21,1,2
11200,1,5,-12,-2,-11,-6,-1,-1
11205,10,-2,-10,8,-4,-6,-1,3
11210,-12,15,3,-3,-1,1,0,-7
11215,22,14,2,-2,10,3,2,7
11220,-6,-3,9,8,-13,-6,-7,-14
11225,-7,15,-24,-7,16,10,4,-2
11230,-17,-10,-2,-14,-20,-1,0,0
11235,30,12,7,11,5,-2,2,14
11240,-30,-10,-5,2,-18,-8,-7,-17
11245,9,28,17,1,-3,-2,-2,-14
11250,-4,-16,-8,-1,22,11,2,9
11255,-11,14,2,2,-18,-3,-1,-5
11260,15,18,-4,1,0,-7,-3,6
11265,-9,-31,7,5,-32,-11,-4,2
11270,-11,-17,-18,-4,71,22,3,-4
11275,6,10,8,-4,-10,-3,-3,3
11280,1,15,13,7,4,-1,-1,-7
11285,-12,3,1,-14,-13,1,-1,-3
11290,10,-3,-4,-2,-19,-10,-4,-3
11295,7,23,7,10,-8,-9,-2,12
11300,-14,10,-27,-3,3,6,-1,-10
11305,12,-11,-4,-7,15,6,-2,-3
11310,1,-3,7,-4,-1,-8,-4,-1
11315,-14,14,-12,8,-3,-3,-2,-11
11320,15,14,10,-4,-48,-2,0,4
11325,-19,-58,-14,5,61,3,-1,5
11330,7,-9,-3,0,-47,-8,1,-1
11335,-1,15,2,-3,18,-3,-8,1
11340,-12,-41,-5,-2,-9,-8,-7,-16
11345,-21,11,9,2,2,7,4,-4
11350,11,19,4,-3,7,6,3,10
11355,-3,-2,4,1,-2,-1,-2,-11
11360,11,13,6,3,6,1,0,7
11365,9,-19,11,5,-5,-3,0,6
11370,-12,2,-10,0,-6,-9,-2,0
11375,6,19,20,6,-19,4,4,8
11380,2,3,-11,-30,12,4,-1,-6
11385,-7,-16,-2,7,10,-2,-5,-17
11390,9,9,8,13,0,0,-4,-1
11395,-12,2,3,-7,17,-8,-5,-6
11400,-6,-19,1,-10,-17,5,4,8
11405,12,32,4,-7,18,-3,2,14
11410,15,21,7,6,0,-5,-4,-12
11415,1,-15,5,2,-19,6,0,-2
11420,-2,2,-12,10,17,-5,-2,1
11425,-9,17,20,-12,11,8,1,-3
11430,-9,-9,-13,3,-9,-2,1,-2
11435,-5,47,3,2,-7,-5,0,1
11440,3,-9,13,3,1,-5,-3,2
11445,17,5,-16,1,-36,2,2,3
11450,-5,9,4,-9,6,-2,-5,-3
11455,-3,-38,-19,-10,6,-1,-2,-8
11460,-10,21,21,14,35,0,2,4
11465,7,18,-6,-5,-33,-9,-4,-6
11470,-6,26,13,-4,-5,1,3,-5
11475,-1,-70,-18,-2,9,4,-1,-1
11480,0,16,13,5,-16,-4,1,-2
11485,-14,-34,-4,-7,38,7,-1,2
11490,-7,7,-16,-3,-2,5,3,8
11495,16,8,-5,7,-9,-6,2,4
11500,7,-5,15,-4,-24,-3,0,2
11505,-5,-16,-9,0,47,3,-6,-16
11510,5,-28,-2,0,-22,-6,-4,1
11515,-20,9,-6,-2,4,2,2,5
11520,4,41,-5,0,14,0,-3,-6
11525,2,-3,2,4,-12,-6,1,0
11530,-24,9,14,-2,0,-4,-4,3
11535,24,-32,-31,-1,-12,2,1,-17
11540,1,-16,17,-3,-7,-7,-7,-1
11545,-6,54,-10,9,12,2,-1,-2
11550,-2,-13,-11,-13,-12,-5,1,4
11555,-29,-20,26,-5,-19,2,2,6
11560,10,-7,-25,11,35,-6,-2,-2
11565,7,15,13,-21,-42,-5,-5,-12
11570,8,-40,0,9,33,9,3,3
11575,-1,15,-6,-5,-28,-8,-2,3
11580,-6,-10,3,-4,-9,0,1,-1
11585,-13,3,8,18,28,-2,2,8
11590,14,2,-7,-15,-21,2,-1,-3
11595,-6,1,3,2,22,2,0,-3
11600,-9,-66,-10,-4,-28,0,1,3
11605,5,11,5,0,-2,-10,-7,2
11610,-4,6,-14,2,-2,3,2,-7
11615,-3,24,-1,-10,2,0,-2,-4
11620,12,-2,-7,-2,-4,1,-1,2
11625,-6,-5,-5,4,-6,-7,2,5
11630,-5,-24,3,-5,0,1,0,0
11635,-6,22,-9,7,-6,-7,-4,-3
11640,1,-9,-7,-3,28,13,2,-4
11645,0,10,1,-14,-11,4,3,8
11650,-4,3,-3,14,10,-7,-4,-8
11655,-9,-22,-4,-5,-7,2,6,10
11660,18,35,6,-2,-37,-2,-5,-11
11665,0,-14,-14,2,50,4,1,5
11670,11,-2,-2,4,-24,-6,2,13
11675,0,-12,2,-2,16,-2,-3,-14
11680,-4,15,2,-7,16,3,-2,2
11685,-3,-9,10,7,-31,-3,-3,-7
11690,-8,-60,-29,-9,13,-4,-3,-11
11695,4,7,6,-6,-10,1,-1,10
11700,-2,14,1,-2,-9,-2,3,5
11705,-7,-16,-7,2,-7,0,-2,-1
11710,3,25,1,11,13,-3,-1,-1
11715,1,-44,-4,-15,-3,7,2,5
11720,2,16,1,2,-4,-5,-1,-4
11725,-11,-4,4,-3,-5,-3,-2,-4
11730,5,43,1,-4,-14,-6,2,3
11735,-1,-17,26,11,-14,-7,-5,-1
11740,12,11,-3,-9,49,12,4,4
11745,-2,-20,9,3,-14,-4,-1,-9
11750,-1,12,8,-6,-17,3,1,2
11755,9,36,-9,-1,4,-4,-5,-6
11760,-25,-19,-17,-6,-15,-2,5,6
11765,-1,37,20,2,-4,1,-4,-10
11770,2,-82,-2,7,22,-2,-1,-2
11775,-8,8,0,-10,12,3,1,6
11780,14,-5,-5,-7,-26,0,-2,-8
11785,-10,-22,-13,1,-1,-2,0,2
11790,5,45,18,-4,0,3,3,5
11795,5,-8,-2,5,18,-3,-3,-3
11800,-7,-16,-9,2,-3,-3,-2,1
11805,0,7,-3,-7,-4,5,4,7
11810,-13,4,7,5,-1,-4,-2,-4
11815,23,46,23,5,-23,-13,0,18
11820,-6,-6,-34,-13,14,16,-6,-39
11825,1,-44,7,-3,-19,-2,0,-2
11830,10,0,10,3,14,0,1,4
11835,-1,15,8,3,-15,0,4,-1
11840,-7,5,2,4,-18,-11,-1,12
11845,12,-3,-3,-2,5,-2,-1,1
11850,-20,0,-5,-3,-13,-1,-5,-13
11855,-11,-20,-6,1,8,3,0,-2
11860,17,10,22,15,-3,-10,-1,11
11865,-20,6,-39,-26,16,1,1,-1
11870,-11,23,16,3,15,1,3,-2
11875,32,-56,10,-18,-26,7,-7,-15
11880,-7,11,-21,3,27,1,-4,-5
11885,10,29,5,7,-19,-14,-3,3
11890,1,-22,-7,-2,-17,-2,1,5
11895,-19,0,-12,-1,21,0,0,-4
11900,-12,-1,5,3,-15,-6,0,-4
11905,8,-15,5,10,-12,-1,1,7
11910,-5,5,-8,-18,5,8,4,-2
11915,-6,34,-13,4,3,-1,-3,-2
11920,4,-37,8,3,40,16,9,5
11925,2,76,-16,5,-7,-2,-6,-10
11930,20,-46,-3,4,-6,-1,-6,-6
11935,-6,11,-18,3,-11,-10,-2,0
11940,-4,12,9,-6,-21,-6,-1,-1
11945,-1,-19,7,11,35,-6,0,2
11950,3,23,-2,-22,-9,15,4,0
11955,-12,-22,4,6,0,-1,-1,4
11960,10,-11,-9,-9,-3,-1,3,9
11965,-7,-12,9,7,-19,-8,-3,-7
11970,16,-7,-24,-4,2,-1,-8,-6
11975,-16,17,-1,7,25,6,4,-3
11980,4,35,14,-6,-11,-6,-3,1
11985,5,-27,7,6,6,-1,0,5
11990,-15,0,0,-7,-33,-3,-3,-6
11995,-11,10,-10,-7,47,2,0,0
12000,4,-2,0,2,-9,-1,-4,-3
12005,2,-26,-8,-3,16,19,5,-4
12010,-4,13,15,5,-12,-7,0,9
12015,12,1,-3,-17,-23,2,-2,-3
12020,-9,-48,14,6,-3,-8,-1,3
12025,0,-12,-4,-5,6,-3,0,12
12030,-19,3,3,2,6,-4,-3,-10
12035,10,-10,-5,12,-4,-4,-1,-6
12040,15,42,-3,-5,9,6,-2,-5
12045,2,12,8,-6,-10,3,3,5
12050,-3,-21,-30,4,8,-7,-4,2
12055,-2,21,18,4,-8,-9,-5,-3
12060,-12,-5,-35,-7,-15,0,-1,-15
12065,3,23,13,1,2,-3,-1,0
12070,-16,14,1,1,18,6,2,4
12075,9,-9,-6,0,-4,-1,1,5
12080,18,25,12,13,-23,-10,-1,4
12085,-9,-31,-6,-13,11,5,-7,-12
12090,8,-13,-1,-9,-1,-5,-1,-4
12095,-17,22,0,-1,-9,2,0,-3
12100,4,-26,11,5,2,-4,-1,-3
12105,3,46,7,2,-1,-2,3,7
12110,13,-1,3,3,-2,-5,-4,-6
12115,0,-30,-28,-1,11,1,-3,-3
12120,-10,30,-2,2,7,1,-1,8
12125,-2,-58,4,-12,-29,-1,-2,1
12130,13,10,11,7,35,7,2,-4
12135,0,-7,4,5,9,-1,1,5
12140,-15,-15,-19,-8,-15,-2,0,2
12145,-5,17,0,8,7,1,0,-9
12150,9,16,2,0,-15,0,2,10
12155,3,-12,2,0,-20,-7,-9,-17
12160,-5,-27,11,2,22,4,-1,7
12165,-1,6,-9,-6,3,2,0,-3
12170,0,25,2,-2,-12,-5,-1,-1
12175,-2,13,2,2,0,4,6,10
12180,-6,-33,2,8,8,-5,-6,-7
12185,3,7,-15,-22,-33,-4,-6,-2
12190,-2,-8,-2,-5,25,8,3,1
12195,-1,-17,-11,6,16,1,-1,-3
12200,-4,33,17,-7,-3,0,2,0
12205,3,-26,2,16,-5,-7,-1,3
12210,0,30,5,-2,-42,-8,-1,1
12215,8,-43,2,-13,43,19,5,7
12220,-21,-30,5,-11,-7,1,0,-13
12225,8,28,-6,7,-4,-5,-2,-6
12230,-2,9,10,5,-9,-3,-1,4
12235,-6,19,-6,2,-12,-5,0,1
12240,8,0,-16,-1,-4,0,-3,-1
12245,-1,-20,22,2,3,3,-2,-6
12250,5,-7,-1,5,5,-5,-4,-3
12255,-7,-28,-11,-11,0,1,-2,-2
12260,-9,-30,-7,-3,6,0,4,8
12265,-7,33,3,-4,-8,1,0,-10
12270,12,-40,13,5,0,-5,-4,-10
12275,-4,-4,-3,3,9,4,-1,-4
12280,4,19,-3,-17,-8,-6,-2,7
12285,2,23,0,8,18,6,6,6
12290,-14,2,9,7,-34,-10,-2,-6
12295,0,-3,5,-9,-5,-5,-3,-2
12300,6,26,-3,3,39,12,3,5
12305,-2,-36,-14,-7,-10,-7,-6,0
12310,-14,1,-8,-1,24,5,-1,1
12315,-1,6,4,11,-29,-12,-3,-3
12320,21,9,6,4,-3,1,0,2
12325,0,20,3,-15,6,6,1,-3
12330,-2,-11,-19,5,11,6,7,13
12335,-12,14,-5,-1,-5,-4,-4,-9
12340,14,17,23,-10,-9,2,-4,-25
12345,-5,-12,-6,-1,4,-3,0,6
12350,-15,17,-2,0,-2,-6,-4,-6
12355,20,16,-7,8,-1,-4,3,5
12360,-7,6,-7,-4,10,4,-3,1
12365,1,-3,2,-4,-9,-4,-5,-2
12370,-5,-21,-2,0,-11,-2,-2,-1
12375,2,-24,-3,2,9,0,3,7
12380,-10,8,-10,-3,-11,-4,-4,-2
12385,-10,-7,-1,6,-6,-4,-1,-4
12390,-1,13,6,0,26,5,-2,-2
12395,5,11,12,3,-10,-5,-7,-13
12400,2,-7,-20,-23,-35,2,2,5
12405,4,-17,-11,-2,23,-2,0,16
12410,2,7,-5,1,0,-3,-3,-9
12415,-6,5,3,-7,-9,-5,-5,-11
12420,5,8,8,7,4,5,4,11
12425,5,-1,-3,3,-5,-2,0,-5
12430,-1,-17,-6,-7,-13,-8,-6,-2
12435,-14,-23,-7,13,-8,-2,-4,-3
12440,-3,-5,7,-10,33,13,9,12
12445,0,-3,3,-4,-3,-3,-1,0
12450,3,6,12,9,5,-2,-2,-1
12455,0,-4,11,-6,-31,-6,1,-1
12460,-10,41,0,10,17,3,1,7
12465,-2,-42,1,1,-10,-3,-2,-10
12470,4,11,6,-1,17,8,-2,-3
12475,-3,13,-12,-2,3,0,4,14
12480,-8,-29,15,-3,-45,-10,-2,-13
12485,7,-20,0,2,31,3,2,4
12490,4,-7,-37,-7,1,5,2,5
12495,-1,-12,15,-3,4,3,1,9
12500,-3,25,4,5,-6,-8,-3,-3
12505,-4,-1,-12,13,-29,-5,-1,-3
12510,-6,-13,2,-4,-1,-7,-1,-2
12515,11,17,-1,-8,30,16,6,9
12520,-9,-28,-14,7,16,-9,-4,-7
12525,-1,14,13,-1,-17,-2,-1,-1
12530,-8,-3,3,2,-26,-6,-3,-7
12535,-4,-5,-21,0,40,6,2,9
12540,4,23,9,5,-10,-3,-2,-16
12545,9,-1,-22,-7,3,1,-1,12
12550,-20,-62,-5,-8,10,9,2,-8
12555,-17,24,19,-2,-25,-7,-4,-19
12560,31,-57,-24,-5,-1,1,0,8
12565,-4,26,-3,1,-9,2,-2,-7
12570,12,44,-3,5,31,1,2,11
12575,-11,-5,0,-16,-25,-6,-3,-6
12580,-5,7,-3,11,4,-5,-4,-1
12585,-6,-5,0,-3,2,2,1,-2
12590,13,11,5,-13,-7,6,4,12
12595,-5,7,1,-2,11,-1,-4,-13
12600,-14,-23,-9,4,0,-3,-4,-6
12605,6,23,12,3,-2,-6,-4,1
12610,-2,-6,1,7,8,-1,-3,-15
12615,6,-29,-10,-2,-11,1,2,12
12620,-11,-1,3,-9,3,6,1,-4
12625,7,7,-3,1,3,1,0,3
12630,-10,-15,9,-1,-8,-3,1,7
12635,9,32,17,0,-15,-4,-6,-6
12640,22,21,-12,3,-11,-5,0,6
12645,-16,-13,4,-4,20,9,3,1
12650,9,32,5,9,-14,-1,-3,1
12655,-11,-1,0,-6,28,6,-1,-2
12660,-5,5,6,-1,-10,-3,-1,6
12665,-5,7,-2,-1,-10,-10,-2,-4
12670,-1,-18,-14,8,-12,-6,-5,-13
12675,5,7,-7,-3,21,7,2,2
12680,-2,4,19,-6,-15,5,-3,2
12685,-14,2,-15,-15,-4,-2,-1,6
12690,9,-4,2,0,21,5,3,-6
12695,-1,14,-11,8,-21,-13,-5,-20
12700,10,-19,11,2,23,2,2,1
12705,-11,-1,-16,-3,-18,-7,-5,1
12710,-19,24,7,-9,10,0,-3,9
12715,24,8,-1,6,-2,2,2,0
12720,-14,4,-1,-4,-16,0,0,-6
12725,7,-43,18,-5,8,4,2,-1
12730,-3,11,-6,4,-11,-6,-1,1
12735,-2,-3,13,-3,18,1,-1,6
12740,-7,6,-12,-4,-6,-2,-1,-1
12745,-8,-10,18,-1,-9,-1,-1,-2
12750,7,14,2,-8,-13,-5,-5,-11
12755,11,-12,0,23,22,-2,-2,-2
12760,-19,3,-1,-30,-9,0,-2,-11
12765,17,-11,-3,5,22,4,4,5
12770,4,12,1,-10,-9,5,4,12
12775,-6,2,-19,-1,-3,-3,-6,1
12780,-15,-36,-9,8,5,-7,-6,-4
12785,-2,41,9,10,-4,3,1,-8
12790,9,-60,-5,-13,8,-1,-4,0
12795,-4,-2,4,-8,-26,-4,0,6
12800,3,-8,5,7,-1,-3,2,2
12805,-19,-10,-23,-8,0,-1,-3,-6
12810,6,28,9,8,-20,-3,8,12
12815,1,-13,9,0,14,4,-3,-2
12820,1,3,-13,-6,-9,-1,-4,-2
12825,-1,-20,1,11,9,-5,-1,-3
12830,7,9,-11,-6,9,3,-2,-3
12835,-3,26,-6,-10,-10,0,3,7
12840,11,9,8,8,20,-1,1,7
12845,4,21,1,-1,9,3,-1,-3
12850,-27,-33,-30,-2,-17,-5,-8,-9
12855,17,26,13,-5,-7,-7,0,9
12860,17,-8,-36,-1,18,4,0,3
12865,-1,2,10,1,-12,-9,-3,0
12870,-3,-3,-1,-2,-5,-2,0,8
12875,6,22,0,-2,6,-1,0,-6
12880,-8,-5,15,6,-32,-4,-2,-8
12885,0,-12,-24,14,44,6,1,-4
12890,-5,15,15,-6,-12,-6,-3,-4
12895,-18,-70,-17,-4,-3,6,0,-4
12900,4,32,6,8,2,-3,2,13
12905,4,4,-1,-5,-13,2,-1,-7
12910,1,-5,11,-1,10,0,-4,-7
12915,-11,-21,-1,0,5,0,1,-2
12920,-7,3,-1,-5,-10,-5,-5,3
12925,2,21,-11,0,-3,3,5,6
12930,-5,0,-6,-3,4,-2,0,2
12935,8,12,5,5,-12,-10,-5,-6
12940,-9,-28,10,1,-3,1,-1,-7
12945,-10,33,11,-6,-8,-2,3,20
12950,16,-5,-2,9,16,0,-2,-26
12955,-8,-53,-17,-7,-21,-2,-4,-4
12960,2,17,-10,0,13,3,-1,1
12965,-8,-46,-2,0,0,-5,-7,-14
12970,-5,17,2,-3,-35,-8,0,9
12975,-12,19,1,11,35,0,-2,3
12980,7,-12,2,-4,4,4,4,-2
12985,15,-18,-16,-11,-19,-2,-2,-8
12990,-19,-52,-3,15,9,-6,-4,-1
12995,15,33,1,-12,-9,4,4,-2
13000,-6,-1,7,6,10,-5,1,12
13005,1,-10,1,-12,-1,1,-2,6
13010,8,6,0,1,-32,-5,0,-10
13015,-2,-38,-3,2,0,-2,-2,-10
13020,1,27,-6,2,-17,-10,-2,1
13025,3,-11,21,8,20,8,0,0
13030,-11,-2,-43,-2,37,2,-3,-6
13035,-11,18,17,-18,-48,-2,1,7
13040,5,30,3,7,30,9,-1,-6
13045,1,-11,-10,-6,-59,-12,-2,-1
13050,4,51,3,-6,44,6,1,11
13055,0,-8,11,15,18,2,2,-3
13060,-9,-13,6,-2,-10,2,0,-10
13065,-2,27,7,-5,-18,-6,-2,5
13070,10,-12,6,1,4,6,-1,-6
13075,-17,-8,-9,-15,-20,2,6,17
13080,24,21,-5,-1,-1,-7,-7,-11
13085,-14,-47,-4,4,31,3,1,-6
13090,7,15,31,11,-10,-11,-5,5
13095,4,18,-18,-15,-6,8,5,5
13100,-14,-27,-23,-2,-2,3,0,-3
13105,4,4,9,2,0,-8,-6,0
13110,2,-18,-10,2,8,-1,-3,-1
13115,1,4,9,10,-16,-3,-3,-2
13120,-9,-22,-12,-13,12,0,4,1
13125,-1,39,8,5,14,2,0,0
13130,3,-6,5,5,-15,1,1,0
13135,-10,21,1,-4,-23,-5,-3,-11
13140,-5,0,10,13,16,-5,-3,3
13145,8,-11,-2,-3,-15,-2,2,3
13150,2,13,-6,-15,31,18,9,9
13155,-5,-48,2,2,-6,-6,-5,-1
13160,1,-2,-15,-5,0,6,-4,-13
13165,3,28,6,5,0,-7,-4,-5
13170,-6,-7,-1,-3,-15,-2,-2,0
13175,14,14,10,2,-5,2,0,4
13180,-1,4,3,8,31,0,2,15
13185,-5,-26,-18,-11,11,9,1,-12
13190,-2,4,-4,-5,-24,-6,-6,-8
13195,-19,8,3,9,23,-7,-6,-2
13200,9,11,15,-4,-37,-10,-5,-12
13205,-4,-24,-3,3,23,6,2,3
13210,-14,-6,9,3,-18,-5,-1,4
13215,15,-8,-23,-3,-8,-6,0,8
13220,-12,-22,8,-12,6,7,-3,-8
13225,-3,-7,-5,3,10,-2,-1,-1
13230,-1,-23,-7,-3,-11,-5,0,5
13235,23,8,-4,9,15,1,-2,-2
13240,-10,5,-1,-4,-20,-7,-2,-4
13245,2,28,1,-1,13,11,3,-2
13250,-20,-42,-19,-9,-22,-7,4,7
13255,10,15,-3,0,6,-5,-6,-11
13260,-3,-30,-1,3,-15,-2,-1,2
13265,-3,9,4,-4,-5,-1,-3,-4
13270,16,33,12,0,6,1,0,11
13275,-20,-31,-5,7,-8,-6,-1,-8
13280,12,-16,-3,-6,8,2,-1,-1
13285,2,25,17,-5,-24,-3,-2,6
13290,-15,-31,5,2,12,0,-3,-7
13295,5,2,-6,-4,9,2,2,-5
13300,-7,28,-3,-4,-13,-6,-1,5
13305,10,23,-2,6,13,0,0,0
13310,6,13,17,-8,7,6,3,-10
13315,-8,15,5,4,-27,-3,-3,-6
13320,-8,-25,1,7,12,3,1,2
13325,1,2,-12,-7,-8,-3,-1,3
13330,2,3,-4,0,12,2,-1,-4
13335,2,1,-4,-4,1,5,3,4
13340,9,52,3,0,-13,-4,-1,4
13345,-2,-38,-2,4,-4,-7,-2,1
13350,7,-37,8,1,6,6,4,4
13355,-25,-19,-12,-5,8,-1,-3,-6
13360,13,0,-6,-9,-17,-5,-6,1
13365,7,24,-3,4,9,3,-3,-6
13370,-5,39,9,5,10,1,-1,-15
13375,-5,-23,-2,-13,-3,-1,-2,5
13380,1,-11,-11,6,23,8,4,-7
13385,-2,1,6,0,-9,-5,1,3
13390,-1,9,-9,2,-9,0,-1,5
13395,3,-25,-3,6,21,0,-2,-2
13400,-21,13,4,-6,8,0,0,0
13405,11,-8,4,-3,-7,-2,0,-3
13410,10,17,-19,4,0,-5,-2,3
13415,1,7,30,-8,13,3,0,4
13420,1,-12,-26,2,-5,-2,0,-1
13425,-19,-26,-7,0,-1,3,-1,-3
13430,3,4,-1,6,1,-1,1,8
13435,20,-21,-4,-14,-15,1,0,10
13440,-15,8,5,-7,1,1,-4,-33
13445,1,4,7,-5,8,-3,-4,-4
13450,-19,7,5,4,-10,-9,-8,-8
13455,-1,-2,-9,11,6,-2,1,5
13460,11,-3,11,-6,-3,-1,1,16
13465,-12,19,-16,3,13,5,2,-2
13470,15,-1,4,-7,-13,-5,-3,-4
13475,-5,-23,-6,-1,7,3,-1,-1
13480,2,49,-1,2,-25,-4,-1,5
13485,-3,-3,-3,9,21,-7,-5,-3
13490,-4,-2,3,-12,17,13,6,12
13495,9,15,-2,-3,-13,-2,1,-5
13500,-7,-43,-5,-8,-20,-5,-1,-1
13505,6,20,8,0,-13,0,-1,-4
13510,-8,12,-20,-4,16,1,-1,-4
13515,-10,16,27,2,10,-6,-9,-13
13520,1,-11,-31,4,7,5,2,5
13525,3,5,6,2,-13,-5,0,5
13530,-7,-25,-7,-4,-15,-4,1,6
13535,12,38,0,-2,-24,5,4,12
13540,-16,-33,9,-2,53,6,-2,-20
13545,10,-28,6,-6,-23,-4,-2,-4
13550,-5,7,-8,6,-1,-8,-6,-2
13555,5,11,0,2,-9,-4,-2,-2
13560,-15,-6,9,2,-1,-1,0,12
13565,11,-36,-18,-8,-10,1,-3,-9
13570,-2,5,10,-2,13,3,1,-13
13575,-4,30,2,8,6,-1,0,1
13580,9,-27,-1,3,-2,-4,-1,8
13585,-22,-4,17,-7,1,0,-1,-7
13590,7,-12,-16,-1,-9,-4,-4,-1
13595,-11,18,-1,-3,-7,-1,-1,-6
13600,19,-26,13,9,-3,-4,0,3
13605,7,-11,-24,1,21,7,6,19
13610,-19,30,7,-5,3,3,0,-24
13615,-12,-9,-11,-6,5,2,-2,-6
13620,8,6,-2,1,-10,-2,0,0
13625,15,4,7,-11,-6,-4,-3,3
13630,6,16,13,-1,-13,0,3,8
13635,-26,-55,-18,-3,-12,-12,-5,-8
13640,9,5,4,-2,25,6,0,2
13645,-5,15,10,19,2,-2,0,1
13650,5,28,1,-19,-26,0,-2,3
13655,6,24,-1,-3,10,7,4,5
13660,-3,-7,7,6,-15,-4,-2,0
13665,-7,9,-6,0,4,-5,-6,-8
13670,1,-36,-2,13,-5,1,1,7
13675,1,16,-7,-8,11,15,5,0
13680,-6,-6,8,-1,1,-5,-3,-8
13685,-3,33,1,2,-9,-3,-3,-9
13690,10,4,19,3,-3,-5,-2,6
13695,-5,-32,-56,-7,-2,-9,-6,-1
13700,-7,15,4,4,15,-1,2,5
13705,5,-20,-7,-16,-28,4,3,-4
13710,7,-1,10,5,22,3,-1,2
13715,7,-10,3,3,10,-2,0,1
13720,4,4,-3,-4,-37,-2,0,3
13725,-19,45,11,3,13,-5,-3,3
13730,3,-108,-15,-6,-4,2,-4,2
13735,-3,24,22,-5,8,6,0,-10
13740,-10,2,-13,2,-3,-3,-2,-8
13745,2,35,3,-1,-6,1,1,6
13750,-3,1,-6,8,-10,-15,0,2
13755,12,8,20,-3,13,0,-6,-11
13760,14,-4,-25,2,-14,-2,0,0
13765,-32,-44,-12,-7,2,0,0,-7
13770,15,23,-9,-3,-24,-4,1,4
13775,9,-23,5,9,-9,-7,2,4
13780,6,42,24,-1,18,2,1,8
13785,-20,-28,-4,1,13,-1,-4,-8
13790,1,9,8,13,1,-7,-5,-14
13795,-1,13,3,-8,-31,6,7,7
13800,2,13,2,-11,15,4,0,-2
13805,-6,2,2,0,0,4,1,1
13810,-6,13,7,0,21,2,1,-2
13815,5,-20,-1,11,-31,-12,-4,-6
13820,0,-9,-15,11,27,4,3,12
13825,9,20,-10,-25,-16,5,1,6
13830,-15,-32,-5,0,-6,1,-2,-11
13835,6,14,-6,-13,25,8,-1,2
13840,-2,4,1,10,0,-2,-2,-2
13845,-2,-5,0,0,-20,-9,0,-6
13850,10,-2,-3,-12,-6,11,1,0
13855,-11,15,2,3,10,0,-1,1
13860,-1,8,-3,-5,-11,-7,-2,-5
13865,-8,-40,-4,18,24,0,-1,-2
13870,8,11,8,-4,-7,3,-2,1
13875,-4,-15,0,5,-20,-10,-5,-1
13880,4,-43,1,-14,5,10,2,-4
13885,19,16,-4,0,-10,-1,-2,1
13890,-18,-3,0,2,-3,-6,-2,2
13895,-5,-11,6,4,29,6,0,-6
13900,-4,20,1,5,-14,-7,-4,-1
13905,0,-44,12,-2,-10,1,3,5
13910,6,17,-21,-5,-5,-10,-8,-10
13915,-11,-10,5,-15,19,11,1,10
13920,3,27,6,9,-5,-4,-2,-17
13925,-2,21,0,-6,-3,-5,-3,4
13930,9,20,1,-5,-15,6,5,0
13935,-6,-11,6,12,7,-12,-4,-4
13940,2,-1,6,-5,-3,1,0,-1
13945,3,9,-1,4,-6,5,4,7
13950,-16,13,-1,0,9,-1,0,4
13955,22,16,2,-6,-27,-4,-5,-7
13960,-20,-9,-7,-2,5,-3,-4,-2
13965,9,-6,-2,7,23,-3,-5,-3
13970,1,-42,-5,1,18,5,5,15
13975,3,10,4,3,-26,-9,-6,-15
13980,-9,-12,-3,-2,-1,7,-1,-5
13985,1,30,-3,-7,17,4,1,0
13990,-17,-63,-15,-4,5,0,-2,-8
13995,10,32,4,12,-2,-1,4,11
14000,-8,11,-1,-8,-18,-4,-3,-8
14005,-3,9,14,5,1,-7,-3,-8
14010,4,1,-30,-12,-7,6,0,3
14015,-5,-9,-1,12,16,-7,-4,-5
14020,-1,26,8,-11,-30,-4,-2,2
14025,6,-37,-1,5,24,3,4,4
14030,-4,46,10,6,11,-3,-4,-6
14035,-2,-29,-13,3,-14,5,5,8
14040,-2,-9,-3,8,15,-6,-4,-11
14045,-2,4,0,-24,-6,10,-1,-1
14050,-1,13,-1,11,5,-9,-1,1
14055,-3,12,1,2,10,2,-1,4
14060,-4,-3,3,-7,-14,3,5,14
14065,18,5,-1,21,9,-12,-8,-18
14070,-8,-6,-4,-25,-5,6,-1,-10
14075,-2,-9,-4,-14,1,-2,1,15
14080,3,32,16,5,1,0,2,2
14085,-15,-40,-37,7,-2,-4,-2,2
14090,-9,-6,1,-7,-10,-2,-2,-3
14095,14,39,14,5,15,2,-2,-3
14100,-3,-47,-3,-12,-28,-3,-1,5
14105,7,16,4,-1,30,9,1,5
14110,-12,-8,16,6,-14,-9,-1,-9
14115,-9,-8,-13,2,17,4,-1,-5
14120,2,-1,7,-6,8,-5,-3,-4
14125,-3,-2,0,9,-22,-5,-1,-3
14130,2,7,-11,-19,47,13,1,3
14135,-15,5,7,0,-10,-4,2,3
14140,10,-11,-9,2,-5,-1,-3,-6
14145,12,-8,7,2,-33,-11,-6,-7
14150,-2,11,9,2,12,4,4,7
14155,6,16,-8,-4,-5,-1,-2,-2
14160,-12,-12,-17,-2,9,-1,-5,1
14165,-6,12,3,-4,-6,-4,2,0
14170,21,5,-5,8,-21,-9,-8,-9
14175,-11,-7,6,-12,13,12,3,-4
14180,-6,-11,0,4,23,0,1,11
14185,2,4,-8,-2,-48,-8,0,8
14190,-1,18,3,0,28,2,1,-4
14195,-11,-17,-4,-2,-10,-5,-1,1
14200,24,10,7,-2,-4,2,0,3
14205,-19,-31,-1,3,-9,-5,-2,4
14210,28,-5,13,14,-27,-4,2,5
14215,-20,-23,-12,-15,7,8,-3,5
14220,5,13,-5,11,0,-1,7,-16
14225,-11,17,19,0,16,-4,-7,-9
14230,21,-24,-24,-15,-30,-1,0,20
14235,-3,-7,5,-2,-22,-7,-5,-16
14240,-26,-11,-12,-2,-12,-3,0,1
14245,25,13,4,1,9,2,-2,-3
14250,-37,5,6,10,9,-5,-7,-15
14255,7,3,-5,1,15,9,6,5
14260,-3,-8,3,-7,-25,5,0,5
14265,-12,0,-9,-4,14,-7,-1,-1
14270,31,29,-4,-1,16,5,-1,1
14275,-1,-53,-33,0,0,-5,-4,4
14280,-4,6,13,9,12,-6,-2,3
14285,-11,4,-6,-15,-27,8,1,-15
14290,1,-19,24,14,27,-6,-1,0
14295,-10,8,25,-6,-33,-8,-2,-3
14300,18,6,-8,10,12,7,2,-3
14305,13,-20,-11,-10,-2,11,3,19
14310,-21,15,19,7,-25,-15,-5,-15
14315,-2,-16,-2,12,-21,-5,-4,-5
14320,20,11,-1,-13,30,6,-3,5
14325,-27,-1,24,4,34,3,-1,-3
14330,13,-15,-35,-12,-24,-4,-2,-5
14335,5,18,11,3,-28,-9,0,2
14340,-4,-5,-4,-4,27,6,2,8
14345,-4,-11,-9,11,4,-4,-3,4
14350,9,-12,3,-9,-14,6,4,-8
14355,-9,-5,-11,-6,20,1,-4,-8
14360,-6,-49,-19,-1,-27,-10,-4,-7
14365,13,-2,0,-8,11,10,1,5
14370,-16,51,15,8,-9,2,1,-2
14375,14,-43,-6,-4,15,-5,-2,1
14380,-54,22,-3,-2,-7,-7,-7,-9
14385,51,-11,-3,1,-24,-7,-1,5
14390,-6,1,3,-10,13,4,-2,-2
14395,9,22,-24,4,23,2,1,0
14400,-1,15,19,3,-19,-3,-4,1
14405,-18,-2,7,-4,2,2,4,-1
14410,-3,1,-19,9,5,-1,-1,5
14415,-12,12,-2,-15,-14,0,2,1
14420,28,-22,-15,1,-5,-3,-1,5
14425,3,29,2,-6,-1,1,-3,-23
14430,7,-11,13,16,20,3,3,17
14435,-18,25,8,-8,-7,-2,-2,-7
14440,8,6,-12,-5,9,-1,-1,-3
14445,10,19,11,-4,-22,-6,-3,10
14450,-20,-36,-10,-4,47,7,-4,-14
14455,14,41,2,6,-11,-1,-4,2
14460,0,12,15,-1,5,-1,4,6
14465,-18,3,-35,4,-14,-8,-10,-14
14470,-2,3,-4,-9,-8,-3,1,-3
14475,-11,-36,1,6,18,3,0,6
14480,16,27,12,-6,-18,0,1,-11
14485,-10,-1,7,7,16,-7,-3,1
14490,-1,8,2,-12,-35,-3,-1,11
14495,4,-5,-4,21,7,-3,3,4
14500,-2,7,-10,-25,17,5,-4,-24
14505,0,10,10,3,14,13,7,4
14510,-34,-31,-4,3,-32,-10,2,24
14515,34,25,0,-5,10,2,-4,-23
14520,23,-18,12,16,11,0,-2,11
14525,-16,13,-11,-7,-11,-2,-1,-16
14530,10,-13,-1,-8,8,6,0,-9
14535,-13,-4,3,1,0,-2,1,11
14540,-1,9,-6,8,-21,-8,3,7
14545,-10,9,23,-14,2,13,4,-3
14550,-1,2,-32,17,3,-10,-5,1
14555,23,-15,18,-28,-10,3,-5,-12
14560,-5,9,4,5,-1,-1,0,0
14565,-2,-18,-21,15,36,0,-1,11
14570,-14,1,15,-14,-15,0,4,2
14575,-19,2,1,5,15,5,1,1
14580,7,-9,1,0,-8,-5,-5,-7
14585,-3,14,9,-6,-7,-4,2,13
14590,10,-17,1,12,1,-4,-5,-11
14595,6,14,-8,-5,-7,-3,-1,9
14600,-22,-37,7,-1,22,-1,3,-8
14605,3,-6,-32,-7,-10,6,1,-11
14610,6,-25,34,6,-4,-4,1,6
14615,-22,-6,-19,-5,0,3,-1,-5
14620,-19,3,-4,12,-13,-6,0,14
14625,40,-4,20,-20,-16,0,-5,-3
14630,-9,2,-17,0,27,2,-3,-7
14635,9,-17,-1,0,-7,-7,-2,9
14640,-15,19,2,-3,-10,-2,-2,-3
14645,-19,1,-3,11,4,-6,1,-6
14650,22,32,21,-6,-17,2,-1,4
14655,2,5,-19,-10,12,0,0,2
14660,0,-23,4,-8,-30,-2,1,-1
14665,-9,5,-2,4,15,0,-3,-25
14670,-6,1,-1,5,17,-1,-3,-3
14675,-12,-16,5,-8,-18,-5,-1,-4
14680,20,-5,-13,5,5,5,-2,2
14685,18,-4,-6,-3,-36,-7,3,23
14690,-7,17,-7,1,30,-3,-6,-11
14695,-18,-6,8,-5,1,-2,-3,-10
14700,8,4,0,2,18,4,2,5
14705,10,-7,17,-9,-23,-4,-4,-6
14710,6,-3,-30,-7,-9,2,1,3
14715,-10,6,21,18,3,-5,3,-2
14720,-9,-7,9,2,-5,-1,0,10
14725,-12,2,-15,-13,19,1,-4,-20
14730,5,-33,10,1,-41,-7,-5,-10
14735,1,19,7,15,42,-1,-2,-6
14740,11,6,-9,-13,-9,10,2,3
14745,-13,-10,-6,10,-7,-6,3,22
14750,-5,8,13,-9,-10,0,-4,-15
14755,12,7,2,4,-51,-10,-2,4
14760,-20,-27,-32,-7,57,6,-2,-6
14765,12,3,9,-4,-24,1,0,16
14770,-7,19,-33,-7,5,-7,-3,-9
14775,0,-2,-6,7,8,8,3,6
14780,12,13,11,-5,-1,-2,-2,-4
14785,-25,-11,-1,5,-4,-4,2,1
14790,20,-17,-8,3,18,9,2,3
14795,-22,0,2,-2,-36,-11,-5,-10
14800,19,-19,3,0,38,-3,-3,-1
14805,-13,-2,-1,-6,5,7,3,13
14810,-7,9,-8,-1,-1,2,1,3
14815,26,2,-5,-4,2,-2,-5,-12
14820,-17,0,-4,8,-16,-6,1,4
14825,7,-5,6,4,12,-6,-10,-19
14830,4,14,20,-7,-15,9,6,6
14835,-3,-53,-7,0,26,5,0,6
14840,-3,22,0,-8,-21,-1,-1,-3
14845,15,-8,-9,-3,10,4,1,6
14850,-29,-4,-7,4,-30,-12,-1,-7
14855,41,23,-7,-4,41,6,2,1
14860,-8,13,20,9,-19,-2,-2,-10
14865,-7,-30,-7,-1,19,2,-4,5
14870,12,10,11,-5,-2,-3,0,9
14875,-9,7,3,9,-21,-7,1,-8
14880,-12,6,-11,-12,14,-1,-7,-15
14885,1,4,5,-4,6,13,4,-3
14890,0,-12,-7,0,2,3,2,10
14895,-7,24,4,10,-9,-6,0,9
14900,-1,-45,-15,-16,-26,-5,-4,-9
14905,-12,-1,-3,-1,6,-5,1,-8
14910,18,12,15,-4,-6,-4,0,18
14915,-6,-10,-12,10,-7,2,-1,-5
14920,17,-3,7,-3,22,6,0,-12
14925,-34,37,27,2,-14,-4,-2,6
14930,25,7,-6,-5,3,2,-3,-8
14935,3,-2,-16,-3,-9,-3,1,13
14940,-6,-19,-4,2,-12,-5,-5,-4
14945,-5,-16,-6,15,13,-4,2,-3
14950,-7,22,8,-10,-29,-2,-2,-2
14955,-4,-2,-1,-5,25,3,-1,4
14960,-2,25,11,-9,8,5,2,5
14965,-3,-32,-37,3,-4,-8,-3,-16
14970,-2,-3,14,-2,2,4,-3,-8
14975,4,0,1,-5,-14,0,0,0
14980,-3,0,-10,12,-15,-5,-1,4
14985,11,1,20,-7,8,-2,-1,13
14990,-7,-13,-14,4,4,-8,-4,-6
14995,-8,-7,6,-9,20,7,3,0
15000,1,28,4,5,-8,-4,0,10
15005,18,-15,-19,0,-24,-9,-8,-25
15010,-8,-7,-4,-11,1,-3,-4,4
15015,-17,-24,-5,-3,4,3,6,12
15020,2,4,12,5,2,4,-2,-22
15025,3,2,1,-2,6,3,0,3
15030,0,-5,-5,11,1,-5,0,2
15035,-1,5,5,-4,4,-2,0,1
15040,7,20,-10,-3,7,5,6,18
15045,-26,-8,-19,-7,-8,-3,-4,-17
15050,33,-5,48,7,25,0,-8,-17
15055,11,0,-11,1,-21,-9,-3,-1
15060,-2,14,-3,-1,-4,-5,1,3
15065,4,2,0,-2,10,1,1,10
15070,-21,-3,-14,2,-7,2,5,3
15075,5,-1,6,-4,1,0,-3,-12
15080,-10,-12,0,1,-21,-4,-1,-4
15085,4,1,16,-2,-7,1,8,34
15090,-13,3,-30,5,28,0,5,-21
15095,-4,-38,5,-20,-14,1,-18,-28
15100,-7,3,-7,3,-5,0,0,-4
15105,3,-21,3,5,11,-6,-1,0
15110,1,11,3,-3,-3,2,3,17
15115,3,14,-2,10,3,-4,2,9
15120,1,-6,-3,-6,-24,-7,-2,-6
15125,-20,2,6,-4,33,12,1,-4
15130,18,-21,-15,-9,2,0,3,22
15135,1,19,6,5,3,1,-1,-16
15140,16,7,14,16,-14,-10,-3,-7
15145,6,43,4,-10,3,8,-5,-12
15150,-22,-25,-19,-4,16,1,-2,10
15155,-4,-7,-7,2,0,-4,-3,4
15160,6,4,-1,-8,-2,0,3,5
15165,-7,9,-1,9,-21,-7,-2,-4
15170,3,29,2,-7,-13,1,2,3
15175,6,-8,31,14,2,-6,-2,0
15180,-16,5,-16,-5,-5,7,4,8
15185,31,-21,-7,-14,27,12,-4,-22
15190,-10,5,-6,-3,-13,-8,-5,-1
15195,0,7,1,2,-2,1,0,3
15200,-2,18,12,5,-17,-3,-1,0
15205,-5,-3,0,10,3,-8,-4,-6
15210,-1,-8,4,-1,-2,6,2,12
15215,-18,-7,-11,-16,10,7,4,-17
15220,12,12,-17,1,14,0,-7,-5
15225,-2,-27,-8,-1,-17,-2,2,9
15230,8,23,6,-11,4,0,-2,-1
15235,-19,-9,2,2,-25,-5,-2,3
15240,-3,-21,8,-4,25,-1,-3,-10
15245,8,3,-20,14,-1,-10,-2,-3
15250,-3,20,10,-2,-19,-3,-4,-3
15255,0,7,-7,-11,3,8,6,10
15260,1,-52,1,-3,8,7,1,7
15265,-7,23,3,0,0,-3,-3,-14
15270,-3,-21,-1,12,8,-1,-4,-4
15275,-13,13,-6,-3,-3,-3,2,0
15280,-2,2,-14,-4,10,4,-3,-7
15285,11,0,18,9,-40,-9,0,10
15290,-7,-34,-11,5,50,8,0,-6
15295,9,37,7,-15,-25,-5,0,4
15300,-17,-4,-21,-2,-9,-4,0,6
15305,2,-42,-3,-6,-3,1,0,3
15310,0,3,8,10,-13,-5,-3,-11
15315,10,-11,2,-4,4,0,-1,5
15320,-19,1,5,5,19,-2,1,-2
15325,16,40,7,-5,-23,-5,0,11
15330,-7,-26,-28,-13,-3,4,-1,0
15335,6,-3,-2,7,7,3,1,4
15340,-5,2,3,-6,2,-4,-7,-24
15345,-6,19,13,3,-7,-4,0,2
15350,-4,7,7,-4,-8,-1,0,1
15355,20,2,3,6,9,2,-4,7
15360,-19,-43,4,-5,-24,-7,-1,-8
15365,-12,7,-3,-2,15,3,-1,0
15370,1,16,1,5,4,0,0,-12
15375,-3,-3,-6,-5,-12,-2,0,2
15380,9,26,12,13,17,-1,2,14
15385,2,-31,0,-7,-19,-5,-1,7
15390,23,3,2,0,-11,-1,2,2
15395,-14,-9,-13,-10,38,7,-2,-14
15400,2,25,4,11,12,7,1,1
15405,-3,-9,-1,7,2,3,4,9
15410,-3,4,-10,-10,-16,-3,-1,1
15415,10,12,1,11,-9,-11,-3,10
15420,-16,-53,-26,-8,-10,3,-1,-8
15425,-9,6,6,-3,25,7,-1,-10
15430,6,2,9,7,-35,-14,-3,5
15435,3,4,8,11,28,6,5,-1
15440,-3,-15,14,-9,-20,-2,-1,9
15445,12,8,-21,-4,2,-6,0,14
15450,-15,9,7,-1,2,-6,-7,-48
15455,6,15,3,7,-3,0,0,11
15460,13,-1,-2,3,18,2,5,14
15465,-12,15,-11,-5,-6,-4,1,-1
15470,-5,-20,13,4,-9,-3,-1,11
15475,2,12,-2,-7,-4,-3,-5,-16
15480,9,46,2,5,-10,-3,-3,-5
15485,-1,-14,3,2,15,1,1,13
15490,-10,3,-7,-8,-12,0,1,-3
15495,-12,-37,7,4,14,-4,-1,-3
15500,5,-23,-14,-18,-31,-3,-2,0
15505,-19,-4,0,22,40,0,-2,3
15510,26,36,4,-17,-23,3,-3,-13
15515,-16,-45,4,-12,45,13,-1,-14
15520,-6,14,-4,-2,-12,-4,-2,0
15525,-3,8,-16,-7,8,2,0,-5
15530,-6,-9,3,18,0,0,3,13
15535,17,1,-9,-5,-7,-6,-3,3
15540,-19,-59,10,0,18,3,-6,-17
15545,7,32,17,-11,-21,2,-2,-14
15550,-16,16,-8,0,-2,-4,0,8
15555,-4,6,-12,5,-22,-4,0,5
15560,31,10,-13,-13,13,3,2,7
15565,-7,-29,20,-1,-7,-2,-4,-10
15570,10,20,6,-5,9,2,0,16
15575,-37,-1,-16,7,-4,-13,-4,-13
15580,28,30,37,8,22,8,-2,-7
15585,-5,1,-16,-11,-21,4,1,-2
15590,22,4,-10,0,16,-1,2,4
15595,-2,-20,-4,4,1,-3,2,1
15600,3,26,17,10,-10,-5,2,19
15605,-11,4,-21,-3,2,-5,-6,-20
15610,-33,-19,19,0,7,12,2,3
15615,31,24,-13,-3,-30,-1,-3,-9
15620,-5,3,6,-3,9,-2,-1,-4
15625,8,-21,8,8,-8,-7,0,8
15630,-15,-29,-22,-9,7,0,-3,0
15635,12,16,14,-7,-13,3,1,4
15640,-13,2,2,6,-13,-10,0,-1
15645,1,-8,-7,-6,10,10,-3,-20
15650,-1,8,8,1,-8,-6,-2,-3
15655,4,-57,-15,-12,8,9,1,7
15660,-5,-20,0,-6,-20,-5,2,8
15665,-12,-7,-32,3,4,-4,0,5
15670,8,-11,4,6,13,-3,-3,-10
15675,-6,19,2,1,-17,1,-1,9
15680,-3,1,-21,-5,1,-6,-4,-4
15685,-1,4,18,0,-26,-2,-4,-7
15690,19,-2,-12,-2,-14,-8,-3,-4
15695,-7,25,3,4,13,0,0,7
15700,-10,-22,-12,-3,12,5,-1,-16
15705,18,30,12,-2,-9,-5,2,22
15710,-25,-30,-20,-5,-9,-4,-7,-27
15715,2,8,11,7,-5,-8,-1,0
15720,-6,-2,-6,-7,-9,6,2,0
15725,7,-6,-3,-3,23,3,1,5
15730,3,14,12,19,24,-2,1,14
15735,5,-20,-7,-24,-15,7,2,1
15740,-2,15,-18,2,2,-9,-7,-7
15745,4,5,24,-7,-2,3,3,5
15750,-4,-5,-7,-4,-8,-3,-1,2
15755,-3,17,7,9,14,1,-3,-12
15760,2,-2,-1,6,-21,-8,-4,4
15765,-11,-3,-8,-4,26,5,1,-7
15770,12,-28,-2,-3,-2,0,1,0
15775,7,36,4,0,-18,-2,3,8
15780,14,14,-1,-3,22,3,0,7
15785,-3,20,11,5,-25,-7,-7,-22
15790,3,3,1,-4,6,9,3,11
15795,-19,7,-16,-3,1,-5,3,-5
15800,7,-47,-2,-3,16,8,-1,-4
15805,1,-20,-15,1,-8,-4,-3,3
15810,8,23,13,-1,-14,-3,-1,2
15815,0,-36,-4,5,5,3,0,4
15820,-14,26,15,-3,18,-3,8,9
15825,21,7,-11,1,5,7,-1,-7
15830,-22,21,-9,-1,-4,-5,-6,-3
15835,2,-17,-5,-6,-23,-6,-4,-6
15840,-8,1,7,10,4,1,-2,-2
15845,4,-8,4,4,18,1,2,11
15850,-6,13,2,-19,-24,-4,1,-6
15855,-8,2,6,20,33,-4,-8,-18
15860,-5,-2,-16,-19,-17,4,1,-1
15865,-10,1,-1,-6,-11,-6,0,5
15870,20,-4,8,4,21,4,0,5
15875,-5,-6,-11,-3,-15,0,-1,2
15880,7,4,2,4,3,-2,-2,-6
15885,-13,15,10,-1,-11,-3,-1,-1
15890,-8,-24,-26,11,-1,-7,-2,3
15895,10,19,13,-11,7,8,2,3
15900,8,27,14,8,6,6,1,-5
15905,-23,-21,-26,-15,-10,-2,-2,-9
15910,-1,29,9,3,3,0,1,5
15915,-3,-22,2,4,-9,-8,1,7
15920,-13,21,8,-2,-4,-6,-5,-1
15925,10,-7,19,10,-16,-7,-4,-1
15930,-16,-5,-7,1,21,8,1,-3
15935,10,5,7,-8,31,13,2,0
15940,3,-2,-4,6,20,3,-2,3
15945,14,-1,-4,-4,-22,-6,-2,-1
15950,-9,-4,1,2,9,2,-1,-8
15955,18,4,6,0,-28,-9,-1,11
15960,-11,3,0,1,-2,-1,-1,-12
15965,-7,-27,-7,7,-8,-2,1,5
15970,3,-62,9,-13,21,-2,-9,-20
15975,8,15,-14,-6,-12,8,3,-1
15980,5,-14,-5,-2,-12,-8,3,18
15985,-9,12,-1,-6,4,7,-1,-9
15990,4,-3,12,8,-5,-5,1,7
15995,-21,-17,-19,0,-7,-8,-8,-29
16000,6,34,-3,0,2,1,1,15
16005,-10,19,7,0,-11,-10,-5,-2
16010,30,-16,-16,-7,10,17,8,1
16015,-18,-3,2,-4,-21,-7,-3,4
16020,8,19,-6,1,7,0,-3,-2
16025,-3,-8,4,-3,9,6,5,18
16030,13,48,10,1,-10,-3,-8,-15
16035,-8,-24,-17,2,3,-5,-2,-3
16040,-7,-11,3,1,-6,-2,0,4
16045,19,-28,-12,-18,26,12,9,17
16050,-24,-10,10,5,15,4,-3,-10
16055,16,22,-4,-11,-16,-3,-4,-10
16060,-17,9,8,0,-5,-1,-2,1
16065,22,-59,-23,2,-10,-5,0,-6
16070,-11,3,7,3,-6,-1,4,4
16075,-15,12,16,13,28,-2,-1,3
16080,12,-24,1,-12,-20,5,3,13
16085,-13,20,10,0,6,5,-5,-14
16090,35,26,-8,-3,-10,-9,-3,3
16095,-10,-12,2,2,-6,-10,-2,-6
16100,-8,-21,-4,-4,-15,3,0,-5
16105,-10,29,11,6,22,-1,0,-3
16110,6,-19,6,-6,0,1,-2,-4
16115,-3,12,-6,8,-27,4,3,4
16120,8,-19,-20,0,21,-9,-3,-1
16125,-3,34,10,-3,-2,9,1,0
16130,-5,-38,-11,-5,16,-3,-4,-4
16135,-3,15,-6,-5,-3,4,2,0
16140,1,-34,18,11,0,-9,-3,-7
16145,2,-26,-1,5,2,-1,1,8
16150,-26,10,0,0,-12,-1,0,-1
16155,21,16,5,-10,7,2,-1,5
16160,1,-8,0,-8,2,2,2,-1
16165,-3,17,-7,2,-6,-4,-7,-18
16170,-10,23,-1,2,-22,-4,0,4
16175,14,-27,8,5,34,-5,-4,3
16180,3,15,4,-6,-12,4,-2,-13
16185,-3,27,2,-5,-4,-3,-1,-6
16190,2,-24,-2,5,-21,-4,3,10
16195,-7,-14,8,0,1,5,2,6
16200,0,4,-6,1,12,-8,-6,-11
16205,-2,23,6,-4,-18,3,-1,-2
16210,-12,-32,-7,3,34,5,1,-1
16215,12,7,4,5,-35,-4,-2,-4
16220,2,11,-3,-4,0,3,-1,-3
16225,-5,-6,-6,1,22,2,-2,-2
16230,1,44,15,-2,4,1,1,4
16235,-8,-44,-18,3,-28,-5,-1,-3
16240,-5,8,12,9,3,-2,0,-1
16245,-13,2,11,-8,3,-4,-3,1
16250,19,-13,-16,-3,5,5,-1,1
16255,-23,-1,1,-2,0,-2,1,-2
16260,4,-12,-12,-4,-12,-5,-4,-18
16265,3,-13,10,5,5,-3,1,5
16270,5,-3,-3,-10,-12,-4,-1,18
16275,-27,-3,1,-4,-5,0,3,-4
16280,-5,26,1,5,12,-4,-6,0
16285,21,-13,20,-6,4,1,-1,-2
16290,0,6,-17,-6,-14,-6,1,-8
16295,7,18,5,3,11,-1,-1,5
16300,-6,-15,-1,-3,-7,2,-1,3
16305,-12,-4,-13,7,-4,-3,3,-4
16310,-9,11,2,-5,-7,-1,0,4
16315,1,-20,7,-9,-2,-3,-3,-1
16320,0,49,-6,4,-3,-6,-3,-1
16325,28,-81,-11,-4,-8,-5,-5,5
16330,-22,0,-2,4,1,3,3,-4
16335,13,31,2,6,15,-5,-4,-10
16340,-13,-26,-1,-8,-11,6,1,0
16345,5,24,-13,2,-3,-4,-2,4
16350,8,-11,10,0,0,-1,0,1
16355,-7,-1,-15,-12,2,-1,-5,-4
16360,-10,3,-8,0,-15,-1,6,15
16365,17,0,-7,-1,20,2,0,-5
16370,-7,1,-2,1,-14,1,-1,-5
16375,-17,5,21,7,27,-7,-2,-5
16380,10,-10,-25,-28,-14,6,2,-1
16385,-19,14,1,6,-13,-7,-3,4
16390,-6,-15,-10,0,-8,-7,-5,-2
16395,17,-15,-13,-2,9,2,-2,-5
16400,-3,-12,-2,7,-11,-3,4,13
16405,-20,-6,8,0,13,5,-2,-19
16410,21,54,5,5,-9,-6,-4,3
16415,-13,-4,16,4,3,0,-1,2
16420,6,-18,-26,-19,-9,10,0,1
16425,-22,13,-14,-2,8,-1,3,7
16430,16,-3,8,4,-4,-4,0,0
16435,-5,12,8,0,-9,-1,-1,0
16440,8,12,4,9,30,5,-1,-9
16445,3,23,2,-3,-15,-5,0,4
16450,-15,-38,2,-12,12,6,0,2
16455,8,-16,-21,-8,-11,-3,-3,-7
16460,-13,-3,11,11,11,-3,1,-2
16465,21,14,2,-4,-17,1,0,3
16470,-25,3,6,2,18,4,0,-8
16475,22,2,-3,-1,-10,-2,0,3
16480,-27,3,-19,0,3,-8,-13,-22
16485,-2,4,-9,-11,-5,-2,-4,-7
16490,1,4,9,2,-7,0,2,10
16495,-1,-21,-12,2,0,0,1,2
16500,13,-8,13,-5,5,2,4,14
16505,-12,-25,-13,2,-15,-6,-4,-5
16510,-5,49,-2,-13,27,11,4,-2
16515,31,-19,-6,10,-2,1,4,10
16520,2,-1,16,16,10,4,0,-8
16525,1,-13,1,-8,-4,-3,1,-2
16530,-3,-19,-12,0,-15,-7,-2,2
16535,1,28,17,10,22,4,1,6
16540,18,11,-5,-8,-27,-7,0,15
16545,-18,-2,-11,-2,8,0,1,-10
16550,-6,-19,-3,4,-17,-1,-3,-7
16555,-7,8,-5,1,19,1,-1,-1
16560,11,-19,-4,-12,-20,2,0,8
16565,-1,2,10,0,-10,3,2,1
16570,-8,8,-3,-2,-14,-10,-4,-4
16575,-4,-40,-3,-5,21,-4,-8,-6
16580,-1,7,12,-14,-14,5,4,8
16585,6,-4,-23,15,15,1,-2,4
16590,4,20,10,-11,-16,3,0,-12
16595,-15,-16,-11,-2,4,0,3,4
16600,-23,29,5,6,0,-7,-7,-13
16605,10,-73,-2,0,-8,-1,0,13
16610,33,53,10,0,31,8,5,12
16615,-22,16,-4,-7,-14,0,-2,-6
16620,5,5,-21,1,21,-3,-5,-18
16625,-18,17,-18,2,-13,-3,-3,-7
16630,-2,-66,-8,2,2,-4,0,3
16635,8,34,10,-3,-26,-4,1,5
16640,-20,-4,7,9,-2,-1,-3,-6
16645,18,29,15,3,21,1,3,4
16650,-3,-21,-15,-12,-6,6,1,9
16655,10,20,6,-6,2,2,-1,-10
16660,-5,-20,6,7,-7,-7,-1,-1
16665,2,-1,5,3,-8,-2,-4,3
16670,-3,9,-10,0,-3,-6,-3,-4
16675,-4,32,6,4,2,1,0,5
16680,13,-57,11,0,3,2,2,4
16685,-11,32,14,2,15,-2,0,6
16690,29,2,0,0,-11,2,-1,-10
16695,-21,4,4,-15,1,8,0,-3
16700,19,37,-3,8,-11,-11,-3,-8
16705,1,-17,-21,-1,9,3,2,8
16710,-21,0,2,4,23,-3,-6,-13
16715,12,-8,10,5,-16,3,4,-1
16720,6,-6,-7,-2,2,-7,3,4
16725,-8,-13,4,-1,2,1,-6,-11
16730,-2,17,-6,-6,-18,-6,2,11
16735,6,-4,1,-4,1,6,-3,-4
16740,-3,22,-2,-6,5,-2,1,7
16745,2,-29,9,6,-28,-2,-1,-1
16750,-6,-23,-6,8,43,5,3,-1
16755,-6,18,-12,-3,-15,-6,-4,-4
16760,11,-2,10,1,6,1,-1,-6
16765,3,37,3,-1,-2,-2,1,14
16770,7,-29,1,3,-16,-5,-2,-12
16775,-13,-49,-8,10,12,3,-3,-12
16780,5,13,11,-14,-1,5,2,6
16785,6,-5,-11,0,6,-5,-5,-9
16790,7,9,-8,-3,-16,3,0,17
16795,-28,-19,-17,-8,-5,-4,-1,3
16800,14,21,18,16,6,-3,-3,-10
16805,3,1,-4,-6,5,4,3,0
16810,-29,-25,0,-10,12,4,2,-5
16815,34,67,10,5,-20,-3,0,2
16820,-17,-34,2,-7,27,5,-2,0
16825,9,37,1,3,-16,-5,-2,-2
16830,-19,4,10,-1,-23,-6,-7,-12
16835,0,-19,-18,-6,21,-6,3,14
16840,8,15,1,4,8,1,0,8
16845,0,-18,-2,-7,-4,2,-1,-17
16850,6,6,0,-3,1,7,3,3
16855,-4,-20,0,1,-12,4,0,4
16860,-6,5,-15,-6,-1,-5,-2,6
16865,-21,-15,1,-1,-3,-5,-4,-7
16870,27,4,0,10,12,-8,-4,1
16875,-8,6,-4,-9,-11,-2,-2,-2
16880,-6,-9,-12,10,-26,-11,-4,-11
16885,-7,-36,12,-18,15,17,6,-5
16890,0,0,3,6,5,-4,-4,5
16895,3,23,14,-1,-9,0,-1,5
16900,-2,-6,-2,0,-4,0,2,3
16905,9,-18,-13,5,-28,-15,-5,-5
16910,-21,13,12,-5,19,4,0,-5
16915,4,-26,3,4,22,14,7,-4
16920,-2,27,-4,1,-1,-3,-1,-1
16925,-1,27,16,3,5,1,0,0
16930,-5,-17,-13,1,-21,-4,0,-2
16935,-5,-4,-9,-8,-7,-9,0,18
16940,-4,-15,13,4,0,-4,-1,-12
16945,-7,32,7,-11,12,6,1,-15
16950,0,10,6,10,-11,-1,-3,-6
16955,-3,22,10,3,9,-4,-1,-2
16960,8,-10,-10,-15,-3,6,3,17
16965,-3,-7,10,4,-6,-8,-1,6
16970,1,3,-6,9,7,-6,1,3
16975,19,-19,-22,-17,-18,-2,-4,-16
16980,-12,-6,2,8,-1,6,-1,-4
16985,8,1,-23,-10,-8,2,4,11
16990,-5,13,22,4,27,2,-7,-7
16995,-12,-20,-12,2,-24,-8,-4,0
17000,14,27,-10,2,6,0,-1,-6
17005,-15,-54,-3,-8,-18,-6,0,1
17010,21,24,-11,1,1,0,0,9
17015,-17,-28,-1,-3,-13,-10,-1,-7
17020,-14,30,8,-2,-7,1,-4,-8
17025,18,16,15,6,26,8,-2,-1
17030,-4,-9,-28,-7,-6,-4,-5,-5
17035,-3,13,18,13,14,1,1,-4
17040,-22,-41,-6,-6,-7,-1,-1,12
17045,39,22,-29,2,-43,-9,-3,-5
17050,-6,-33,2,-8,26,4,-1,0
17055,-4,12,-10,5,-8,0,-1,-7
17060,-6,-23,14,-4,28,-5,0,-1
17065,-2,-15,-9,7,-2,-2,-1,7
17070,-21,10,-4,8,-8,-1,7,-2
17075,1,-29,-11,-32,-28,2,-7,-6
17080,-4,-8,-2,15,11,-4,-4,-16
17085,0,37,12,-40,21,0,-6,-6
17090,6,-13,4,3,6,3,6,6
17095,-14,-8,7,-9,9,2,-1,3
17100,12,-41,11,3,-23,-4,-1,-3
17105,-8,30,-3,17,7,-4,-2,-1
17110,2,-47,-4,-7,0,5,-3,-11
17115,10,11,-7,8,12,-4,0,-2
17120,-3,15,-6,-10,1,6,1,7
17125,-15,1,9,10,-16,-4,2,3
17130,3,9,7,3,14,3,3,8
17135,12,-38,-6,13,3,2,0,10
17140,-19,-6,-10,-6,-7,-4,-5,-21
17145,-5,4,12,12,-2,2,1,1
17150,0,39,1,1,20,-2,-5,-5
17155,12,-32,9,-16,12,10,5,7
17160,-8,-1,-13,2,-23,-7,4,14
17165,4,2,3,-4,-19,0,0,5
17170,3,-45,10,-8,-7,1,-3,-16
17175,14,41,-44,5,-1,-1,-2,-8
17180,-6,-40,5,-7,1,-6,-3,0
17185,0,1,-2,15,7,1,2,0
17190,-10,8,-4,-15,2,-1,-1,15
17195,-1,32,23,10,-2,-3,-3,-7
17200,3,-11,-6,7,-6,0,-1,-3
17205,0,-19,-11,-6,8,-3,0,1
17210,3,13,-13,0,-20,3,0,6
17215,22,-11,22,-3,25,6,-1,3
17220,-20,10,-17,-6,-14,-6,0,3
17225,-14,-6,11,-1,31,5,-2,-8
17230,34,14,6,7,-27,-3,5,3
17235,-24,23,-10,3,5,0,6,15
17240,24,9,5,8,5,2,-6,-13
17245,-6,12,6,-17,-10,11,4,15
17250,-5,-11,-2,-4,-9,0,-2,-5
17255,-3,29,13,9,14,-4,1,2
17260,-1,6,-5,-11,1,5,-3,-6
17265,-4,-36,-4,14,10,-14,-7,-10
17270,-10,23,1,-15,-21,-4,-2,7
17275,-1,-7,-10,2,-13,-3,-1,-14
17280,3,10,30,-2,29,4,2,0
17285,4,-40,5,5,-19,-6,-4,-10
17290,-17,4,-14,10,32,-8,-5,-4
17295,8,7,12,-35,-30,9,5,10
17300,10,10,-24,1,8,2,-1,-1
17305,5,20,-4,0,-9,-6,-1,-1
17310,7,-6,15,4,3,0,2,3
17315,-19,-13,1,6,-12,-8,-5,-3
17320,4,4,-3,-4,1,-2,-2,-10
17325,11,26,7,2,21,2,0,12
17330,-28,-7,-13,1,-15,-1,-2,-14
17335,2,-7,9,0,3,2,-1,-2
17340,1,-44,-10,-5,-21,-6,-10,-19
17345,-4,14,0,-1,-1,-5,-3,1
17350,5,-7,-19,2,8,0,1,4
17355,1,21,2,2,-15,-6,-3,5
17360,-2,-16,4,-2,15,8,5,4
17365,-17,4,-3,9,-8,-3,-1,-3
17370,19,11,6,-31,-11,3,-3,-4
17375,-15,-3,17,16,2,-6,-4,-7
17380,33,19,-27,-7,11,4,4,12
17385,-13,1,2,1,-6,-6,-4,-8
17390,1,9,-5,4,-9,-3,1,7
17395,-13,-1,2,15,44,-3,-2,5
17400,8,23,13,-11,-25,5,1,-5
17405,2,12,-4,13,25,-3,2,-7
17410,-13,-31,2,-17,-28,-1,-2,-8
17415,-3,-7,-36,-9,-8,-1,-1,-8
17420,-2,26,19,7,-4,-2,1,13
17425,10,25,8,6,-16,2,1,12
17430,2,-12,2,-6,28,2,4,8
17435,7,-20,10,8,12,0,-6,-25
17440,-5,12,-2,3,10,1,-4,3
17445,-6,17,-19,-20,-27,-3,-1,1
17450,-1,-2,-6,8,-1,-7,-4,2
17455,20,3,9,-5,-6,4,4,-2
17460,-18,4,9,16,16,-2,-3,-9
17465,3,-5,-2,-8,5,4,4,2
17470,-17,-21,-12,-1,9,-11,-2,-5
17475,-1,-9,-8,-7,-6,6,3,10
17480,-7,31,2,4,-20,-7,-5,-7
17485,5,-19,-3,-2,19,4,-1,-3
17490,0,10,17,-4,-48,-5,0,7
17495,12,5,-1,6,16,2,-2,-9
17500,-6,-16,-4,2,16,-3,3,4
17505,-11,-60,11,-13,-3,4,-4,-10
17510,3,12,-4,11,5,-6,-4,-3
17515,-18,2,7,3,-10,-3,-2,7
17520,2,0,-20,-4,-11,5,2,-11
17525,9,6,1,-9,-9,-3,-3,5
17530,0,12,9,0,3,3,-5,-19
17535,-5,3,-10,3,17,-4,-3,-2
17540,-12,-21,14,-7,-20,-7,0,6
17545,-8,16,-28,3,10,2,-2,4
17550,26,23,3,11,23,3,3,1
17555,-13,-25,-7,-1,-15,-9,-4,-10
17560,-9,-83,4,-14,-9,5,6,10
17565,8,-7,5,-7,-9,-4,-3,-3
17570,-11,2,-8,1,-24,-4,5,11
17575,-12,5,10,6,40,-4,-8,-26
17580,25,49,-16,7,12,1,3,12
17585,-9,-7,1,-5,-9,0,0,-8
17590,6,-24,-18,-12,5,0,-7,-2
17595,0,6,6,-4,-28,-6,2,17
17600,1,1,10,-6,-3,-8,-2,5
17605,-10,19,21,1,37,12,3,-13
17610,-6,-4,-5,8,-16,-10,-3,6
17615,-1,21,-20,-13,0,-2,-2,-8
17620,12,2,8,-11,-8,3,0,1
17625,8,-12,-17,6,-4,-4,2,8
17630,1,19,22,-1,5,5,0,-1
17635,-5,-5,-7,1,-14,-3,1,21
17640,-17,14,-3,4,-10,-12,-7,-34
17645,15,-19,19,-8,-18,7,6,14
17650,-18,23,-5,1,19,3,-3,-40
17655,-19,-7,6,5,7,-3,-2,0
17660,25,23,-7,7,11,3,5,17
17665,-7,-7,-10,-12,-28,1,2,12
17670,4,7,10,-2,-22,-2,-1,-25
17675,-6,-41,0,-8,-4,-2,-4,0
17680,-13,18,11,12,22,-9,-5,-4
17685,5,22,-9,-3,9,7,3,6
17690,24,-17,8,0,7,8,9,40
17695,-6,-2,-3,-13,-20,-4,-3,-25
17700,-14,3,-11,8,-23,-3,-10,-16
17705,-18,-18,14,8,27,-4,0,-5
17710,8,50,-1,0,30,5,0,7
17715,25,-25,13,-8,-27,0,2,17
17720,-20,-48,-46,-6,5,-1,3,-6
17725,-3,17,8,14,2,-11,-6,-13
17730,-12,-38,-4,-4,-10,7,-2,-3
17735,13,25,-11,5,18,4,2,14
17740,-1,21,20,-2,1,3,7,6
17745,26,6,-17,-5,9,-7,-8,2
17750,-10,-32,-33,9,5,1,-2,-17
17755,1,18,1,2,-1,1,-4,-5
17760,-14,-32,1,-6,-4,3,6,22
17765,12,20,5,13,-14,-6,-1,-9
17770,-2,-3,14,-15,21,-4,2,14
17775,16,22,8,15,12,0,2,0
17780,5,-43,-17,-15,-7,3,-3,-8
17785,-5,12,-1,2,5,1,-1,-8
17790,-7,-53,-2,-4,-39,-14,-6,-1
17795,-16,-4,3,3,7,9,5,1
17800,13,38,24,-6,-33,-10,-6,4
17805,-9,-29,-17,-16,4,-1,-1,7
17810,5,3,9,10,-4,1,-1,-15
17815,18,23,7,1,18,1,0,4
17820,-7,-6,-8,0,0,0,-2,-1
17825,-6,8,-1,-3,-9,0,2,22
17830,-24,-16,-8,7,-2,-7,-1,-13
17835,26,15,35,-8,-21,-2,-6,-3
17840,1,-2,-17,3,12,-5,-4,-2
17845,-9,-24,-6,3,-1,5,2,-9
17850,7,36,2,-4,-17,5,5,20
17855,-20,-16,-23,-6,18,-3,-4,-12
17860,-9,-41,19,2,15,0,0,1
17865,14,-6,-6,-1,-6,-1,1,4
17870,-20,-4,-3,11,-39,-6,0,0
17875,15,35,4,-26,30,2,-3,-6
17880,15,18,-2,-5,13,8,0,2
17885,-19,-17,-8,2,-3,-1,-1,-18
17890,7,-24,-1,2,7,3,-5,-7
17895,-28,-28,-23,2,-23,-10,0,13
17900,20,20,17,9,43,13,6,17
17905,13,8,3,-5,-14,-5,-10,-30
17910,14,25,-5,-3,-8,6,4,7
17915,-15,-10,3,11,14,-7,-5,-8
17920,-9,-20,-27,-26,-24,-6,-3,-2
17925,-6,34,3,4,-5,-3,1,7
17930,2,-46,2,1,-1,-10,-7,-3
17935,7,-3,4,4,15,11,2,-2
17940,-8,-1,11,1,-22,-9,-6,-9
17945,5,-20,-2,-10,11,3,-1,1
17950,5,27,4,-4,2,-2,-4,-16
17955,-18,-23,-17,11,-32,-1,1,-1
17960,-21,19,11,-1,47,-1,-1,2
17965,20,6,1,9,-13,-1,1,-3
17970,-5,8,-18,-18,-6,-3,-4,4
17975,12,-4,15,4,1,-6,3,1
17980,-7,18,-2,19,-31,-1,-1,2
17985,-9,11,1,-18,30,9,0,-1
17990,3,-12,12,2,16,9,6,11
17995,0,42,-5,-4,-8,-5,-5,0
18000,-4,4,-3,-2,-19,-3,1,0
18005,-6,-29,-2,8,-16,-10,-2,-4
18010,15,11,2,4,36,5,0,4
18015,-6,2,5,-4,2,10,1,-10
18020,10,20,3,-1,-17,-5,-7,-11
18025,14,-19,-15,-3,-1,-2,4,28
18030,-48,1,18,0,0,-3,-3,-16
18035,35,29,-25,-1,-37,-7,-1,2
18040,3,-27,-20,-1,36,1,0,5
18045,-11,-5,18,-1,9,1,0,-14
18050,12,31,-1,-3,-10,1,0,9
18055,-18,-38,8,12,-21,-11,-3,1
18060,-3,1,0,-14,-9,3,0,-5
18065,-20,10,-2,-3,21,10,3,-2
18070,20,6,-12,9,1,-9,3,6
18075,-1,-43,-1,-2,12,8,2,9
18080,22,19,2,8,-2,-7,-4,1
18085,-23,0,1,-2,-13,3,-3,-15
18090,10,20,0,2,-9,-3,-1,1
18095,-13,-22,-14,-22,8,3,1,4
18100,4,1,12,6,6,5,6,-6
18105,6,21,-21,10,5,-6,1,12
18110,10,-49,-14,-2,-6,-10,-11,-16
18115,8,11,-4,0,-12,11,7,0
18120,-6,-19,6,-5,24,1,-3,4
18125,-2,13,11,3,-2,-4,-2,-3
18130,-15,21,-6,-5,-25,-3,2,10
18135,1,1,10,9,27,-7,2,6
18140,11,16,-21,-16,-12,0,-7,-17
18145,-7,-24,-19,-4,4,-6,-6,-11
18150,15,8,26,-2,0,5,3,25
18155,-31,-20,-35,-7,0,-1,-3,-17
18160,-11,7,28,7,-19,0,2,-3
18165,29,20,-12,2,-8,-8,-3,9
18170,-5,-11,-8,-9,26,0,-2,-19
18175,5,21,20,-8,-25,0,0,7
18180,-7,-22,-15,14,-19,-9,-2,1
18185,-1,-6,10,-5,32,12,3,11
18190,-8,4,-3,-2,-2,2,2,-3
18195,9,16,3,5,-5,-4,-2,0
18200,-8,-12,-7,-3,12,0,3,1
18205,23,7,13,12,12,1,6,15
18210,-2,-3,-5,-19,-20,-4,-9,-18
18215,-5,-18,6,-10,8,-3,-5,-10
18220,-7,4,-5,2,-7,0,-1,1
18225,8,21,-4,-7,-22,-3,-1,0
18230,-17,-70,-11,10,18,-5,2,20
18235,22,22,4,-7,4,11,-2,-38
18240,-6,-32,-4,2,4,1,0,7
18245,-8,28,10,2,-14,-7,-5,-12
18250,5,46,3,2,15,6,0,11
18255,-11,-48,6,16,-6,-14,-3,9
18260,14,-7,0,-15,6,10,9,5
18265,0,-20,-17,-4,15,3,-4,-17
18270,0,-1,15,7,-1,-2,-3,-15
18275,-12,-6,-11,6,-15,-7,0,15
18280,0,16,-9,-9,15,0,-1,-2
18285,7,-25,7,-2,0,2,1,4
18290,-19,16,-4,-15,-8,3,4,-11
18295,3,8,-27,0,-16,-6,-5,-3
18300,3,-5,15,11,-9,-3,0,10
18305,-42,-23,-7,-14,-29,-3,-4,-7
18310,38,36,15,6,36,10,3,2
18315,-14,-3,-24,-6,-3,-3,1,1
18320,9,35,9,9,5,-4,-5,-17
18325,-10,-11,8,-1,2,8,3,0
18330,-10,-18,5,-2,-27,-7,-5,-1
18335,-2,19,8,0,45,11,2,0
18340,14,-7,-7,3,-19,-6,3,21
18345,-11,23,3,5,-19,-10,-8,-23
18350,12,-4,6,16,14,-1,-4,-13
18355,-1,-4,-2,-16,9,11,4,11
18360,-18,-14,-8,-14,0,8,3,-6
18365,18,-10,-6,5,-16,-11,-4,17
18370,-12,13,-2,1,-14,-6,0,-4
18375,0,-6,15,9,-11,-11,-7,-7
18380,-5,-37,5,0,-7,6,4,14
18385,0,38,-24,-6,18,-2,-4,-5
18390,0,1,-3,4,3,-6,-2,-8
18395,9,-31,16,-9,5,7,1,-5
18400,-4,30,4,7,0,-5,-7,-8
18405,-9,-57,-4,-6,-10,2,7,17
18410,2,-42,-8,-2,-3,-4,-3,4
18415,7,42,26,8,-20,3,1,-2
18420,3,4,2,12,28,0,-3,-7
18425,3,-4,7,-10,-10,2,2,8
18430,-4,46,6,-1,25,3,-3,-5
18435,2,-22,-5,-2,-14,1,6,20
18440,-5,5,-10,-3,-11,-14,-10,-7
18445,-17,18,1,1,10,3,0,-8
18450,-16,-7,-9,-5,-35,-8,-2,-9
18455,29,22,-4,4,18,-10,-7,1
18460,2,-21,3,-13,-10,-1,2,5
18465,3,2,-6,0,15,0,-1,-9
18470,0,-2,-10,-6,-3,12,8,23
18475,-36,-31,27,1,9,-5,-3,-14
18480,17,-15,-7,5,-15,0,0,-8
18485,11,3,5,7,-11,-9,-4,-1
18490,1,2,-2,-3,5,10,4,5
18495,3,6,7,8,11,-1,2,10
18500,-6,-1,-2,-10,13,7,3,13
18505,-4,0,13,0,6,1,-2,-5
18510,-2,12,-2,1,-24,-6,-3,-8
18515,-7,48,-7,-1,31,-2,3,10
18520,-2,2,12,5,6,4,3,-7
18525,24,-3,-7,-5,-26,2,1,-1
18530,-14,-28,0,5,5,-7,-5,-3
18535,8,9,5,-12,-36,-6,-2,3
18540,-13,17,-24,6,-3,-7,-3,-9
18545,-7,1,4,-7,21,4,1,9
18550,-2,-38,-6,8,-16,-10,-2,1
18555,-12,-23,-1,-14,19,13,-1,-13
18560,9,18,15,2,-13,-2,0,4
18565,-27,3,10,-2,2,2,1,-10
18570,7,14,4,1,13,0,-1,1
18575,7,-29,-24,4,-11,1,-2,-8
18580,-9,-31,14,-7,-32,-12,-5,5
18585,-5,-14,-27,1,48,0,-2,-2
18590,-3,-6,6,-6,-2,0,1,12
18595,13,0,-11,4,1,2,-1,-3
18600,-5,16,-8,-8,-2,0,0,-3
18605,8,10,3,12,-27,-10,-4,5
18610,-2,-1,-12,-6,2,6,5,6
18615,-6,-11,0,-8,13,0,-1,-1
18620,-10,0,-6,-3,-17,-4,-5,-3
18625,10,-7,5,0,8,-4,-3,-12
18630,5,15,-5,3,7,0,-2,0
18635,5,14,-10,2,-9,-4,-1,-5
18640,-3,3,3,-4,3,11,3,0
18645,-10,8,14,-1,9,0,1,6
18650,27,-8,-7,-9,-17,-2,-3,8
18655,-32,3,-7,13,10,-4,2,-9
18660,22,3,-11,-11,2,5,0,-2
18665,15,10,8,5,-3,1,-6,-21
18670,1,3,14,5,22,6,3,0
18675,-2,13,1,-3,-22,-13,-7,2
18680,-14,4,1,4,11,3,0,-9
18685,-8,-15,-9,-10,-32,-7,1,8
18690,-12,-11,10,-5,15,-4,-1,-3
18695,18,33,-11,-1,5,-2,-2,2
18700,5,-13,9,2,0,5,-5,-17
18705,-3,-28,-21,9,19,-4,-2,2
18710,-12,27,-1,0,-30,-3,3,17
18715,-12,-11,-10,-11,-2,3,1,-11
18720,6,-16,-9,-2,-4,-10,-5,-3
18725,-2,12,2,3,12,17,4,8
18730,0,6,0,-4,-26,-12,-2,5
18735,8,-16,16,-1,13,13,5,-1
18740,1,31,-3,7,7,0,-2,2
18745,-7,-39,-1,-2,6,-5,0,2
18750,-17,-7,-3,-1,-3,-6,-4,-17
18755,23,34,0,-5,3,0,-4,5
18760,-19,-24,8,-13,-9,-4,1,-4
18765,9,4,7,-1,-11,-1,0,7
18770,6,24,-10,5,43,7,-2,-9
18775,-6,-12,17,2,-4,-2,-3,-7
18780,-4,2,-10,-5,-2,-2,-1,0
18785,-8,-7,8,2,0,-8,-3,-4
18790,10,3,-7,-1,-6,-2,1,3
18795,-8,-10,-16,-8,7,11,2,10
18800,-2,7,8,8,8,-6,-6,-16
18805,7,25,2,-3,-29,-6,1,8
18810,6,-12,-9,6,22,6,-3,-15
18815,-25,-12,-15,3,-8,-3,2,9
18820,17,-41,1,12,11,1,1,9
18825,5,40,0,-12,-24,2,-3,-10
18830,3,-59,0,-10,-26,-6,-1,-3
18835,-3,22,32,15,-5,-8,-4,0
18840,-18,-1,-17,-7,8,0,1,10
18845,5,-12,14,3,-8,-3,-4,-4
18850,-8,23,-8,-2,29,8,1,-9
18855,-1,7,21,0,-2,-5,-6,-6
18860,-10,-57,-3,2,-18,-5,-1,4
18865,13,25,12,3,11,3,3,4
18870,-7,-17,-7,-13,-16,6,2,6
18875,-6,8,-5,7,-27,-11,-7,-8
18880,1,4,-1,-4,40,3,-1,-10
18885,2,12,-11,5,-12,2,2,10
18890,-4,-20,11,-5,-5,-1,-1,-7
18895,13,-14,-4,1,-8,-3,-3,-1
18900,5,22,7,-1,-11,-8,-3,8
18905,-7,-9,-15,0,-5,-1,0,-4
18910,1,-10,6,6,6,2,-1,2
18915,3,-4,-3,-10,-13,-4,-1,-9
18920,8,24,9,5,15,-3,0,1
18925,-4,8,-4,-4,21,6,1,-4
18930,-13,-7,-2,-1,-5,0,-3,0
18935,12,-38,-11,-5,8,-3,-2,2
18940,-8,14,-3,-8,-18,0,3,-1
18945,-18,-12,9,6,6,2,-2,-3
18950,10,23,-5,-11,-1,-10,-4,-10
18955,-7,5,2,2,-10,3,2,3
18960,11,10,-8,-6,-20,-3,1,14
18965,-5,-25,-11,6,4,-4,-3,-10
18970,-4,21,8,-5,4,9,2,-4
18975,9,-13,-2,-2,-12,-9,-4,2
18980,-5,6,2,-5,8,10,5,-5
18985,-5,-2,4,3,6,-4,-7,-10
18990,0,-13,2,12,1,-2,1,16
18995,15,13,7,-4,-8,0,5,2
19000,0,30,-10,3,-8,-1,-4,-4
19005,-16,-8,-11,-7,16,-1,6,2
19010,15,1,1,11,-8,2,-1,-8
19015,-20,-43,-13,-22,28,10,-3,3
19020,-10,17,1,4,1,-5,-1,3
19025,8,4,-2,-7,-33,-2,-1,-7
19030,11,25,6,11,39,-1,-1,1
19035,-2,-19,-23,-3,-44,1,1,-7
19040,7,-16,14,6,24,2,-3,-2
19045,-1,17,-19,-2,-2,-3,-4,8
19050,-6,19,31,-7,-2,0,1,1
19055,4,-1,-16,5,8,1,0,3
19060,-19,-25,5,6,6,-6,-5,-11
19065,19,21,-6,-12,-34,3,0,4
19070,-1,-9,-4,-5,-3,-3,-1,-1
19075,0,14,14,5,24,3,-2,-7
19080,-3,-12,1,4,-34,-5,2,3
19085,-4,1,18,-6,35,-1,0,9
19090,2,-4,-18,3,-1,-4,-5,-5
19095,-9,-5,-10,-20,-31,3,-3,-14
19100,16,11,11,8,9,3,2,0
19105,16,-15,7,3,-2,-3,0,-2
19110,-20,-18,-9,-5,-17,-3,-1,-4
19115,0,-3,-1,9,-10,-9,0,13
19120,-1,39,-6,-4,3,-2,-4,-7
19125,-5,17,-1,-4,18,5,3,2
19130,7,-47,4,1,-1,5,2,0
19135,0,13,-2,-5,8,5,3,10
19140,1,-8,-1,-7,-18,-2,-3,-7
19145,-3,-3,2,6,-10,-4,-5,-20
19150,-11,30,13,9,2,0,-1,5
19155,15,27,-13,1,-5,-5,-1,4
19160,-7,16,-12,-16,11,3,-1,5
19165,7,-50,-1,0,14,6,0,2
19170,-5,12,2,3,-10,-7,-3,-6
19175,-1,-45,4,1,5,1,2,2
19180,-4,42,7,3,6,-4,1,4
19185,14,-4,-21,-7,-27,-5,-2,6
19190,-10,18,-8,-1,-4,-10,-5,-15
19195,-14,2,9,1,14,9,5,-6
19200,6,-47,-5,3,2,0,-4,-3
19205,-13,7,9,-1,1,-5,-2,-2
19210,5,1,-21,-8,-17,-1,-3,-2
19215,-1,13,9,10,10,-11,-5,7
19220,17,5,-8,-14,-4,9,6,8
19225,-23,-6,5,1,-9,-1,-1,-7
19230,5,-2,4,-4,10,-3,-3,0
19235,-5,-2,-5,8,1,-5,-1,-1
19240,-8,-15,9,-2,-13,0,1,3
19245,3,11,6,3,19,1,0,5
19250,13,31,9,7,2,0,0,-3
19255,-4,-17,-7,3,26,7,1,-4
19260,-9,-10,-15,0,-19,-8,-3,-4
19265,2,4,6,-14,-2,6,7,14
19270,-12,-18,-12,2,-6,-3,-2,-5
19275,6,34,14,1,1,1,-4,-4
19280,6,10,-8,-3,-4,-1,-1,-7
19285,-10,-43,-15,1,9,-9,-5,-4
19290,3,2,1,-4,-12,-4,1,11
19295,-8,-18,-1,-8,0,2,-2,-6
19300,-13,13,8,-13,-12,-3,-5,-16
19305,24,13,6,8,-25,-7,4,11
19310,-3,-17,1,5,25,1,-4,-2
19315,3,0,-1,-2,1,-8,-4,2
19320,-9,-21,-4,1,13,1,0,-3
19325,-5,6,9,-2,-4,5,1,1
19330,-2,-9,-16,-2,-13,-5,-1,0
19335,4,-2,-5,1,5,2,0,-3
19340,2,-7,5,-2,-8,-4,-2,7
19345,-3,-10,-6,4,6,-4,-6,-9
19350,4,15,5,-4,-23,2,3,5
19355,-7,6,4,-6,3,-1,-3,-14
19360,3,-22,-7,7,5,-5,-2,12
19365,-33,6,-7,0,-4,3,-1,-14
19370,34,30,1,4,1,3,0,4
19375,-4,-46,-13,-13,6,-2,0,5
19380,-4,20,14,3,9,6,1,-7
19385,-3,21,9,-1,-1,-4,0,6
19390,4,-18,-23,-6,-4,-4,-2,1
19395,-4,0,1,6,-1,-1,-2,-6
19400,10,-9,-2,13,3,0,0,4
19405,-26,11,5,-20,-14,3,-1,-6
19410,-9,-20,6,0,-13,-5,-3,-2
19415,11,33,-2,11,18,2,1,-3
19420,-4,-8,-10,-12,-2,-1,-8,-18
19425,5,7,3,15,0,-4,0,-1
19430,-20,-2,-5,-12,25,4,0,-2
19435,14,-29,-3,0,-63,-12,-3,13
19440,-4,-3,-31,-10,47,10,1,-5
19445,9,17,-3,3,13,-3,-6,-6
19450,-3,-39,-1,-6,0,-4,-2,-4
19455,-14,18,16,-3,-25,-5,-2,-2
19460,11,-11,-4,5,-9,-1,3,6
19465,10,22,-4,4,1,-3,-2,0
19470,-7,14,18,-3,6,8,4,2
19475,-14,1,-21,1,17,1,-3,-4
19480,23,-15,6,5,-11,-7,-2,-6
19485,11,-5,-10,-6,0,6,4,3
19490,-8,-2,7,2,-11,-7,-4,-14
19495,-14,21,21,2,0,3,1,-2
19500,0,-4,-4,4,6,-4,1,10
19505,-9,-12,1,-2,-7,-2,-2,-9
19510,21,-10,7,-2,19,3,2,3
19515,13,-11,-27,-6,-24,-2,3,6
19520,-12,-6,6,9,21,1,-4,-2
19525,0,14,8,-10,-9,-2,-3,0
19530,-7,-8,0,8,-4,0,0,2
19535,1,5,15,-1,-5,-4,-1,-1
19540,5,22,12,-2,11,1,3,8
19545,-20,-61,-43,-3,12,-5,-4,-4
19550,8,21,-10,-4,0,3,0,-4
19555,-4,-43,7,-6,-7,3,1,7
19560,-7,8,-6,-8,-8,-2,-5,-7
19565,23,7,17,12,-12,-3,-3,4
19570,-19,8,-4,-4,11,-1,2,2
19575,3,1,-8,10,27,7,3,4
19580,-1,-3,4,-5,-20,-8,-7,-5
19585,27,0,4,-7,4,2,1,0
19590,-7,-17,-6,9,0,-6,-5,-6
19595,-5,21,7,-2,-14,0,2,4
19600,-5,1,6,-4,-3,4,3,9
19605,-3,-16,-7,-6,1,-1,-1,-3
19610,3,27,-14,8,9,3,-2,1
19615,-7,-12,2,-2,23,3,-1,-4
19620,5,24,-3,-3,-25,0,0,-2
19625,-2,11,11,2,5,0,1,0
19630,3,-4,1,8,-10,-5,0,8
19635,-13,-16,-7,-16,22,8,-2,-1
19640,-2,-18,-20,2,3,-1,-1,-19
19645,3,5,2,-2,-2,2,0,-3
19650,-7,6,17,3,-9,-1,-2,0
19655,3,21,7,3,-10,-11,-5,3
19660,-13,-22,13,-3,-3,-4,-1,-6
19665,8,-4,1,-2,-1,5,1,2
19670,-4,6,-2,-4,-2,-5,-1,-6
19675,-7,16,2,6,20,6,1,-10
19680,0,17,0,-12,-17,-3,2,13
19685,-6,-40,-4,8,3,2,-2,-10
19690,18,-38,-14,-2,-10,-4,-1,15
19695,-2,17,4,-8,28,11,1,-11
19700,-7,15,2,7,14,2,0,-4
19705,4,9,6,1,-10,-3,-2,8
19710,-8,12,-5,-2,-7,-1,0,-10
19715,10,-12,-5,10,-4,-10,-3,0
19720,-9,-16,-12,-6,-11,3,1,1
19725,3,23,7,6,4,-3,0,7
19730,-1,-17,9,-14,9,-3,-2,-1
19735,1,4,3,9,-15,-3,-2,-7
19740,-15,-9,-1,-15,-10,-1,-2,-14
19745,5,11,-6,4,4,0,1,7
19750,-9,-18,4,-2,-11,-4,-4,-5
19755,10,14,-4,1,7,-1,-2,-5
19760,-2,-33,-19,7,2,-1,0,7
19765,-8,-3,-1,-3,-3,-1,0,5
19770,-18,-8,12,-3,-7,4,2,-4
19775,21,10,-14,-3,6,-7,-7,-12
19780,-1,-5,20,-1,-7,0,3,13
19785,2,13,-31,8,4,-4,-3,-14
19790,5,9,-1,-12,-1,5,0,10
19795,-18,-3,4,2,-17,-4,-1,-2
19800,-5,6,0,10,1,-8,-2,3
19805,-1,-48,-4,-22,8,-4,-7,-3
19810,11,14,-12,2,11,13,5,-2
19815,0,-6,-6,0,-13,-6,-3,-4
19820,3,8,6,13,2,4,0,-3
19825,-11,27,6,-11,3,-1,3,6
19830,0,-6,-16,-8,-2,-1,-3,4
19835,-3,-2,-3,0,-6,-1,-2,-8
19840,-2,-9,16,4,-7,-5,-2,3
19845,10,-7,0,13,4,-5,-3,-9
19850,0,30,4,-9,12,6,2,4
19855,-10,11,-6,-3,-4,2,4,20
19860,23,21,-3,-2,0,2,-4,-7
19865,-16,-21,0,2,-2,0,-3,-3
19870,-4,7,0,-4,-15,-9,-2,0
19875,-2,-21,7,-1,5,0,-1,0
19880,3,14,-7,-4,5,3,0,-2
19885,-2,21,3,4,-7,-8,-5,-11
19890,0,-35,-16,-9,-28,1,1,4
19895,-6,12,6,0,51,3,0,1
19900,2,8,7,-5,-9,1,0,-4
19905,4,24,-7,3,1,2,2,7
19910,-18,-34,7,11,-6,-13,-10,-19
19915,2,1,-4,-1,-31,-5,-4,1
19920,22,-26,-14,-12,36,10,0,-4
19925,-1,25,18,3,-3,-2,3,19
19930,-4,-34,-12,-1,-1,0,2,-9
19935,-5,0,-9,-4,-7,-7,-8,-17
19940,-6,20,14,13,-5,-11,-5,1
19945,-2,-14,-8,-12,1,13,3,4
19950,-2,-32,6,7,12,2,2,10
19955,13,20,-2,-13,-22,-3,2,0
19960,-12,-8,-5,-3,-10,-4,-2,-3
19965,-4,-9,-22,-6,-12,-5,-4,-3
19970,3,21,19,26,55,5,-1,-7
19975,2,-1,8,-17,-20,8,6,6
19980,-20,-15,3,0,3,-5,-3,-3
19985,3,-26,-2,-12,-2,3,4,-1
19990,17,15,4,3,-3,-1,-1,-1
19995,2,-23,13,7,-2,-8,-2,16
20000,19,15,-17,-3,-12,-3,-5,-21
20005,-17,-3,3,3,-2,-3,0,1
20010,2,17,9,-7,-2,-1,-3,0
20015,-14,-40,-19,-2,-2,2,4,9
20020,2,19,-6,-4,5,-4,-2,5
20025,9,-11,11,-5,-10,5,-1,-4
20030,-5,11,0,-2,6,-5,-1,-9
20035,-8,-9,-4,0,-24,-1,-2,1
20040,-11,-18,7,4,10,-1,3,2
20045,21,-5,1,18,19,-6,-8,-15
20050,0,20,-1,-18,-8,3,-2,4
20055,-8,17,10,-1,-6,1,1,6
20060,-15,-17,-19,-8,4,0,1,2
20065,14,20,13,2,-3,-1,-1,-2
20070,1,-9,6,11,0,-2,2,2
20075,10,-2,-9,3,17,0,-2,-2
20080,-8,5,-10,-5,-6,8,1,16
20085,-2,10,-2,8,0,-7,-5,-13
20090,-3,-23,-15,-15,-26,-4,-3,-3
20095,-3,-1,7,2,10,1,-2,-12
20100,11,8,15,4,13,0,-3,7
20105,-25,-13,14,0,-24,-2,0,-3
20110,18,2,-29,1,34,5,1,2
20115,9,17,20,-1,4,-3,-3,2
20120,-9,-13,-3,-1,-23,0,1,-15
20125,-3,-2,-5,6,5,-3,-2,6
20130,-11,43,3,-8,-18,4,4,4
20135,-6,-34,-7,3,14,3,2,-4
20140,9,-21,-11,-6,-7,-6,-7,2
20145,2,-10,4,-5,-2,-3,2,0
20150,4,10,-7,7,-14,-4,-1,10
20155,14,-11,-7,3,29,3,-3,-11
20160,0,7,5,5,11,7,5,2
20165,1,7,-5,-3,-8,0,-1,7
20170,-33,-20,-4,-7,-2,-3,0,2
20175,5,-1,3,2,-30,-14,-10,-23
20180,-6,12,13,3,11,0,1,-3
20185,5,4,-10,-16,-1,4,1,2
20190,12,15,5,3,-3,-5,-3,6
20195,1,-1,1,0,-4,-1,0,3
20200,-13,-9,3,-1,11,4,2,-1
20205,1,9,-6,1,21,4,1,-8
20210,-16,-17,2,-10,-24,-6,-5,-10
20215,5,-6,-6,-3,-2,2,1,11
20220,26,27,6,-1,-29,-5,-1,5
20225,-27,-39,5,8,4,-6,-5,-3
20230,29,11,-12,-11,24,7,-2,-9
20235,-28,1,0,1,7,1,2,7
20240,5,3,-9,0,-5,-2,0,6
20245,-2,21,16,1,-3,-2,-2,-16
20250,-5,-6,8,8,-2,-2,-2,-2
20255,-1,-7,-21,-5,-11,0,-3,0
20260,1,3,5,0,-3,-6,-2,6
20265,2,-8,-5,-3,11,3,4,11
20270,-18,1,-4,-1,-23,-2,-3,-6
20275,7,32,1,-3,2,2,0,-13
20280,4,1,-7,0,12,1,0,-1
20285,5,-9,-12,9,4,-3,-2,-5
20290,3,7,11,-5,-16,-6,-2,5
20295,-8,-17,-31,-8,-5,1,0,4
20300,-23,-8,12,-3,-5,-5,-4,-13
20305,6,-1,-5,2,-14,-3,-3,6
20310,9,19,13,1,17,7,4,0
20315,-10,-30,-2,5,6,-11,-3,-4
20320,13,5,-13,-4,-12,3,-2,-6
20325,2,12,9,-1,-5,-5,1,8
20330,-9,-11,-10,4,5,2,-2,-6
20335,12,-3,11,-1,-7,1,0,5
20340,-15,-17,-10,3,-5,-4,-1,6
20345,-15,-21,-2,-4,-1,0,-1,-9
20350,13,42,6,10,23,-3,-4,-18
20355,4,18,-10,-19,-5,3,0,3
20360,6,-34,-7,2,4,-1,2,6
20365,-14,2,5,0,-10,4,2,11
20370,-12,-14,-24,2,8,-4,-2,-11
20375,12,35,17,-1,-4,2,2,6
20380,-3,-9,-12,-7,5,-3,-5,-15
20385,-5,-14,3,-7,-5,-2,-2,-3
20390,4,13,1,7,0,2,3,10
20395,1,10,16,15,13,-1,-3,3
20400,3,-13,14,-14,-20,6,4,5
20405,0,5,-14,-6,2,0,-3,-15
20410,13,-21,7,5,-13,-12,-4,16
20415,-29,1,-5,7,3,-2,-5,-22
20420,4,48,8,-14,25,8,-2,-3
20425,19,-4,-7,-2,-1,2,2,8
20430,-3,-17,-10,-2,-9,-1,0,5
20435,-4,-22,-3,1,-25,-9,1,8
20440,-6,2,9,18,25,-5,-2,-2
20445,16,41,-5,-12,9,8,-2,-13
20450,-1,1,17,-6,0,5,1,-2
20455,1,0,-9,-3,-3,-2,0,2
20460,-11,-9,-4,-4,-16,-4,0,3
20465,0,-16,-4,4,8,-4,-3,13
20470,-7,19,1,1,-16,0,1,-8
20475,-2,0,-1,15,27,-1,-1,-12
20480,3,-4,-7,-11,16,3,-5,-6
20485,-24,-1,-9,-13,-13,-1,-3,-1
20490,22,-23,12,-3,5,-3,-3,-4
20495,10,-18,1,2,-21,-1,-2,7
20500,-14,7,1,13,12,-2,-1,3
20505,-3,13,-3,1,4,6,6,-7
20510,-15,10,-13,-11,-20,0,-3,-3
20515,4,-34,4,-14,25,8,1,3
20520,2,13,-2,12,-19,-4,2,4
20525,-1,-19,7,2,-8,-9,-6,-6
20530,-13,7,-1,-6,11,1,1,11
20535,23,14,-2,6,-11,3,-4,-24
20540,-7,2,9,0,-11,-4,-1,14
20545,12,-2,-5,5,3,-6,-1,-8
20550,-6,5,3,-2,8,6,0,-2
20555,6,5,-8,0,9,-1,3,18
20560,8,-10,-8,-14,-13,0,-2,-12
20565,-3,27,7,8,-9,-6,-1,2
20570,5,-33,-11,7,0,0,-4,1
20575,-15,-12,-1,7,25,1,0,5
20580,0,-2,-1,-23,-24,4,-2,-12
20585,-6,8,-2,4,3,-1,1,0
20590,5,6,-15,11,-13,-11,-5,-4
20595,2,21,15,-25,22,6,-3,3
20600,2,-38,-25,6,-1,-4,-1,0
20605,-6,-8,-2,-3,5,7,2,3
20610,2,4,6,3,5,1,1,-3
20615,-15,27,10,5,-25,-9,-2,4
20620,14,-18,0,-1,17,-2,-4,-3
20625,-2,2,-2,-6,-5,-1,-1,2
20630,2,11,2,-6,7,4,2,1
20635,-6,-14,-11,1,-9,-3,0,0
20640,0,3,-2,-3,-13,-5,-6,-1
20645,-4,-39,8,0,3,-3,-1,8
20650,7,-17,-2,12,7,-9,-4,-14
20655,-3,22,3,-8,-24,11,2,0
20660,-4,40,-3,0,19,4,3,3
20665,10,-1,8,-6,-8,-1,4,13
20670,-5,-12,-5,4,5,6,-4,-10
20675,-1,-11,4,4,0,0,1,4
20680,2,21,4,10,-10,-9,-1,-2
20685,-13,5,-10,9,8,0,-1,0
20690,5,-14,-4,-21,8,6,2,4
20695,4,22,6,-1,-10,-4,-2,-4
20700,-17,-28,-10,-1,-29,-4,-2,-9
20705,7,12,-6,0,14,2,-1,1
20710,-6,-33,6,5,-9,-3,0,-3
20715,1,-15,-7,-7,4,-4,-3,-4
20720,8,-18,10,-2,-4,1,1,4
20725,-24,-23,-4,3,-2,0,-3,1
20730,7,16,-10,-4,-3,0,0,-4
20735,8,-32,13,9,10,3,-3,-9
20740,-12,-14,-13,1,-12,-6,-4,-4
20745,10,22,2,-3,-1,-1,-3,-3
20750,-21,1,-21,1,13,2,2,6
20755,-9,1,13,-5,-3,-7,-7,-6
20760,9,-2,-6,13,2,0,4,-4
20765,1,-2,-6,-16,-4,5,-1,-8
20770,-1,7,4,-3,0,2,0,3
20775,-7,1,-1,2,-7,-4,1,0
20780,4,5,-27,9,13,0,0,-1
20785,0,2,4,-1,-3,0,-2,2
20790,9,8,-5,-5,9,6,-2,4
20795,0,9,-1,7,-7,-2,0,-6
20800,-5,-6,0,-13,-1,6,0,5
20805,14,5,-2,5,-8,-6,0,4
20810,3,-2,-3,-9,-31,-10,-3,3
20815,-24,-14,-10,9,32,6,4,1
20820,20,43,16,-5,-19,-7,-7,-7
20825,-10,-17,-3,1,18,3,2,-2
20830,0,-1,-3,-6,-4,-1,-2,1
20835,3,-10,31,3,-1,-2,0,4
20840,-13,-39,-8,-8,-10,0,1,-1
20845,8,20,-11,-6,34,9,0,-8
20850,-16,7,15,6,-11,-1,-1,-2
20855,26,5,-5,-12,1,-4,-2,10
20860,-27,-3,-17,2,1,-1,-2,-28
20865,3,4,12,7,-14,-9,-5,-3
20870,-3,-18,-10,-2,1,-1,0,3
20875,1,9,0,-8,-21,-3,-3,-1
20880,4,10,25,10,11,-3,-2,-1
20885,-10,-1,-11,1,1,-2,0,-9
20890,3,-10,-4,-9,-7,-5,0,-2
20895,-6,-19,-26,-7,-16,0,0,3
20900,10,26,4,10,26,0,4,18
20905,-17,-29,1,-6,-20,0,-2,-10
20910,13,12,13,-3,9,9,5,6
20915,-2,15,-14,-2,0,-5,-5,-1
20920,-3,-3,16,2,-9,-2,-1,-6
20925,-7,-44,18,-2,13,-4,-3,7
20930,7,-3,6,2,-9,-5,1,-2
20935,-7,-1,4,-1,-15,0,-4,-8
20940,7,29,5,-1,34,8,-2,1
20945,-2,17,18,0,-13,1,-2,-2
20950,-6,1,10,10,-13,-9,-6,0
20955,2,-26,-46,-14,36,14,4,-4
20960,-2,16,12,2,-3,-3,-1,5
20965,4,-34,-6,0,-6,-2,0,7
20970,-6,23,-3,1,-12,-3,0,1
20975,-6,14,4,1,3,-11,-5,-2
20980,20,-1,0,-4,4,10,2,-1
20985,-7,42,-13,4,-3,-2,-4,-13
20990,15,-47,-12,4,2,-5,-1,-1
20995,-2,40,27,-3,-9,-4,-4,1
21000,-15,-28,-9,-7,-4,0,1,13
21005,0,11,3,-3,-2,0,-1,-6
21010,-14,12,2,-9,9,5,-3,-18
21015,3,17,34,9,-2,2,8,10
21020,2,-26,-16,3,2,-7,-6,-3
21025,5,6,3,1,12,0,0,5
21030,-10,-34,-18,-5,0,1,-1,1
21035,16,14,1,-7,-16,-3,1,2
21040,-30,32,18,6,3,5,2,-10
21045,24,-30,-6,-2,-21,-5,-4,5
21050,3,5,-19,0,18,2,1,1
21055,-6,9,3,6,-9,-5,-5,-13
21060,10,-1,1,-7,-1,-3,0,6
21065,-4,20,1,2,-13,-1,1,2
21070,6,55,17,2,-1,-2,-2,-4
21075,-11,-22,-19,9,2,0,2,-3
21080,-5,5,-5,-11,15,6,-1,7
21085,9,-28,3,1,-14,-2,3,3
21090,8,12,8,1,8,3,1,9
21095,0,-3,-34,0,-16,-7,-4,-5
21100,4,-29,-7,-2,-4,0,6,1
21105,-38,7,-22,-17,-7,2,1,0
21110,22,-3,4,6,-9,-4,-3,10
21115,10,2,9,6,6,-4,-3,-6
21120,3,-11,-5,-2,-7,0,-1,-2
21125,-7,-3,-2,-1,0,-7,-7,-11
21130,-9,0,5,-3,9,2,4,11
21135,-13,-15,3,-20,-11,3,0,-6
21140,5,18,9,4,-7,-8,-6,-7
21145,3,25,0,8,0,-1,2,5
21150,-10,-30,13,2,6,-1,-5,-14
21155,-1,-12,-14,4,-11,-1,1,6
21160,7,-2,3,-16,7,-2,-3,-6
21165,-12,7,-33,-5,-1,2,3,4
21170,25,9,21,5,0,-4,-1,5
21175,4,2,3,-1,12,4,-2,-10
21180,-9,0,-12,-2,-20,-10,4,8
21185,9,7,-5,-2,23,8,-2,-3
21190,-16,7,11,-3,6,0,1,0
21195,-18,-53,-25,3,-7,-11,-5,-7
21200,-1,41,11,-13,-17,7,1,5
21205,7,8,11,4,24,-3,-6,-4
21210,-14,-31,4,-2,-14,-5,-2,-11
21215,12,19,-33,-1,3,4,4,11
21220,-4,-13,-3,6,2,-1,-4,-7
21225,-7,-2,6,-5,0,0,-1,-1
21230,7,-18,-4,-3,7,0,1,1
21235,13,13,25,5,-18,-3,-4,8
21240,-7,-14,-12,-3,12,-3,-3,-11
21245,15,13,3,2,17,1,-3,2
21250,-4,-1,-15,-5,-9,3,1,9
21255,-19,-1,12,2,2,1,1,-13
21260,6,-4,1,4,-11,-6,-3,5
21265,0,-10,2,1,-1,1,3,4
21270,1,51,-14,9,14,-5,-6,-7
21275,-1,-23,0,-17,0,1,-5,1
21280,5,53,21,6,-15,-4,-2,-2
21285,2,-65,-10,-4,1,1,0,-5
21290,-20,-7,-8,-9,-13,0,2,1
21295,19,27,6,8,10,2,3,12
21300,-12,-47,3,4,30,6,2,-6
21305,23,77,10,3,-33,-3,1,1
21310,3,-47,-2,3,23,-7,-9,-13
21315,0,-8,-11,-13,-37,3,-2,3
21320,-19,-27,0,-1,29,4,0,4
21325,-14,5,29,2,6,-3,-1,-19
21330,-2,38,-1,2,-4,4,2,0
21335,-6,-14,6,5,2,-5,-2,-4
21340,14,15,-7,3,9,-1,-1,9
21345,3,-46,-4,-9,-29,-3,1,10
