time,emg1,emg2,emg3,emg4,emg5,emg6,emg7,emg8,hand,pose,orientation,testPerson
0,-4,11,-10,0,-10,-5,0,7,1,1,100,BueBaby!
5,-7,-6,-3,2,-21,-5,-1,2
10,-8,-2,2,3,4,-4,-3,-8
15,0,23,7,-4,41,8,6,12
20,-3,-20,-1,2,-7,3,-5,-13
25,3,-15,-14,0,-17,0,1,9
30,-11,3,-4,5,14,-4,-1,-4
35,15,57,23,-1,-24,4,4,11
40,-38,-19,-20,-5,9,7,3,9
45,49,20,9,7,14,-7,-5,-22
50,0,7,1,-6,-26,3,1,10
55,6,7,-1,4,9,5,-2,-5
60,-15,-33,4,-2,2,-6,-5,-15
65,-8,15,-1,-8,-1,0,-1,1
70,5,-28,9,6,-6,-3,1,0
75,-9,-1,-8,-4,7,-6,-5,-6
80,14,1,13,-5,-14,4,5,9
85,-6,-11,2,0,15,-3,-3,-4
90,14,17,5,11,-29,-4,-2,6
95,-9,-29,-6,-28,20,12,4,9
100,-21,-4,-10,11,-6,-10,-6,-16
105,32,-8,8,-2,14,10,3,4
110,-9,9,4,-2,4,-1,0,3
115,6,-14,-11,6,-11,-7,-1,5
120,5,-33,-6,2,-11,5,4,-3
125,-24,32,7,2,-1,-3,-4,-10
130,7,-46,-16,-6,14,0,-4,-1
135,3,2,-1,7,-29,-7,-3,-4
140,15,20,11,-13,16,0,0,7
145,-24,10,15,7,1,3,0,1
150,11,16,-18,-3,-2,0,-2,8
155,-11,23,3,-5,11,-2,1,-6
160,33,8,8,1,-2,-2,0,6
165,-5,-4,-2,11,-24,-11,-4,0
170,3,31,8,-6,5,7,2,-6
175,1,-40,-16,-10,-1,6,3,18
180,-20,-4,-1,4,-17,-2,-1,-21
185,9,29,11,-2,5,-2,-6,-10
190,-6,-36,2,1,-14,-5,2,5
195,1,43,-21,5,28,5,0,-2
200,-8,-47,0,-5,-14,-3,-2,10
205,-21,-59,-12,-7,-10,1,0,-1
210,26,8,16,4,36,0,-4,-13
215,8,15,5,3,-30,-6,1,5
220,-15,-38,-17,-4,29,1,-4,-6
225,5,16,-9,-3,8,-5,4,13
230,-9,-12,-6,-9,-10,3,-6,-4
235,7,-18,16,1,2,-5,-3,-14
240,-25,9,-7,10,-10,-3,-3,-8
245,5,-33,1,-10,8,0,-5,-13
250,-24,-22,-4,1,-10,-2,4,19
255,33,13,2,-2,-15,-2,-8,-16
260,2,56,13,1,4,2,2,-5
265,-5,-22,-7,3,0,-1,-1,-4
270,-7,-29,-9,6,-78,-17,-2,8
275,-1,9,7,-12,86,31,6,2
280,-20,-34,0,-2,3,-6,-5,-5
285,30,8,-1,-7,4,2,0,4
290,-19,58,-1,16,1,-6,-5,-13
295,-19,-3,-9,-11,-36,7,2,3
300,28,3,10,0,-13,-6,0,0
305,-23,42,10,-6,35,-2,-4,-21
310,5,-41,-3,7,49,7,0,-3
315,3,21,6,1,-42,-13,3,19
320,2,-3,-18,-4,27,1,0,-1
325,6,-29,-4,6,-26,-2,1,12
330,11,38,-3,-8,-6,4,-2,-10
335,-28,-32,4,6,12,-3,-4,-4
340,-6,24,1,-1,-21,0,2,1
345,19,-47,0,6,-3,-1,2,14
350,-1,30,-4,-3,-4,3,-1,6
355,5,-66,9,9,-5,2,1,-8
360,4,3,-27,-7,-1,4,0,5
365,-19,15,2,-7,5,9,3,5
370,6,11,6,3,-4,2,4,7
375,-5,-22,-16,-1,-24,-18,-12,-16
380,7,13,19,5,21,-2,0,10
385,-8,-1,-6,1,20,3,1,2
390,-5,4,9,-15,-13,11,2,-9
395,-1,15,10,7,-11,-10,-3,0
400,25,-7,-5,-2,-23,2,3,0
405,4,26,-1,6,12,9,3,4
410,-18,-44,-6,-2,40,-6,-3,-12
415,10,-2,-11,-5,14,-1,-2,3
420,-10,-14,17,-3,-30,-1,-3,6
425,8,14,11,3,-41,-6,-5,-9
430,-4,-19,-26,-7,19,-2,-2,-1
435,-4,26,-3,-1,-9,-1,0,5
440,-7,28,13,6,12,-7,-3,2
445,-12,51,4,-4,-19,2,4,5
450,25,-48,0,-4,-9,-2,-5,-15
455,-19,-18,-16,-3,10,-6,-1,4
460,4,24,14,4,7,-2,4,5
465,-19,-38,6,2,-30,-7,-2,-5
470,12,41,-7,-1,5,-1,-3,7
475,9,-26,3,-3,34,8,2,0
480,4,-4,-6,-1,3,8,2,-4
485,-2,49,5,5,3,-6,-2,0
490,-4,-74,-8,-7,2,-8,-1,12
495,0,41,13,5,-38,-1,2,-5
500,1,-37,-12,-7,54,9,-7,-19
505,18,33,0,-2,-17,-1,1,6
510,-8,-3,7,3,26,0,-2,-7
515,-2,28,10,-1,-17,-8,0,6
520,-26,-13,-10,1,15,-7,-4,-3
525,30,-15,-10,-3,23,2,-2,-3
530,-12,44,17,3,-8,-4,0,4
535,8,-46,-10,6,-31,-7,-3,0
540,-23,4,1,-16,-6,2,7,16
545,16,3,-4,-11,-22,-6,-2,-17
550,15,12,7,11,25,4,-1,0
555,-12,10,-1,-9,11,2,-3,-3
560,17,-20,12,2,-66,-13,0,8
565,-32,-3,1,0,56,6,-3,-9
570,6,11,-2,-4,-18,0,-2,-1
575,16,-32,-10,5,3,-3,0,0
580,3,-13,-9,-2,-5,-1,-5,-4
585,2,25,-6,-6,10,-3,1,7
590,-16,10,6,3,-16,-2,3,9
595,-1,-13,-1,-2,14,4,-1,-1
600,33,57,-4,3,-16,-9,-10,-23
605,-11,-24,8,2,-9,-2,0,0
610,-21,-66,-27,-13,-39,-2,-4,-20
615,-1,23,-2,-1,31,6,0,7
620,3,-14,3,-4,3,-2,3,12
625,-6,25,-3,4,10,4,1,-13
630,10,29,-7,8,-9,-8,-1,7
635,-25,-14,-7,-9,-22,-5,1,8
640,11,6,11,1,45,2,-10,-22
645,-8,12,-1,9,-2,-1,2,10
650,1,-19,-9,-17,-3,3,3,-1
655,-3,-21,-1,5,-7,-5,-5,-9
660,-20,8,-10,-8,3,0,5,4
665,-1,-19,11,7,0,-2,0,12
670,-18,-1,7,0,-23,-5,-2,-8
675,39,26,7,-5,26,1,-2,-11
680,-6,-64,-28,7,-10,11,2,0
685,-6,-33,-2,-10,12,4,-6,-11
690,0,12,13,6,-5,2,2,4
695,-9,8,3,1,-24,-11,-3,7
700,-27,12,-7,3,10,9,5,14
705,27,-18,-20,-15,-6,-1,-1,-14
710,7,14,6,8,-6,-4,-3,-4
715,-9,9,17,2,32,5,2,-9
720,-4,11,4,-2,-19,-10,2,11
725,-7,-30,-37,-2,-11,2,-6,-6
730,-35,-8,-7,-1,6,-4,0,-1
735,37,17,7,-7,-22,-5,-1,-3
740,-14,5,6,3,14,10,0,-10
745,8,-18,0,3,-5,-6,2,14
750,12,51,4,-3,15,4,0,-2
755,-18,-14,-22,5,-48,-4,-2,-2
760,11,-2,-5,-11,55,1,-5,-3
765,2,13,10,4,18,3,1,3
770,13,-2,12,-1,-2,1,-1,4
775,-23,-20,-25,-1,-4,3,3,-3
780,5,22,-2,1,-29,-5,-3,-4
785,-2,-2,5,5,-3,-2,-2,-4
790,2,-4,-8,-2,0,-8,-3,4
795,-4,39,13,4,46,6,2,-2
800,2,15,-8,0,-3,1,3,0
805,-7,10,-5,-2,-22,-1,0,3
810,5,10,10,2,-8,-4,-1,5
815,-2,28,-14,-10,4,-2,-2,11
820,-10,-30,5,3,-3,-3,0,-21
825,3,8,24,-5,-28,-4,2,19
830,13,6,7,5,51,16,-1,-19
835,8,3,5,3,-29,-1,-2,-4
840,5,20,4,10,10,-7,0,15
845,-17,-53,-10,-27,-37,1,-1,-1
850,-18,-35,-5,2,4,-6,-1,-3
855,12,-16,5,-4,29,3,0,3
860,-3,-4,3,5,-28,-5,-5,0
865,8,27,-7,-2,6,-6,-4,-8
870,3,38,12,-3,-29,1,2,8
875,-4,-19,-7,3,27,-2,2,-3
880,10,18,-5,2,8,0,-2,2
885,-46,-34,-21,1,20,4,-4,-12
890,39,12,7,-2,-7,2,4,16
895,-8,-53,2,7,-36,-11,-3,-12
900,3,-4,6,-16,0,2,3,-4
905,-1,28,2,13,4,4,2,7
910,-11,-9,-5,-8,20,5,1,-3
915,-14,-30,-12,2,-10,-11,-8,-6
920,21,41,-1,-4,-29,-3,-1,4
925,-10,2,7,6,24,10,4,0
930,-5,-30,6,7,7,6,4,8
935,13,41,1,3,1,-4,-3,0
940,6,-33,1,-12,-36,7,-2,-14
945,12,28,-2,2,20,-3,-3,-6
950,-18,-51,-26,-6,-7,-11,0,2
955,-16,-2,-1,-1,26,6,1,8
960,3,-54,11,7,-4,-5,-2,7
965,19,-7,0,-4,-23,-8,-2,0
970,-12,52,9,-10,31,8,-3,-20
975,1,-5,0,0,-4,10,6,4
980,-13,-39,-12,-1,0,-8,-5,-5
985,-6,1,-1,0,-2,-7,5,14
990,-10,4,6,2,-12,-12,-3,6
995,19,48,14,0,4,8,-1,-22
1000,7,-61,-15,-5,8,4,-1,12
1005,-15,-1,-10,1,2,-7,-7,-24
1010,-2,2,5,0,-23,4,1,-4
1015,-12,-33,-13,-2,13,-2,-2,-2
1020,-4,65,2,0,8,-8,0,1
1025,7,-26,-2,-7,-31,-4,3,9
1030,12,-7,-9,0,23,4,-1,0
1035,-3,-37,-1,0,-16,2,1,4
1040,4,32,-10,-4,2,-1,4,3
1045,-15,-22,-23,-2,23,0,-10,-29
1050,8,34,3,6,4,-3,-5,-6
1055,-9,-26,3,3,-13,-1,-3,5
1060,-6,55,-3,-6,-4,1,1,15
1065,6,-32,6,1,-3,-2,0,18
1070,8,-13,-10,5,-7,-4,-1,-28
1075,10,11,18,-15,14,4,-1,-2
1080,-18,-2,10,6,-9,5,2,6
1085,6,-31,9,7,-1,0,-1,0
1090,-15,-17,-7,-5,7,-5,-1,11
1095,-1,4,-1,-5,-5,6,6,-3
1100,6,13,-1,-5,-6,1,-3,-12
1105,-15,22,21,0,31,5,7,14
1110,20,-5,1,1,-18,-3,-9,-14
1115,-11,4,-10,4,-6,-3,-2,4
1120,8,-5,-2,-4,0,0,-3,-10
1125,6,10,-4,5,14,-3,-1,-4
1130,-24,6,-2,4,-35,-8,0,1
1135,23,51,-6,-14,8,6,-2,5
1140,-21,1,9,1,11,-1,-3,-6
1145,16,15,-14,-6,-19,-11,-8,-10
1150,-2,-8,-2,-10,-1,6,2,-1
1155,-8,-13,-2,3,-12,-11,-3,1
1160,-5,8,2,6,-2,-2,-1,-2
1165,-13,-20,7,1,3,1,-2,-6
1170,17,-26,-11,-8,20,2,3,19
1175,-17,-2,22,6,20,-5,-4,-16
1180,-5,-15,-21,2,-1,2,1,-13
1185,25,30,15,3,-3,2,-1,7
1190,-8,6,-6,-4,-8,-4,-2,0
1195,-4,5,5,2,-26,-5,-2,8
1200,-10,-25,0,1,40,2,3,3
1205,-9,22,2,3,-10,0,0,0
1210,13,-69,-9,2,-21,6,7,2
1215,10,13,-3,-17,21,7,-4,-11
1220,-17,6,7,-1,-20,-9,-5,1
1225,18,9,-6,2,-7,-5,0,3
1230,-10,25,9,2,-8,-7,-4,-7
1235,-7,-54,-12,1,0,-3,1,1
1240,15,-20,11,2,-25,-1,-3,6
1245,-23,32,5,-6,29,-1,1,-2
1250,-11,-4,-8,0,-8,-4,0,3
1255,29,15,-13,-7,6,7,-1,1
1260,6,7,2,-1,-41,-6,-3,-1
1265,-2,-21,-2,10,13,-6,-4,-9
1270,-8,2,-2,-12,20,6,-1,-3
1275,-17,1,7,7,-24,-7,0,0
1280,7,13,-9,2,16,4,1,4
1285,-6,-54,-24,-9,-33,0,-1,2
1290,13,32,14,9,17,2,5,23
1295,4,-26,-9,2,-9,0,-4,-26
1300,2,-26,12,1,18,7,2,-1
1305,-9,16,5,8,15,2,-2,-4
1310,-2,-3,4,-14,-13,-2,-2,-8
1315,2,24,-6,-3,-25,-5,3,10
1320,-16,8,-4,-3,31,-4,-3,-12
1325,21,1,2,-6,-22,-4,-3,2
1330,-2,7,6,1,23,4,2,8
1335,-12,-13,-13,-1,10,-5,-3,-1
1340,1,0,-4,0,-14,-4,-4,-5
1345,-8,1,15,-10,-20,2,1,4
1350,16,9,-11,19,58,1,-6,-9
1355,-10,-5,3,-18,-9,8,-1,-10
1360,-8,-20,-3,3,5,2,2,10
1365,-1,26,5,2,-20,-6,-1,1
1370,-2,-13,-10,-13,-24,-9,-5,-7
1375,19,9,8,2,38,8,6,14
1380,4,20,1,-2,-3,-2,-1,-1
1385,-2,-16,-16,-2,-7,-2,-2,-7
1390,-11,26,8,1,-10,-3,-2,-2
1395,-14,-1,-4,3,-8,-4,1,8
1400,11,34,26,-6,-5,1,-2,-6
1405,-13,-16,-35,4,10,-3,-3,-5
1410,10,20,7,-3,-31,-1,-3,1
1415,-12,9,3,7,9,-7,-4,4
1420,11,8,-6,5,13,8,1,0
1425,8,3,16,-15,-29,0,-2,0
1430,-13,45,-2,5,-27,-8,-1,4
1435,-3,-22,-40,-6,30,1,-1,-11
1440,-20,-75,5,2,32,10,-5,-9
1445,19,65,7,1,9,-1,-1,0
1450,-4,-85,-22,-5,13,9,3,1
1455,3,36,4,10,-48,-18,-3,3
1460,-23,14,-18,-9,-15,-3,1,6
1465,21,-6,4,16,59,1,-1,-13
1470,-9,-17,-13,-20,-97,-2,-1,-4
1475,-3,32,22,6,71,5,-1,3
1480,9,-20,-26,-6,14,-5,-1,12
1485,-13,-36,9,0,1,12,2,5
1490,12,76,1,4,-7,-11,-5,-17
1495,-17,-30,14,6,-22,-3,-4,-5
1500,19,37,21,-2,-26,-4,1,4
1505,-13,8,-12,-16,-1,4,2,8
1510,-13,-27,6,14,32,-2,0,1
1515,16,12,10,-8,-28,1,0,6
1520,-5,13,-18,3,-23,-7,-3,-12
1525,-5,-42,4,8,53,5,1,-3
1530,1,-8,5,-6,-6,4,1,-9
1535,3,-11,5,-1,-1,1,-1,-9
1540,-2,-5,19,6,-15,-10,-2,5
1545,-2,39,2,-11,-24,3,2,1
1550,10,-17,-8,10,2,-4,-3,-3
1555,-6,-22,0,-6,3,18,4,1
1560,4,3,6,0,23,-1,0,-5
1565,0,11,-13,-5,-31,-4,0,0
1570,0,-3,9,10,13,-10,-4,11
1575,-5,36,-11,-8,25,5,1,0
1580,-12,-39,6,-7,-19,-3,-6,-10
1585,9,-7,-7,12,18,5,1,6
1590,-5,4,-1,-8,18,10,4,6
1595,23,-10,-3,6,-28,-8,-5,-13
1600,-8,63,2,3,18,-3,-2,-5
1605,-4,-12,15,-13,-35,-1,-3,-2
1610,-7,-22,0,2,30,2,-1,12
1615,-11,-22,-14,-3,-7,-1,2,-5
1620,18,8,-11,3,-6,-1,2,0
1625,2,40,4,-1,-20,-6,-3,-5
1630,-6,3,-3,-3,-10,-4,-1,-1
1635,-13,11,6,5,10,-7,-4,6
1640,3,-10,-5,-15,-10,3,3,2
1645,3,4,5,12,12,-2,-1,-1
1650,-3,20,15,-8,9,7,-2,-14
1655,0,-15,-14,-1,0,-5,-4,-2
1660,1,-13,1,-1,-23,-2,1,7
1665,-5,-9,5,-6,22,-6,-2,-2
1670,-6,21,-3,9,-7,6,3,0
1675,11,4,16,4,-15,-1,4,9
1680,20,6,-6,-5,7,1,-1,-3
1685,-6,-29,-7,2,-10,-7,-1,-6
1690,-9,-41,-5,-2,9,-2,0,-6
1695,3,27,8,-3,-1,-2,-1,2
1700,-3,-29,-19,14,-30,-5,1,17
1705,-8,-22,-13,-23,35,8,0,-6
1710,13,17,2,-2,-4,6,-4,-11
1715,-11,-12,-7,3,-8,-2,-1,4
1720,1,-23,12,-1,0,-2,-5,-12
1725,-6,6,-6,3,-21,-5,-1,4
1730,4,-8,-1,1,15,0,2,7
1735,-11,-16,9,-5,-16,-6,-1,2
1740,-3,-27,-3,-8,1,-2,2,4
1745,-11,16,-14,-2,-3,1,-12,-39
1750,16,39,-10,-5,-2,-8,-2,5
1755,6,-26,1,7,0,4,1,-6
1760,-14,-17,0,0,-1,-8,-6,-6
1765,-1,-8,3,-3,1,1,2,13
1770,-11,-23,-3,18,-26,-23,-3,0
1775,6,12,0,-23,19,36,8,-1
1780,-5,7,-19,-6,1,1,-3,-11
1785,-2,-4,0,2,3,-2,6,6
1790,-4,43,22,1,-23,0,-5,-2
1795,4,-48,-25,2,12,-15,-1,7
1800,11,13,1,0,19,4,2,8
1805,-6,5,10,2,-29,-3,-4,-12
1810,10,-10,-7,-4,7,-3,-1,2
1815,-10,31,11,3,-11,-9,-4,-2
1820,-25,-5,-9,-4,4,2,6,13
1825,36,65,14,10,23,1,-2,-1
1830,-4,-42,-8,0,25,14,2,-11
1835,0,-17,15,-8,-12,-4,-8,0
1840,-4,12,2,7,-25,-11,-5,-10
1845,-6,10,10,-3,-13,-2,2,19
1850,-10,-19,-12,-5,22,4,1,0
1855,9,14,4,6,-18,-6,-2,-4
1860,-3,8,0,1,13,5,1,0
1865,-2,-11,-4,-1,6,2,1,4
1870,5,0,4,-6,-1,-2,-2,2
1875,-13,-11,-6,2,-1,-3,-1,-1
1880,-12,-5,15,11,-44,-12,-5,1
1885,21,49,-25,-16,93,19,5,-1
1890,19,-20,10,7,6,14,-9,-23
1895,2,-21,3,0,-10,-11,-1,11
1900,4,-13,-45,-3,-26,-1,-2,-11
1905,-21,-7,16,3,-12,4,1,9
1910,-11,5,-2,-2,-1,-12,2,4
1915,4,85,6,0,51,19,3,-7
1920,-4,-14,4,-5,-15,0,-2,-3
1925,-1,-40,1,6,-18,-15,-5,8
1930,5,-9,-7,-9,-29,-7,-4,-7
1935,13,4,14,0,6,0,0,-3
1940,-16,10,-8,-4,20,3,0,-12
1945,14,-7,-3,-1,-17,-2,0,2
1950,-9,10,5,0,-13,-2,0,8
1955,-11,-20,-9,4,-8,-14,-6,-3
1960,8,18,12,-8,22,9,4,1
1965,-8,-32,5,4,-4,0,-1,-5
1970,-5,17,-3,-3,5,3,3,5
1975,3,-4,-7,-4,-42,-10,0,1
1980,3,11,2,-2,26,-4,-6,0
1985,-5,-17,-15,7,35,10,-1,-15
1990,-4,-19,8,-6,-18,-8,0,5
1995,9,2,-11,-4,2,2,3,-10
2000,0,8,-4,0,-29,1,1,8
2005,2,21,-3,9,4,-13,-4,6
2010,11,-14,3,-5,9,8,2,-8
2015,-13,-12,0,3,21,-1,-1,-3
2020,4,-6,24,1,0,2,-2,-2
2025,-3,-33,-9,0,-23,-2,2,11
2030,-11,25,-3,-5,-2,1,-2,-6
2035,-2,-17,-10,4,3,-8,-6,-8
2040,-1,-27,-15,-5,16,4,0,-3
2045,1,37,3,-4,4,6,3,4
2050,-2,-23,5,6,1,-4,-1,1
2055,-1,12,9,5,-30,-4,0,4
2060,15,30,2,2,32,9,4,5
2065,-12,-26,-17,-10,-28,-4,-5,-13
2070,5,-4,-29,-3,-11,-9,-5,6
2075,-8,22,19,-1,-1,1,-1,-9
2080,-11,-20,1,1,19,3,-1,7
2085,17,14,26,-1,-32,-3,-2,-12
2090,10,2,5,0,15,-3,-2,2
2095,-4,-26,-9,2,3,-6,0,9
2100,8,25,-2,-10,-8,11,0,-5
2105,-21,-69,7,0,8,-7,-2,0
2110,-1,14,-23,-2,-21,-12,-2,9
2115,-4,-27,-4,-1,10,9,6,7
2120,2,18,14,0,8,0,-1,-14
2125,0,22,9,1,-34,-4,0,3
2130,-5,-13,-5,3,20,0,-3,-7
2135,-1,-7,-10,-5,-20,-1,0,8
2140,1,-8,-15,4,30,-1,2,10
2145,1,48,7,-5,-26,2,4,3
2150,5,-37,12,1,35,9,0,-6
2155,-3,28,-4,-1,-9,0,-5,-3
2160,-7,-13,15,6,-16,-11,-3,-1
2165,-8,-25,-26,-6,12,-4,-5,-8
2170,11,12,-7,1,-15,7,7,8
2175,4,6,6,-1,43,-3,-6,-5
2180,-4,53,10,-1,-32,1,-1,-4
2185,-2,-52,-8,-2,-2,-5,1,16
2190,-19,31,9,3,2,4,0,-8
2195,8,-63,-15,-7,-20,0,-1,-5
2200,6,-8,0,5,5,-15,-5,0
2205,2,44,18,-16,-6,9,2,3
2210,-11,1,1,-5,7,0,4,18
2215,-6,16,-11,-2,-12,-5,-4,-14
2220,4,-17,4,8,16,-2,-6,-23
2225,-6,-13,4,1,2,-1,-2,0
2230,17,46,14,0,-9,-2,-2,2
2235,-2,-8,-33,-10,-8,0,2,14
2240,1,31,15,2,-9,0,3,13
2245,-10,-70,3,14,-3,-11,-7,-17
2250,-9,24,2,-10,35,11,1,3
2255,10,43,22,-2,-2,6,3,0
2260,4,-29,-8,-6,-4,-2,-4,-1
2265,3,-1,-7,3,0,-1,2,2
2270,-3,-16,-27,0,-22,-10,-2,1
2275,-4,11,18,8,-2,-2,3,3
2280,-1,-46,-12,-11,22,11,3,3
2285,-17,38,-8,5,-1,-3,-4,-17
2290,16,-25,1,-7,-29,-7,-2,-2
2295,-14,2,12,1,43,5,-2,-12
2300,10,49,-6,-12,-23,1,4,11
2305,-1,-67,-30,-1,-21,-7,-1,4
2310,-10,13,13,1,1,-2,-3,-6
2315,5,37,0,7,-12,-3,0,2
2320,-8,-58,2,0,3,-12,-6,-1
2325,11,38,-13,-19,31,12,1,-5
2330,-8,-35,-5,8,-37,-6,-2,-11
2335,2,-12,-6,-8,9,-1,-4,-6
2340,-23,29,2,14,-2,-5,0,23
2345,42,10,15,-8,1,-1,-2,-16
2350,-7,19,-5,-7,6,3,1,-3
2355,-7,-2,2,8,13,-4,-2,-3
2360,-7,-55,11,5,-1,8,5,4
2365,0,54,-12,-3,-18,-4,-1,14
2370,6,23,13,4,24,0,-1,1
2375,-5,-40,-17,-1,-25,-2,-1,-13
2380,5,13,1,-1,1,-5,0,-5
2385,-5,43,12,4,6,8,1,6
2390,-11,-44,-8,-6,12,-4,-4,-5
2395,5,25,2,-1,-20,-1,2,22
2400,-6,18,10,2,4,6,-2,-24
2405,16,1,-17,0,-9,-3,-1,-7
2410,1,-15,17,5,11,6,1,0
2415,2,10,5,6,-6,0,1,9
2420,6,18,8,-23,4,9,-3,-3
2425,-26,-29,-22,1,8,-2,3,0
2430,6,16,2,0,-16,-9,-3,-7
2435,0,27,-2,-5,-23,-3,-2,-1
2440,-8,-19,7,5,-9,-12,-2,4
2445,11,20,-5,3,15,8,-1,-10
2450,-2,8,-14,-1,7,1,1,8
2455,-11,-37,4,-3,1,-6,-5,-5
2460,19,17,-15,4,-33,-5,-1,5
2465,-14,-19,0,-6,7,-6,-6,-10
2470,-12,-1,5,-4,6,7,4,4
2475,-6,19,0,-4,-18,-2,0,0
2480,23,5,-44,-10,-40,-12,-7,6
2485,2,27,2,17,84,21,2,-10
2490,-1,-8,11,1,-7,-2,0,1
2495,-4,17,-7,-6,3,-1,0,-1
2500,-10,-16,6,11,-3,-5,-1,5
2505,-5,20,17,-11,-28,-6,0,9
2510,9,-21,9,0,-15,-5,-2,0
2515,-35,-24,-8,7,48,-10,-3,-5
2520,24,32,11,-19,11,24,7,-7
2525,0,-94,3,-1,-7,1,-2,5
2530,-16,6,-4,0,14,-2,-1,-6
2535,16,-13,-7,3,-38,-8,-7,-11
2540,-12,7,-5,-1,-9,-6,-1,-9
2545,-4,15,12,6,26,-1,1,7
2550,3,0,-6,-10,-43,0,2,9
2555,1,-4,-2,8,28,-6,-4,-5
2560,4,18,1,-3,10,25,8,1
2565,-13,-41,18,-3,-39,-8,2,18
2570,19,19,-60,-2,14,-10,-8,-24
2575,11,4,17,14,5,5,2,-2
2580,6,-12,0,-18,-11,-6,-6,-8
2585,-14,6,-1,8,-4,-13,-3,7
2590,-5,9,8,7,4,5,2,7
2595,5,6,-5,-24,-26,3,2,0
2600,-16,-33,-7,11,42,9,3,5
2605,8,29,7,-1,-36,-11,-5,-5
2610,-2,15,9,0,-2,-7,-4,3
2615,7,7,-9,-4,-1,-5,-4,-8
2620,-10,-4,31,10,-8,1,2,8
2625,4,15,-37,-5,27,3,1,-2
2630,9,-62,19,3,-32,-6,-1,1
2635,-15,-2,-4,4,63,11,4,11
2640,3,3,-4,-14,-22,-2,-1,-16
2645,10,19,26,8,5,-6,-2,7
2650,-4,1,-15,-14,-11,6,2,-7
2655,-1,-8,0,1,2,0,-2,-2
2660,-8,-3,-7,5,26,-10,-6,-4
2665,-8,-35,-5,-12,-23,0,0,-2
2670,3,-20,22,10,9,-13,-4,3
2675,-8,25,-11,-13,-24,10,4,2
2680,4,16,4,10,50,0,-3,-7
2685,-9,-14,-37,-8,-21,-1,1,-4
2690,-9,15,10,0,-4,-2,-6,-6
2695,19,6,11,2,-12,-2,2,3
2700,-4,-48,-22,-6,-8,-10,-6,1
2705,0,2,-3,-8,-18,6,8,19
2710,-3,34,10,2,17,2,-3,-22
2715,-10,-19,-10,1,10,2,-1,-5
2720,-5,8,-7,1,-18,-4,2,6
2725,21,-6,7,-2,9,-2,-4,-4
2730,-4,-1,-9,-5,-5,3,5,14
2735,-6,15,12,1,3,1,-4,-20
2740,11,-20,1,6,-35,-12,-3,-4
2745,-15,-18,4,6,-13,2,-2,-5
2750,-13,-21,-22,-4,44,10,4,6
2755,21,16,-6,-12,-10,-2,3,8
2760,-3,-26,-3,2,5,5,-1,0
2765,-3,19,3,0,-18,7,1,-5
2770,8,10,7,5,40,2,0,9
2775,-19,-43,-13,0,-12,-5,-4,-11
2780,-2,10,5,-6,-23,-6,-2,-1
2785,8,14,2,4,11,-4,-3,2
2790,-12,-6,-5,-2,13,1,0,-2
2795,10,16,12,4,-21,-3,0,7
2800,4,17,2,-15,27,1,0,0
2805,-14,39,18,8,-14,-7,-4,-7
2810,11,-27,-33,-13,14,0,1,-3
2815,1,-17,15,-4,-6,4,0,1
2820,8,36,5,2,-17,-10,-5,1
2825,-10,-19,-13,2,-3,-6,-2,-4
2830,-14,-4,11,-2,-20,-1,-3,-6
2835,7,-2,-5,-1,23,2,1,2
2840,-19,0,-8,-1,2,-2,-4,-2
2845,16,-3,10,-1,4,-4,-2,-2
2850,11,32,4,8,-2,7,2,20
2855,-10,-21,-6,-7,-12,-3,-6,-31
2860,-1,23,-6,9,11,0,-3,-3
2865,-8,-42,-9,-4,0,1,1,-6
2870,-3,-49,3,-4,-27,-5,-6,-16
2875,-10,8,1,-2,21,-1,0,11
2880,-10,-27,0,4,8,-4,2,3
2885,23,35,12,1,-11,-7,-4,-9
2890,3,5,-18,-3,27,11,7,13
2895,0,-8,4,-2,-16,0,-4,3
2900,-9,3,-2,1,25,-5,-1,-4
2905,-5,-5,9,-4,-23,1,2,5
2910,-1,16,9,4,-5,-8,-7,-8
2915,-6,11,2,0,-4,2,1,4
2920,11,2,-1,-1,-3,2,1,3
2925,9,39,13,2,-25,-11,-2,10
2930,-24,-81,-23,-17,15,8,3,3
2935,16,12,-3,7,46,5,-1,-8
2940,13,32,8,-13,-1,-2,-8,-8
2945,-7,-67,-37,-6,10,12,3,-4
2950,-1,-4,20,8,-35,-16,-3,1
2955,-6,4,2,2,-14,-2,4,12
2960,-6,-38,-4,0,3,1,1,-1
2965,-7,42,2,3,14,1,-2,3
2970,8,30,13,-2,2,-5,2,7
2975,12,-67,-28,7,-7,-11,-7,-8
2980,-4,0,14,-9,-5,18,5,-3
2985,2,57,-7,0,14,7,-3,-18
2990,-2,17,-4,8,-13,-6,-1,-1
2995,-4,24,8,-6,4,3,2,4
3000,-11,-13,7,4,-19,-9,-1,14
3005,3,-27,-17,-3,2,-2,0,-7
3010,3,51,10,2,-19,-6,-3,-8
3015,4,1,4,-14,30,12,1,6
3020,2,7,-13,-3,-19,-3,-3,2
3025,-9,-3,16,7,18,-7,0,4
3030,6,21,-11,-3,-28,5,-3,-9
3035,-11,-9,8,4,-1,-7,-3,2
3040,-3,-10,-16,3,3,0,2,-8
3045,-8,-7,12,1,-23,-5,-1,-3
3050,21,7,11,-8,65,25,9,29
3055,12,-5,4,1,-25,-5,-7,-27
3060,-2,-15,-13,7,1,-5,-7,-14
3065,6,0,3,-9,-1,-2,0,7
3070,-14,1,-1,2,-11,-3,2,0
3075,-9,9,9,-5,-11,2,3,15
3080,7,40,-5,15,8,-3,0,2
3085,18,-42,3,-18,2,-3,-5,-4
3090,-11,-34,3,-1,-3,4,3,-11
3095,0,20,-7,-1,-26,3,1,-1
3100,-5,-21,14,5,17,-6,-3,6
3105,-31,47,5,4,8,5,1,2
3110,28,19,-9,9,-49,-15,-5,-16
3115,-3,-35,-6,-5,57,12,2,0
3120,-8,-4,-2,-6,-8,2,-5,-20
3125,-6,-10,-2,-11,2,2,1,5
3130,1,18,-12,11,8,-5,-5,0
3135,-12,-38,1,-12,-45,-9,1,4
3140,-1,18,4,-5,-10,6,3,10
3145,11,-36,-16,3,28,-2,-2,-7
3150,-21,18,20,0,-22,-7,-2,-10
3155,13,-1,-23,-3,12,5,1,6
3160,1,-10,0,-2,3,1,1,4
3165,-1,22,-9,5,-16,-2,-2,-7
3170,-6,13,0,1,6,-5,-3,2
3175,-47,6,5,1,-5,-4,1,5
3180,58,-12,-13,-4,-22,1,1,0
3185,-21,4,7,4,30,0,-5,-22
3190,4,-31,-11,-4,10,1,-3,-4
3195,0,37,8,4,-16,0,0,0
3200,-16,1,0,3,8,-10,-1,4
3205,6,-20,3,-7,-12,14,4,12
3210,-4,-1,-5,-8,-50,-2,-2,-3
3215,1,4,10,17,75,-1,-1,3
3220,-1,-33,-15,-14,-38,-11,-5,-12
3225,11,2,7,1,14,14,4,5
3230,-4,15,2,-2,27,-2,-5,-3
3235,5,-8,-20,-9,-22,-7,-1,0
3240,-6,9,4,3,15,-5,-1,1
3245,-8,22,16,-1,-2,-7,-5,-8
3250,1,-37,-7,-4,-15,-4,-2,0
3255,-11,20,27,11,-81,-25,-2,10
3260,21,32,-4,-23,94,38,7,-4
3265,3,-9,-26,-2,-10,-8,-2,-4
3270,-7,-48,-5,5,5,-9,-5,3
3275,5,4,7,-1,-16,2,-4,-11
3280,-18,7,6,1,-15,-4,-1,11
3285,-1,-26,-7,4,-11,-2,3,7
3290,0,13,13,-1,19,6,3,-5
3295,-3,-31,-8,-5,-3,-3,-1,4
3300,-9,-4,-8,-3,-24,-6,-1,-3
3305,19,-4,2,10,24,-4,-4,1
3310,3,14,-15,-14,1,12,3,-5
3315,3,-6,-14,-2,-8,-1,-1,-6
3320,-13,5,-11,5,-8,-8,-5,0
3325,-12,3,-6,3,-34,-11,-3,1
3330,-13,16,-1,-4,39,11,2,4
3335,26,-36,6,-2,-4,11,4,2
3340,-9,32,2,13,51,-12,-6,-8
3345,-5,-50,3,-3,1,13,6,10
3350,8,3,1,-9,-38,-8,-3,0
3355,6,69,-8,-3,20,5,1,-1
3360,-9,-53,6,4,-40,-13,-1,4
3365,0,-24,9,4,-14,-4,-6,-18
3370,4,-7,-2,9,57,11,4,6
3375,5,13,8,-7,-22,-4,-5,-18
3380,-14,16,-24,-1,-2,7,1,8
3385,28,32,13,-1,-1,-5,2,7
3390,-12,-18,-9,-4,-45,-12,-6,-1
3395,-4,2,-4,1,46,0,0,5
3400,20,38,10,3,-25,1,-3,-10
3405,-31,7,-20,-13,8,1,-2,-4
3410,24,30,5,6,-10,-15,-4,1
3415,-22,-3,3,5,-8,-10,-5,-10
3420,7,-1,11,-17,22,20,5,1
3425,3,35,-4,2,-7,-5,1,5
3430,-12,-47,9,2,12,-5,-4,-3
3435,-4,-2,-38,-1,-12,2,1,7
3440,3,-9,8,0,-28,-3,-3,-13
3445,0,3,-5,0,9,-2,-3,2
3450,5,21,2,-2,8,7,2,0
3455,-8,-19,-2,-2,5,-3,0,0
3460,8,-31,-5,-1,-18,0,2,4
3465,-2,-8,1,1,17,1,0,-6
3470,1,37,2,2,-7,0,0,-3
3475,5,-2,6,5,0,-7,-2,3
3480,-7,25,3,-9,-13,-6,-2,7
3485,6,21,12,-2,-2,7,1,9
3490,-10,-48,10,4,42,-5,-3,-15
3495,19,12,-28,-6,3,7,0,3
3500,6,0,7,-6,-29,-9,-4,-3
3505,-4,23,0,5,34,5,2,4
3510,-3,-15,7,-2,-30,4,1,-4
3515,-8,21,6,5,14,4,0,3
3520,-6,4,3,4,-3,-3,1,9
3525,11,-27,-24,-3,24,6,-3,-28
3530,-10,7,4,1,6,4,1,4
3535,7,4,-9,-8,-15,-5,-4,-6
3540,-9,-19,-2,15,18,4,2,1
3545,-9,29,12,3,-24,-4,2,5
3550,2,-24,-10,-11,-10,1,-2,0
3555,9,25,18,1,5,-3,0,7
3560,-12,-70,-3,-3,-11,-1,-3,-12
3565,-7,-15,-8,-4,-9,0,-1,0
3570,4,43,-5,7,12,0,2,1
3575,-1,9,10,-8,-22,0,0,4
3580,-8,12,17,9,-8,-10,-3,-1
3585,10,-50,-19,-14,-5,2,0,-1
3590,-8,26,-9,4,9,1,-2,-4
3595,-6,-11,3,3,6,0,-3,0
3600,11,18,-3,0,-1,-2,-1,-3
3605,-2,-12,-3,-4,-31,2,1,3
3610,-1,8,0,6,18,-8,-5,-1
3615,-11,-82,-6,-18,5,8,2,-8
3620,0,13,-6,-8,-22,-2,0,10
3625,-4,-3,4,-3,17,-5,-3,-2
3630,5,-18,-4,-1,-16,-8,0,4
3635,-5,10,2,5,-2,5,0,-4
3640,-2,-5,6,5,10,-3,0,0
3645,1,17,-11,-1,-4,-1,-2,0
3650,-14,7,10,-5,-8,0,-1,1
3655,10,-2,0,3,4,-7,-5,0
3660,1,-11,3,-5,35,9,1,-9
3665,-6,-29,-8,0,-17,-4,-2,1
3670,11,-19,-5,-4,11,-2,-2,5
3675,4,22,9,8,-45,-13,-2,5
3680,10,4,-6,-11,38,19,4,1
3685,-12,4,16,2,-8,-8,-1,-10
3690,10,37,-4,-12,-19,-1,-2,-4
3695,2,-58,-4,8,-1,-2,-2,-1
3700,-6,38,-5,2,-42,-11,-3,1
3705,-4,27,4,2,35,1,1,1
3710,2,-43,-17,-6,-18,1,0,3
3715,-9,37,-3,1,-25,-6,-2,1
3720,-23,-40,-20,-3,32,-4,-5,-10
3725,18,13,7,-7,16,11,8,5
3730,0,14,11,12,-8,-4,0,2
3735,11,8,2,-9,12,10,1,-5
3740,-12,-9,-3,12,2,-5,-3,0
3745,5,4,-14,-13,-25,-7,-3,11
3750,-9,-20,-8,3,37,9,-1,-12
3755,-8,17,11,-7,-18,-7,1,-8
3760,10,-20,-12,1,11,2,3,2
3765,-17,-19,-3,4,-3,-6,-3,-2
3770,3,36,12,-5,-15,-2,-2,3
3775,1,12,1,4,9,-3,-2,3
3780,3,32,8,8,14,-2,-5,-7
3785,0,-24,5,-1,9,28,7,3
3790,3,5,-10,1,0,-1,1,1
3795,-4,-35,-16,1,11,0,0,0
3800,-11,40,9,-5,-17,-2,-2,-3
3805,-1,-24,-10,6,-24,-16,-7,-10
3810,1,-2,8,4,-27,-5,0,11
3815,36,18,-6,-6,18,14,0,-14
3820,-9,-4,7,-12,23,5,0,4
3825,1,49,6,3,-4,-7,-3,-1
3830,-17,-26,-13,-3,-9,5,1,-2
3835,-13,-7,3,3,5,-6,-1,4
3840,19,19,1,0,-6,-2,2,11
3845,-10,-13,13,-3,6,1,1,-8
3850,-6,-9,8,-1,-8,-9,-5,-9
3855,-2,2,1,12,11,-6,-2,1
3860,2,-10,4,-14,11,26,7,-3
3865,1,8,-16,0,15,-5,-1,6
3870,6,-29,0,-5,-13,-3,2,5
3875,-12,0,11,0,1,-1,0,-7
3880,4,-9,-1,5,-31,-12,-5,-3
3885,0,-3,11,-2,-2,-9,-4,3
3890,6,-1,-1,2,6,8,1,-6
3895,-6,25,-6,-7,10,0,-2,2
3900,2,-7,-10,8,-4,-12,-3,-5
3905,-6,-5,7,-9,-26,-1,-2,-2
3910,2,13,-7,-2,28,4,1,4
3915,3,-8,4,-1,-1,4,1,5
3920,6,-6,-3,4,-10,-4,2,1
3925,2,-8,1,4,-4,-2,-3,0
3930,-20,-7,-4,-1,1,-1,-3,-5
3935,14,-2,1,5,8,-2,-3,-5
3940,0,-6,-4,-10,-19,3,3,7
3945,0,-8,-6,3,10,2,-1,-2
3950,0,30,4,-9,8,-1,-1,-8
3955,-7,-55,-6,-2,1,4,1,4
3960,5,1,4,-3,-8,-12,-9,-14
3965,-8,3,3,1,-2,1,0,2
3970,-7,26,3,14,-20,-11,-4,3
3975,13,-15,-5,-31,9,16,2,4
3980,-12,-29,-12,1,25,-4,-3,-7
3985,14,18,8,7,-6,0,0,1
3990,2,-9,-1,0,2,2,0,-1
3995,-10,19,0,0,5,-3,3,0
4000,-7,-9,3,-2,-18,0,-1,9
4005,-6,-21,-1,-3,-4,-1,0,-7
4010,16,-14,-14,3,-19,-20,-9,-12
4015,0,20,11,2,44,34,6,5
4020,-11,-36,1,-4,-8,-4,-3,-1
4025,-3,18,-12,-7,18,-5,-3,1
4030,1,1,-4,2,-5,1,-1,5
4035,-11,-17,-6,3,-24,-15,-5,-4
4040,-1,13,3,-1,7,4,-2,-3
4045,10,9,10,5,-8,-3,-3,-3
4050,11,-5,-10,-5,-10,-1,-2,-2
4055,-23,36,1,-8,13,-6,-4,-4
4060,17,-20,-3,-6,-4,3,1,-1
4065,-16,-5,-5,5,-14,-7,-2,-2
4070,7,-15,1,-7,15,3,8,11
4075,-4,7,-2,5,-14,-4,-4,3
4080,-13,3,-9,1,-7,-7,-4,-7
4085,11,-2,-1,0,-1,5,5,5
4090,-2,7,-6,3,-18,-5,-1,2
4095,3,-7,6,-10,15,4,-4,-9
4100,-5,22,16,6,12,3,-1,-2
4105,-1,3,-1,-2,-3,-1,-1,3
4110,3,3,-2,0,17,9,2,-1
4115,2,0,11,8,-22,-15,-1,2
4120,-1,-15,-7,-5,15,4,0,-7
4125,-13,5,0,-1,-10,-2,0,5
4130,-1,-3,10,1,-10,0,1,-2
4135,18,22,-9,-1,-22,-8,-7,-14
4140,6,6,3,14,36,-5,-2,9
4145,-3,-1,-5,-15,-21,1,3,-2
4150,-10,3,5,4,18,14,1,-6
4155,0,6,-5,-3,3,-2,1,0
4160,0,24,-5,2,-7,-1,0,4
4165,17,-13,-3,6,7,-4,-3,-1
4170,-13,20,-2,-9,-4,0,1,9
4175,6,-19,-8,0,-17,-6,-2,-11
4180,-16,7,-5,-4,-11,4,5,6
4185,-3,-56,-9,2,-6,-2,-4,-7
4190,10,3,9,-6,33,3,-2,-10
4195,-5,12,0,6,5,-6,2,15
4200,-7,-28,-2,0,-14,-5,-5,-10
4205,-31,21,0,-4,-13,2,0,-6
4210,16,-49,-1,9,20,-7,-2,-2
4215,0,14,-2,-5,-9,22,4,3
4220,4,4,-10,0,-13,-2,0,0
4225,-8,8,7,0,31,7,1,10
4230,12,3,-4,1,-8,-6,0,0
4235,-4,-7,-1,6,19,-3,-1,-8
4240,1,7,0,-3,-40,4,1,1
4245,10,9,6,4,18,0,0,0
4250,-29,5,5,-10,6,-3,-2,9
4255,15,-35,-18,1,-3,-1,-1,-2
4260,-9,7,7,-1,-12,-3,-4,-10
4265,7,-34,-6,0,28,-5,-5,-3
4270,-20,24,-4,-6,-7,4,0,-7
4275,21,-3,8,3,-12,-6,3,15
4280,-17,-3,4,-3,9,0,-1,7
4285,20,11,3,-1,0,-6,-5,-15
4290,10,-9,-14,2,-27,-4,-1,2
4295,-23,-10,-3,-8,5,3,-4,-14
4300,14,-17,-5,1,-2,-6,0,4
4305,1,10,-9,8,35,4,1,-1
4310,6,19,-2,-11,-31,5,2,3
4315,-8,14,13,9,5,-12,-4,-1
4320,3,-62,-20,-3,10,6,2,1
4325,-6,-6,14,-5,26,4,1,-6
4330,-9,-14,-5,-9,-20,-3,-3,-4
4335,7,3,8,2,-22,-9,0,4
4340,-5,28,13,4,34,2,1,-2
4345,-11,-9,-13,4,-21,-5,-3,5
4350,11,29,17,-4,-9,-7,-3,-8
4355,-8,20,-16,-2,22,7,1,-3
4360,15,-5,-2,-6,-4,-6,-5,-2
4365,-4,32,-4,-4,-31,-9,-1,-1
4370,-10,-50,1,3,4,-1,-5,-6
4375,-8,-20,13,-1,-3,6,1,3
4380,14,19,9,0,-17,-3,-2,-4
4385,-6,-26,-27,-1,11,3,1,0
4390,-9,-5,1,5,3,3,-3,-1
4395,-6,-4,0,-2,4,-8,-4,-8
4400,5,20,7,-1,0,1,2,12
4405,17,26,19,-3,-8,2,-2,-11
4410,8,27,-4,0,-25,-8,-1,9
4415,-13,-84,-10,2,24,4,3,-6
4420,14,-8,-8,2,-23,4,2,0
4425,-7,23,1,-11,-28,-9,-4,8
4430,-8,-9,-1,-1,57,8,1,-4
4435,7,13,5,4,-8,1,0,5
4440,-10,3,-9,-3,-2,-5,-1,-5
4445,-7,-10,-1,2,-18,-1,1,3
4450,5,-9,-3,-9,-18,-8,-5,-3
4455,-5,13,-1,-2,3,3,1,0
4460,-11,-35,-4,6,5,-6,-2,-3
4465,13,21,6,-8,1,5,-3,-25
4470,-3,7,-5,1,20,2,4,23
4475,-21,4,-4,-3,-5,-7,-9,-27
4480,-1,15,-8,0,-25,-5,-4,1
4485,27,-18,1,-2,34,3,2,8
4490,-7,-6,1,8,-14,-2,-3,-23
4495,2,13,-6,-1,-7,-6,-2,1
4500,-1,6,11,-9,26,6,4,22
4505,-20,-53,-11,-5,-4,-8,-2,-24
4510,2,-12,-6,3,2,-1,-4,-6
4515,-17,21,5,7,-18,-16,-4,10
4520,12,-5,-22,-2,8,5,3,-12
4525,-10,26,-9,-13,-1,11,8,29
4530,16,-36,5,4,-6,-7,-5,-7
4535,10,5,-13,-5,-22,0,-2,-6
4540,-8,-7,13,8,25,2,1,13
4545,-7,-3,-9,5,3,-1,-2,-11
4550,-8,22,-1,6,14,10,3,-3
4555,9,5,9,-5,-2,2,0,7
4560,-7,12,0,-1,-2,-5,-3,-7
4565,-14,-30,-8,4,-7,-2,-4,-3
4570,-8,15,7,-7,-6,-6,-3,-7
4575,16,3,6,-1,-12,0,6,5
4580,4,-2,2,5,-9,-3,-1,-3
4585,-15,27,4,-2,-3,-5,-2,7
4590,12,-2,11,-5,-9,4,6,-3
4595,9,-22,-29,-10,-4,1,-6,-8
4600,-6,22,13,1,0,2,0,-6
4605,3,1,-7,10,-7,-12,-4,5
4610,-5,-19,-12,5,-15,3,5,19
4615,25,17,3,-8,47,8,0,-7
4620,-9,-10,-21,-1,3,-4,-2,-14
4625,2,-5,10,-2,-12,-3,-1,0
4630,-2,27,2,-3,2,3,3,10
4635,-15,1,1,4,-16,-5,-1,7
4640,0,11,1,-1,-2,-3,-2,-11
4645,21,23,20,4,-3,-5,-4,6
4650,-7,-26,-32,-20,12,0,-4,-7
4655,-8,-1,-2,-7,-25,-3,-4,-11
4660,-3,3,2,-6,15,3,-1,0
4665,-10,9,3,3,-17,-3,1,2
4670,16,20,24,4,0,-11,0,9
4675,-8,-23,-23,2,4,1,-3,-3
4680,-4,-22,-1,-5,-7,1,6,18
4685,15,-5,-7,0,2,-6,-4,-20
4690,-18,14,1,8,34,10,-3,5
4695,11,-30,13,0,2,0,2,0
4700,-9,1,0,2,11,1,-1,-4
4705,6,9,1,0,-31,-5,-3,9
4710,3,11,-4,1,13,-1,1,-9
4715,0,17,0,4,2,-1,3,22
4720,-7,-9,12,-2,-26,-11,-3,-10
4725,8,-27,-35,-30,-20,9,-1,1
4730,-5,3,-6,3,40,5,-1,-6
4735,-4,-1,5,1,-43,-8,-2,0
4740,-1,27,4,-2,44,7,-1,4
4745,7,-3,-2,5,6,-5,2,1
4750,-4,-39,12,1,-17,-7,-3,-8
4755,-22,-18,-21,-2,-32,-5,-2,4
4760,50,44,0,8,38,4,-1,-4
4765,-16,-25,6,0,17,17,4,-8
4770,-3,1,3,1,-12,-6,-5,-4
4775,-1,22,13,-2,12,9,8,5
4780,-22,-28,-14,-2,-27,-7,-1,3
4785,12,20,15,7,24,0,2,7
4790,-13,7,-13,-1,-19,-1,-6,-15
4795,15,6,15,-1,12,-6,-4,0
4800,7,-11,-5,-7,-29,-9,-2,-3
4805,-8,-1,4,1,44,10,1,-2
4810,-16,-12,5,6,8,0,-1,2
4815,-5,8,0,-9,-16,3,2,-3
4820,-2,-4,-4,-6,6,-3,-3,-7
4825,-2,12,18,8,-19,-9,-2,5
4830,8,-50,-7,-7,-15,-3,0,1
4835,-19,-5,-18,12,9,-12,-4,0
4840,28,30,13,-17,37,24,2,-8
4845,-13,3,-5,-9,-26,-13,-6,-7
4850,7,27,4,3,14,6,4,4
4855,-4,-7,6,8,-19,-5,-3,1
4860,-16,-39,-18,-10,-4,9,0,-7
4865,-3,15,1,1,-7,-5,1,28
4870,4,-41,3,-5,-23,-5,-4,-43
4875,7,25,-8,3,-4,-6,-7,-10
4880,-10,-62,9,1,18,-5,-3,0
4885,-3,-1,-17,-5,18,18,5,1
4890,10,-2,2,-1,-21,-3,1,22
4895,7,21,8,1,11,1,-1,-9
4900,0,-3,-5,1,-26,-8,-4,-5
4905,-29,-12,10,6,-4,-1,2,5
4910,12,21,-13,-7,-7,-4,-1,9
4915,12,25,5,-2,30,4,6,10
4920,1,26,-1,1,-15,-3,-5,-8
4925,4,-16,-3,0,-6,-6,-5,-13
4930,-13,7,-2,4,3,-2,-3,1
4935,-4,-25,3,-5,0,7,4,2
4940,6,17,-1,4,-14,-4,3,11
4945,2,-5,2,3,-42,-7,-5,-6
4950,-5,37,7,-14,94,4,-3,13
4955,-31,-67,-33,-8,-36,4,3,-4
4960,41,35,20,8,11,-2,0,2
4965,9,13,7,-6,-8,5,1,-5
4970,-5,-15,-14,4,-25,-11,-6,1
4975,-2,26,16,0,14,1,0,6
4980,-23,-14,-3,0,-2,-3,-1,0
4985,-9,-7,0,5,-2,-11,-2,-5
4990,14,22,-3,-9,-30,3,7,7
4995,-2,-1,-1,-3,28,6,3,8
5000,-3,34,10,8,-9,-5,-2,-15
5005,16,-33,1,2,39,17,1,-3
5010,-27,-13,0,-3,-20,-2,0,0
5015,20,-5,-18,3,-1,-1,-5,-12
5020,-8,14,-1,-12,-6,-3,1,14
5025,8,16,8,4,-5,-2,0,-1
5030,3,0,10,1,13,5,2,-1
5035,-1,-1,4,0,-12,-8,-4,-7
5040,3,23,-16,-5,4,6,-2,6
5045,-1,-11,-6,2,1,-4,-1,-5
5050,-2,-10,-5,-6,-17,3,1,-2
5055,-11,21,11,9,-14,-6,-3,0
5060,-14,-47,-8,-16,3,-1,-1,-13
5065,-3,23,-3,2,-5,-1,-2,10
5070,1,-16,2,3,16,3,-1,-9
5075,14,-4,17,-5,0,7,2,0
5080,-2,28,-17,4,-21,-2,-1,1
5085,-17,-13,4,-5,33,-1,-1,2
5090,20,5,-18,-2,-46,-9,-3,1
5095,-13,-1,13,2,20,-8,-2,0
5100,-8,-31,-9,-2,-4,1,-2,-8
5105,17,26,-5,1,3,2,2,1
5110,-7,9,2,2,-19,0,-2,-5
5115,-5,-33,-17,0,14,-3,-5,1
5120,-4,-3,7,1,-17,-9,1,2
5125,-5,50,14,2,26,6,-4,-18
5130,3,-83,-12,0,11,0,1,3
5135,6,2,-10,-5,-9,-3,-4,-3
5140,-10,-1,5,5,-5,-4,1,9
5145,-7,-23,-4,-1,-26,-5,-1,5
5150,-3,40,15,-5,1,4,2,-5
5155,0,-12,11,4,30,7,2,2
5160,5,19,-11,-3,-15,-4,-4,-12
5165,11,-14,-17,-5,44,2,-2,-2
5170,-21,2,7,10,-10,-9,-4,7
5175,4,-3,9,-9,-13,0,-1,-14
5180,-3,1,7,-3,16,6,-1,1
5185,1,9,1,-2,-21,-5,0,1
5190,-5,-23,-10,6,4,-1,-1,3
5195,-2,29,2,-5,6,5,1,-3
5200,-5,-38,-5,-4,-3,-3,-4,-2
5205,-11,-12,-4,-4,-23,-3,2,3
5210,14,20,2,0,10,3,-2,8
5215,25,11,0,4,-5,-1,0,4
5220,-2,-16,12,5,-21,-6,0,-2
5225,1,-6,-2,0,17,-1,-3,0
5230,-7,11,15,2,3,1,1,-4
5235,-18,-25,-10,-5,4,2,1,11
5240,14,-3,-2,-1,-6,-2,-4,-12
5245,0,-1,0,1,-14,-5,-3,-2
5250,3,9,4,-2,-5,-1,1,-1
5255,-14,25,-12,-1,-9,-7,-6,-13
5260,3,-7,10,5,47,4,0,3
5265,-26,-14,-15,-5,-12,7,4,4
5270,26,16,-10,-10,-4,-2,-4,-5
5275,12,11,6,-1,-10,-4,-4,-8
5280,-17,9,-4,-1,-7,-3,-1,-2
5285,2,-5,1,-1,-2,-9,-3,-7
5290,-35,-1,-3,1,10,5,2,7
5295,30,-4,-13,-1,12,-3,-7,-8
5300,-1,8,-6,11,-4,-4,-4,0
5305,1,-2,-7,-20,1,4,-4,1
5310,-13,22,11,6,-16,-8,-3,-6
5315,-7,-51,-5,7,10,-4,4,-1
5320,-5,-8,-3,-12,26,18,4,0
5325,7,8,7,8,-18,-8,0,10
5330,11,8,-7,-7,-6,-7,-2,-7
5335,-5,17,15,10,2,5,1,-2
5340,6,10,0,-4,-25,-7,0,2
5345,1,-36,-11,-5,20,13,4,6
5350,1,27,0,-1,7,1,-1,-11
5355,-7,4,-8,-3,-8,-2,0,5
5360,2,-14,4,6,5,-2,5,10
5365,-4,3,4,2,6,-4,-8,-19
5370,21,-5,-1,-7,-16,-2,-2,0
5375,-5,8,2,-9,-8,4,2,-2
5380,-16,-5,-26,5,10,-8,-7,-5
5385,-2,-22,2,-10,-17,7,3,-5
5390,3,-31,-7,4,32,4,3,3
5395,-4,17,15,2,-5,-4,-2,4
5400,-2,-2,5,-6,-28,1,0,3
5405,-8,0,9,3,6,-5,-2,-2
5410,17,35,-10,-2,-7,-1,-2,2
5415,-11,-24,-2,-7,-6,-1,-1,-7
5420,-7,3,2,9,1,-6,-2,-1
5425,0,4,-8,-1,-11,2,-3,-7
5430,-7,-13,6,3,10,-4,0,1
5435,10,21,3,-8,5,6,0,6
5440,-13,-52,-25,-3,-9,-1,0,-2
5445,2,0,5,1,-11,-5,-4,-5
5450,-1,-4,0,5,-6,-9,-5,-7
5455,7,16,16,-2,4,6,4,-6
5460,-4,-23,-1,1,32,10,3,1
5465,-20,1,-5,2,-20,-9,0,1
5470,8,-10,3,2,-12,6,0,9
5475,-7,-8,-6,-9,-12,-2,-6,-3
5480,-2,16,17,-6,-9,-1,1,1
5485,16,29,-1,8,22,-1,-2,-5
5490,-12,-20,-10,5,-6,-5,-1,2
5495,-12,-10,-6,-4,2,5,1,6
5500,25,19,10,-6,1,8,-1,-12
5505,5,-17,-1,0,-3,-9,-3,6
5510,-15,47,0,6,10,3,1,-3
5515,6,-20,0,3,-19,-9,-3,-4
5520,5,2,-7,1,29,2,3,13
5525,-11,-9,-3,-4,-17,5,2,-2
5530,24,-8,4,-7,-2,-2,1,-5
5535,-15,-4,-4,3,17,-2,-4,-4
5540,-11,10,6,1,-25,-7,-1,4
5545,11,24,10,7,7,1,-1,-2
5550,5,-7,-16,-17,6,7,5,15
5555,-9,-9,-10,-11,-18,-7,-6,-11
5560,11,13,9,15,31,5,0,-4
5565,-7,3,1,-14,-23,-4,1,-2
5570,-16,-33,2,2,1,9,-1,-2
5575,9,4,3,9,12,-7,-3,3
5580,-10,19,-28,-1,-1,-7,-3,7
5585,-4,12,9,-6,-8,12,5,5
5590,21,16,-8,-2,-11,-7,-7,-16
5595,-5,-38,-7,1,8,0,-2,-7
5600,-7,-21,3,0,-11,-8,-7,-3
5605,1,12,-3,4,-12,-5,-2,2
5610,-16,-11,-3,-1,5,1,-1,3
5615,-1,16,0,10,-1,-1,2,15
5620,24,4,3,-15,8,18,6,3
5625,-9,-13,-13,0,7,-8,-5,-17
5630,-9,4,7,-4,-2,-6,-6,-8
5635,9,1,-13,7,-6,-5,1,5
5640,-9,1,7,-8,-12,-4,2,5
5645,29,23,1,6,12,2,0,1
5650,-22,-20,4,-12,7,-1,-3,-1
5655,12,-18,-6,-4,-3,-5,-3,0
5660,10,0,2,5,-10,-5,-2,-7
5665,1,6,1,2,0,-3,-2,-1
5670,-6,2,6,0,-25,-5,2,1
5675,1,9,-3,4,31,2,4,20
5680,-9,42,27,-8,-35,1,-5,-24
5685,2,-58,-24,2,37,14,1,-4
5690,8,2,0,6,5,-2,0,3
5695,-9,17,1,-6,2,2,-3,-2
5700,3,3,5,4,-5,-1,1,7
5705,3,-35,-4,-3,-6,-10,-3,2
5710,-41,3,2,-2,-5,3,-1,-9
5715,58,20,-18,5,-11,4,0,6
5720,-16,-19,6,2,41,-7,-1,0
5725,17,26,14,-3,-16,1,-1,4
5730,-13,-33,-10,-2,-14,-4,-5,1
5735,-12,28,15,0,-20,-12,-3,-7
5740,-4,-30,-18,-5,21,12,2,3
5745,1,15,0,2,4,5,2,7
5750,7,3,2,-1,3,-2,-2,-8
5755,-7,14,10,0,-7,1,-2,-7
5760,2,9,1,0,-29,-12,-4,7
5765,-36,-81,-32,-1,13,-2,-2,5
5770,55,27,29,-3,15,11,2,-14
5775,-9,5,-4,5,1,-1,-1,-8
5780,6,12,-5,-3,-8,4,5,8
5785,-15,17,11,-5,-13,-6,1,9
5790,-18,-12,-5,-5,14,-6,-7,-9
5795,-2,3,5,4,-6,1,2,-5
5800,-2,-31,-16,2,31,9,3,1
5805,9,28,13,-2,-7,-6,-2,-2
5810,-21,-10,-12,3,-5,-2,4,13
5815,-11,12,3,-13,-1,0,0,-4
5820,20,22,7,5,-9,-9,-8,-27
5825,-2,1,-1,-1,-3,4,1,3
5830,6,-13,-1,-1,1,2,-2,-2
5835,-15,-67,-28,0,-12,-1,4,17
5840,-10,44,16,6,9,4,0,1
5845,-3,-31,2,-1,3,4,-2,-10
5850,11,33,1,-6,-29,-7,-1,-1
5855,-11,-18,-6,-4,36,3,-4,-5
5860,4,-22,-9,6,-9,-1,-2,1
5865,1,33,7,2,-2,-1,2,3
5870,6,29,1,8,2,-1,6,20
5875,-1,-11,-15,-5,1,-4,-6,-10
5880,12,-16,0,-7,-21,-6,-4,-9
5885,-9,-10,-15,-8,22,-2,-5,-2
5890,8,22,-10,3,-18,-2,2,16
5895,-2,-1,6,-6,5,4,-1,-3
5900,3,-9,14,0,-8,-5,1,13
5905,-4,41,-11,1,-19,-5,-7,-11
5910,-10,-41,-9,6,20,0,-3,-17
5915,0,4,6,-11,-6,2,0,-2
5920,-8,-5,-9,-14,-12,-4,-2,-2
5925,7,-5,1,0,1,-3,-1,6
5930,-2,-11,-1,-6,-13,-2,-3,-7
5935,-17,15,3,4,-16,-5,1,1
5940,12,19,-1,0,7,-2,2,11
5945,22,35,9,3,31,4,-3,-21
5950,-7,-29,-7,-1,10,-3,-5,-7
5955,13,-1,-1,2,-8,3,1,6
5960,-18,-5,-6,0,-9,-1,1,4
5965,-4,9,7,-2,-19,-3,4,8
5970,16,-9,0,6,-10,-8,-2,4
5975,-25,18,12,0,32,13,-1,-15
5980,9,7,-5,-5,9,9,5,3
5985,-3,-18,2,4,1,1,0,4
5990,-5,2,3,-2,2,-1,-3,-6
5995,8,-1,1,10,-7,-9,1,10
6000,1,20,6,-11,-13,2,-2,-4
6005,-15,-61,-13,0,-49,-12,-2,-4
6010,19,11,-3,-5,65,12,0,-3
6015,-12,11,4,0,-6,-5,-2,-7
6020,-2,-7,9,7,1,-5,-2,0
6025,6,-1,-5,0,-4,-5,-2,1
6030,-17,-8,9,0,-33,-8,-3,4
6035,6,-19,10,-3,33,12,2,-3
6040,-3,-20,-7,-1,-1,-2,-2,-8
6045,-14,0,5,-8,-15,1,-1,-2
6050,8,18,-2,0,-2,-1,3,-4
6055,7,10,1,1,5,-1,-2,10
6060,-10,-20,3,5,-2,-5,-4,-11
6065,11,-4,4,0,10,0,-1,-11
6070,-5,17,1,-3,0,4,0,-2
6075,-13,-42,-15,-6,-13,-2,-2,1
6080,-1,-4,-4,-6,-6,1,-1,2
6085,0,14,-2,-1,21,3,2,12
6090,-3,-3,-4,-1,-2,-2,-1,-3
6095,7,3,-18,-6,-14,0,0,4
6100,-14,-8,5,3,3,0,-7,-17
6105,0,8,-7,0,-4,-9,-3,-3
6110,4,-26,13,3,-10,6,5,14
6115,8,23,8,-1,-17,-12,-2,-5
6120,-2,5,-9,-5,18,7,3,12
6125,19,9,10,4,10,1,-4,-18
6130,-5,-5,-25,-2,-11,-5,-2,-6
6135,-2,-6,-6,-3,-17,-3,0,3
6140,-13,-4,16,1,1,-11,1,5
6145,5,32,-26,-9,24,8,0,2
6150,-13,-52,-22,-7,-7,-2,-1,-6
6155,12,-11,10,2,-5,-3,-5,-4
6160,-29,17,-10,6,3,-4,-2,0
6165,35,-7,11,2,5,4,5,10
6170,2,46,10,0,-7,-4,-1,5
6175,-23,-33,-9,3,23,11,1,-4
6180,22,-30,-11,-3,-10,-1,2,12
6185,-19,27,-1,-4,-10,-5,-3,-21
6190,13,24,12,5,-1,0,-3,-3
6195,4,11,0,-12,-15,-3,-1,6
6200,9,5,1,9,32,4,6,7
6205,-33,-42,-8,-5,-5,-5,-4,-2
6210,-9,0,11,-13,-22,1,4,3
6215,22,10,3,7,36,-1,0,7
6220,-6,37,4,-5,-22,1,-6,-21
6225,-4,-35,4,4,-10,-8,0,7
6230,-4,30,7,3,-11,-5,-4,-11
6235,-24,7,-5,-8,-5,0,-2,-1
6240,31,27,7,9,11,-5,-1,-2
6245,-6,18,-7,-4,-10,-1,-7,-7
6250,1,-18,7,-8,-24,9,7,10
6255,-23,24,-22,0,11,-5,-2,-5
6260,22,-50,-14,2,-5,-4,0,4
6265,-21,29,14,1,-17,-4,-4,-12
6270,15,-16,-1,9,26,7,1,6
6275,-13,18,4,-3,11,3,2,5
6280,-2,-38,-14,-1,-16,-6,-3,-4
6285,7,-4,2,-1,15,-10,-6,-9
6290,11,23,-6,3,6,10,2,8
6295,7,-20,3,-1,-4,-2,0,-11
6300,-12,-8,14,-9,8,5,1,-5
6305,1,11,-3,13,-8,-4,3,13
6310,-3,14,19,-19,-2,-2,-1,-6
6315,18,-27,11,11,-21,-8,-1,6
6320,-13,37,-9,-7,46,2,-7,6
6325,3,-14,-24,-4,-34,-1,7,-1
6330,-20,-8,-2,6,40,-10,-7,-8
6335,33,19,16,6,-26,1,1,2
6340,-12,-12,-14,-8,-34,-2,0,-15
6345,-4,18,11,3,29,10,2,5
6350,-20,-32,-20,7,12,-8,-3,1
6355,6,2,8,-2,-6,2,3,-4
6360,-4,34,5,-2,-14,0,-6,-7
6365,4,12,-6,-4,11,3,5,19
6370,9,-23,-1,2,-24,-6,-5,-13
6375,-1,34,15,-7,-2,-1,1,-4
6380,-21,-31,-40,2,-7,-4,-3,1
6385,4,-15,3,4,25,6,1,15
6390,5,24,-1,1,-3,2,0,-4
6395,7,9,-5,-7,7,8,1,-10
6400,-1,-17,24,2,-5,-2,1,4
6405,-8,-8,-15,-6,0,-10,-4,-5
6410,-2,-1,-11,2,-18,0,-4,-3
6415,-20,-2,-2,2,14,-4,-2,6
6420,5,6,6,2,11,2,3,-6
6425,-10,10,9,-4,-4,1,-1,-10
6430,23,-1,19,6,-13,-6,-2,8
6435,-4,8,-27,-6,11,-2,-2,-2
6440,-17,-30,2,-5,10,8,3,15
6445,9,-2,9,-1,3,4,-1,-16
6450,-28,6,16,17,-18,-8,-7,-12
6455,29,-28,-17,-9,-7,-1,-2,7
6460,5,27,17,4,-25,-9,-2,-2
6465,3,6,-9,-10,15,3,1,9
6470,-5,8,-12,-5,-4,-5,1,4
6475,-10,-8,-4,-1,-10,-2,-6,-21
6480,0,24,-1,6,-3,-6,2,12
6485,18,-49,11,-2,-8,8,2,-4
6490,12,17,-30,-11,60,3,0,7
6495,-17,-61,11,-2,-28,-8,-2,0
6500,-8,-39,8,-3,9,2,-5,-18
6505,8,10,6,4,-10,-1,-1,-5
6510,-20,-2,-14,4,-5,-4,0,5
6515,15,7,-7,3,19,11,2,7
6520,17,14,1,-20,0,10,6,4
6525,-5,4,8,7,-2,-7,-5,-6
6530,6,-9,6,-5,-3,9,2,2
6535,-16,18,9,11,-2,-4,0,-6
6540,-2,0,-9,11,-7,-3,1,4
6545,5,-28,-18,-13,1,1,1,10
6550,9,9,7,-3,-8,5,3,-1
6555,-3,14,16,1,24,-1,1,11
6560,-4,-31,-20,-1,5,1,-1,-6
6565,7,28,3,6,-29,-6,-5,-8
6570,8,-26,-9,-13,15,-2,-3,5
6575,-4,16,-6,11,-1,-2,1,0
6580,14,27,-8,-4,-36,-12,-6,1
6585,-22,-4,6,-1,11,9,5,11
6590,6,-10,-1,-5,-12,-3,-3,-14
6595,-3,-3,-8,4,2,-6,-4,6
6600,-7,6,-10,-18,14,-3,-1,-1
6605,-5,-15,8,6,-9,-3,-1,-1
6610,13,-6,-1,-3,3,9,7,30
6615,-24,11,4,-7,-6,-4,-4,-31
6620,13,-15,1,14,7,-7,-4,-17
6625,-13,-10,-8,-8,5,4,-3,-4
6630,-2,14,0,0,20,-3,-1,1
6635,9,-2,1,0,-20,-3,4,17
6640,-10,1,11,-4,-11,0,-4,-10
6645,2,-10,-9,1,14,-6,1,0
6650,-11,-7,1,2,-26,-1,-2,-12
6655,0,-39,-3,-7,10,5,3,8
6660,-12,-27,-7,6,13,2,-2,-3
6665,18,19,9,-5,-10,-1,-1,3
6670,-13,11,-1,-7,-21,-5,-2,-9
6675,0,14,2,1,-9,-8,-5,-9
6680,-15,-3,7,5,29,8,5,14
6685,9,-5,-16,3,0,2,-3,0
6690,0,-30,11,-10,-5,8,2,-6
6695,-1,0,-9,2,5,-2,-4,-12
6700,12,15,0,-4,-25,-9,-3,5
6705,-26,30,-12,-2,-11,-5,-2,-1
6710,12,-30,-4,5,16,-5,-1,-2
6715,-7,-22,10,-9,-21,9,2,1
6720,1,2,1,1,-4,-5,-2,-1
6725,-3,-8,16,-5,10,1,0,0
6730,-3,8,-9,13,7,-7,-2,1
6735,-1,3,5,-6,-37,-2,-1,-7
6740,1,-14,13,-7,18,1,-5,-2
6745,-12,-27,-46,-11,29,6,1,2
6750,-19,22,3,-2,-3,-5,-2,-9
6755,28,8,5,5,-8,-1,1,12
6760,-8,30,12,5,-44,-8,-1,7
6765,2,-25,-6,-3,23,10,3,-16
6770,-14,12,20,-8,4,0,-6,-13
6775,-8,-8,-27,0,17,-5,-3,6
6780,9,16,-1,-6,-24,-1,-2,1
6785,3,2,13,16,-20,-10,-1,-2
6790,-1,8,-9,-12,28,5,-2,-6
6795,9,53,32,3,10,2,4,0
6800,-9,-92,-33,1,19,0,-2,0
6805,-3,17,10,-13,-26,-2,-2,2
6810,4,-2,-8,-2,-52,-10,1,5
6815,4,30,12,9,43,0,-1,3
6820,-15,-39,-26,3,-6,1,3,24
6825,17,13,-14,-9,11,1,-7,-38
6830,15,-6,16,6,-18,-3,1,8
6835,-18,1,6,-3,5,0,1,4
6840,-2,16,-9,2,3,2,-3,-22
6845,-15,-11,17,4,-23,-4,-1,16
6850,0,23,-11,6,7,-9,-3,-6
6855,-3,-16,-8,-7,25,11,2,-8
6860,-2,19,-10,-18,16,3,0,-2
6865,4,-6,-15,6,-20,-10,1,8
6870,3,-5,10,0,2,1,0,-2
6875,-13,19,-12,3,-25,-10,-4,-5
6880,15,-29,5,-1,5,-3,0,-4
6885,-15,5,8,2,23,8,-3,-7
6890,4,-9,0,7,5,1,2,8
6895,7,-18,-22,-14,-12,3,-1,-3
6900,9,39,17,6,-20,-4,-1,8
6905,5,13,14,4,-13,-5,2,14
6910,-17,-5,-6,-3,23,4,-2,-14
6915,-10,-15,0,3,-25,-4,-4,-3
6920,19,21,0,-1,33,16,3,-7
6925,3,-47,15,3,-2,-3,-2,14
6930,-7,-9,-5,-15,-24,-12,-5,-5
6935,5,40,-16,-1,-9,-1,-2,0
6940,-12,2,16,2,-5,-2,2,2
6945,-6,-2,-15,-6,16,0,-2,-6
6950,-5,5,-3,-3,-7,7,6,20
6955,16,4,6,5,12,-6,-5,-20
6960,-8,4,12,7,-8,-1,2,-8
6965,0,44,7,-8,-3,-5,-2,1
6970,13,-18,-9,-12,23,17,5,11
6975,-10,-26,-7,-5,8,-4,1,10
6980,-8,22,2,5,2,-4,-4,-14
6985,17,-39,8,1,-29,-6,-3,-1
6990,-3,13,-5,6,19,-6,-3,-2
6995,5,-5,10,-2,17,10,4,8
7000,-21,17,-12,-4,-11,1,3,9
7005,15,18,5,0,3,-5,-3,-2
7010,4,-13,1,9,2,3,-5,-13
7015,-1,-3,1,1,-14,-7,0,-1
7020,-2,-3,-2,-2,-3,-5,-3,-4
7025,-8,29,-10,1,7,25,8,10
7030,4,17,4,2,3,-6,1,0
7035,-6,-44,-3,-2,-30,-3,-3,-6
7040,3,9,1,-12,-13,1,3,9
7045,7,31,-6,7,21,-8,-5,-6
7050,-4,-15,3,0,-10,0,2,-4
7055,-11,-29,-41,-3,36,3,-3,-6
7060,16,-1,5,3,-11,-3,-2,4
7065,-5,3,-8,-2,-9,-4,1,0
7070,-12,-2,-5,-7,-18,-3,-4,4
7075,11,-10,12,4,-2,-1,4,-4
7080,21,1,-11,-7,5,3,-1,2
7085,-6,6,-11,1,3,-4,-5,-5
7090,-5,2,-2,8,1,-7,0,10
7095,-1,-40,0,0,-15,-3,-2,1
7100,-5,-1,-2,-9,49,18,4,-3
7105,-1,-43,4,0,-1,-7,-6,-8
7110,-6,30,3,5,5,0,4,2
7115,11,7,-13,-17,-41,-8,-4,18
7120,4,18,11,11,35,-13,-8,-20
7125,-3,2,1,-5,-18,18,10,12
7130,2,-33,-2,-1,16,4,-1,-8
7135,-31,-27,-5,0,-3,-2,-1,11
7140,23,44,8,4,-44,-12,-4,-5
7145,0,-55,15,1,48,7,-1,-4
7150,-11,-2,-24,2,4,-5,-1,-2
7155,5,24,5,-8,-6,1,1,1
7160,-17,-12,-6,2,-13,-6,4,12
7165,13,-38,-3,-1,3,12,1,-10
7170,-6,-5,-1,-4,-6,4,2,22
7175,-7,8,13,13,-5,-18,-9,-40
7180,-4,-23,2,-2,8,10,-3,-6
7185,8,53,5,-6,14,-2,3,5
7190,-2,-66,-10,3,-22,-2,1,5
7195,-14,-9,-3,-1,7,-3,-3,1
7200,-10,38,0,-3,12,13,3,0
7205,14,44,12,-5,-18,-3,-4,-7
7210,-4,6,6,0,2,-2,-1,3
7215,10,10,6,-3,28,-7,-6,-16
7220,-7,-26,8,-1,-20,-9,-4,-3
7225,-14,9,-7,-1,13,-6,-2,7
7230,0,47,5,-1,-13,-2,-1,5
7235,12,-21,-11,-10,-18,-2,-6,-19
7240,-7,-9,-31,1,-2,-3,-1,10
7245,-10,30,13,-9,17,-9,-3,-6
7250,14,-9,-5,1,10,9,-3,-9
7255,-29,-8,1,7,-22,0,8,14
7260,38,31,-4,-3,-1,0,0,-6
7265,-27,-26,26,11,-15,1,-1,0
7270,4,-34,0,-15,26,11,2,-1
7275,13,18,-15,1,-4,-6,-5,2
7280,-14,4,7,6,20,0,0,-8
7285,-12,-11,-7,-3,-25,-2,-2,-1
7290,2,45,-9,5,18,-5,6,-3
7295,2,-33,-9,-15,-70,11,2,13
7300,-33,-24,21,-1,81,-7,-5,-3
7305,27,5,-1,0,-15,0,2,12
7310,1,13,-3,-13,-40,-10,-7,-17
7315,13,-18,25,9,28,-1,0,8
7320,3,27,-10,-6,-28,-2,-1,-6
7325,-22,-2,11,7,32,10,5,-2
7330,12,-1,21,-11,-16,-9,-6,10
7335,-5,38,2,12,10,-6,-3,13
7340,7,-71,-7,3,-6,1,-5,-19
7345,3,-6,-12,-13,-28,-7,-1,-4
7350,-18,13,19,6,20,8,3,-2
7355,17,70,9,1,-43,-2,3,-4
7360,-5,-22,14,1,47,17,3,17
7365,18,0,21,5,-18,-5,-4,-10
7370,4,-3,-24,-8,-11,-5,-7,-7
7375,-18,6,-11,-18,25,3,0,-6
7380,13,-20,1,12,-25,-7,1,8
7385,-27,-5,-23,12,-2,-7,2,4
7390,16,-9,16,5,-10,5,2,8
7395,3,47,7,15,59,4,-3,-9
7400,-1,5,-25,-32,-29,-1,0,3
7405,7,-9,11,1,9,0,1,0
7410,-7,21,5,-1,-9,-4,-5,-18
7415,-10,10,-12,8,17,3,-3,10
7420,23,11,12,18,-25,-15,-5,-4
7425,-10,31,-20,-23,-4,4,4,14
7430,15,-43,-6,9,24,5,0,-17
7435,-6,-26,-6,-7,-42,-2,3,16
7440,-21,-34,-19,-5,12,10,0,-15
7445,8,12,-2,12,8,0,-4,-7
7450,-3,23,6,17,-11,-8,-1,4
7455,2,-12,0,-23,-17,-1,-2,-5
7460,-8,-32,-11,-13,-19,-7,-2,11
7465,-1,16,-8,4,5,2,2,5
7470,9,-22,21,-6,37,10,-1,-1
7475,2,2,4,9,4,-4,-2,-8
7480,-8,-38,4,7,-55,-6,2,9
7485,-6,-28,-8,-27,9,-4,-7,-9
7490,18,31,1,6,-3,-2,-1,-3
7495,0,-24,26,0,42,-3,-6,1
7500,3,35,-16,6,2,5,2,-14
7505,-5,-6,11,-12,-18,-9,0,3
7510,-13,-13,-11,2,3,-6,-1,7
7515,1,5,-18,-1,-3,7,1,-6
7520,-5,15,8,5,5,-3,-1,3
7525,-5,-47,-8,14,3,1,-1,-5
7530,-5,12,1,-21,-12,-1,-3,-8
7535,-13,-2,-3,3,-14,-3,3,13
7540,26,25,27,14,28,-8,-6,-9
7545,0,13,-30,-7,-4,17,-3,-17
7550,6,-17,11,-15,-9,-7,-2,7
7555,-16,-17,7,-4,-42,-4,-1,-13
7560,-1,66,-13,3,67,27,8,18
7565,4,-74,14,4,-6,-12,-3,1
7570,-8,23,7,2,-1,-7,-7,-10
7575,2,-7,1,12,-20,-7,-1,-2
7580,-6,-16,-9,-34,-14,7,2,4
7585,3,21,7,5,10,-4,1,5
7590,-6,-8,-14,0,-1,12,5,13
7595,6,51,24,1,7,-8,-4,-10
7600,16,-68,-21,3,-38,-10,-3,-11
7605,-1,14,-12,-5,36,-2,-6,-6
7610,-9,-5,-10,-4,23,2,1,3
7615,0,-17,2,-6,6,5,4,5
7620,-28,1,-18,0,-11,-10,-4,8
7625,38,43,22,8,-17,-5,6,-4
7630,-15,15,-39,4,43,14,1,-5
7635,12,-21,-10,-10,13,2,-2,-4
7640,-12,37,23,12,6,-9,-4,5
7645,-10,-9,4,-16,-41,-5,0,3
7650,17,-27,-2,4,-22,-6,-3,-12
7655,-16,-4,-3,7,56,15,9,1
7660,31,2,13,2,-7,3,-4,-5
7665,-35,30,-11,0,-30,-11,-5,11
7670,-11,13,5,-9,-5,-4,1,-2
7675,21,38,3,-11,-22,9,2,-5
7680,-21,-79,1,4,19,-6,-7,-18
7685,11,26,32,6,-6,6,2,6
7690,-12,-7,-29,4,-16,-2,-2,-7
7695,-2,-31,4,8,11,-8,-3,13
7700,-44,10,-29,-17,-34,-5,-2,-1
7705,41,-17,-12,7,26,15,4,0
7710,-10,8,0,1,-22,-9,-4,-7
7715,-2,13,-28,-20,5,0,0,-6
7720,-2,18,1,2,0,-5,0,7
7725,-8,-19,-7,-13,-24,-6,2,4
7730,8,34,32,12,3,1,3,7
7735,-3,-46,-41,0,5,0,1,2
7740,4,53,38,2,-3,2,-3,-10
7745,-14,-52,-37,-4,10,-1,-1,-2
7750,2,19,2,-10,-9,-8,-2,3
7755,-4,7,19,5,-11,-1,-1,-8
7760,-8,26,8,-2,19,13,7,11
7765,24,-13,-5,15,2,-2,-2,-5
7770,-3,8,20,-2,-2,10,2,-1
7775,7,-20,-17,8,15,-1,-2,5
7780,2,18,-7,-13,-33,-2,0,2
7785,-8,-27,-2,-9,0,-6,-4,3
7790,1,-36,-1,-4,3,0,-4,-9
7795,6,38,4,7,15,2,-3,-6
7800,8,8,-4,7,-20,-7,-3,-4
7805,-8,18,-6,-8,16,1,-1,9
7810,0,-5,-7,-8,11,1,-2,-5
7815,-1,10,13,-2,-29,-4,-3,5
7820,3,15,3,0,13,-8,-1,-7
7825,-10,34,21,3,8,2,-3,-9
7830,3,-2,-49,4,-16,-8,-4,-1
7835,-3,12,8,-12,-1,1,-1,-3
7840,14,-15,-5,0,-18,-10,0,8
7845,-16,-18,8,3,18,7,5,0
7850,11,7,23,-1,1,2,3,-3
7855,-4,71,8,4,-7,-8,-7,-3
7860,-2,-94,-37,-4,-15,6,0,-8
7865,4,19,14,0,21,-2,0,5
7870,-19,-6,4,-5,-6,0,-1,2
7875,-4,-26,13,4,14,5,4,1
7880,17,34,12,-3,6,-3,0,2
7885,-11,13,-15,9,-5,-1,-5,-10
7890,7,-27,-13,1,-8,-1,3,10
7895,0,-1,13,-5,-36,-9,-6,-5
7900,-8,2,3,1,53,21,3,-2
7905,-8,-3,-21,-2,-8,-10,-3,0
7910,8,10,-3,-4,4,1,1,0
7915,1,-40,12,5,5,-1,0,3
7920,14,-3,-2,-3,-15,4,2,-2
7925,4,-20,-26,-5,-22,-6,-3,3
7930,-20,-28,-4,10,23,-5,-4,-1
7935,2,9,-9,-10,16,7,1,-5
7940,5,20,8,3,-21,-6,1,8
7945,-13,2,3,15,0,-5,-2,-9
7950,-5,9,12,-3,22,11,2,1
7955,17,-22,-21,-10,-12,-2,0,8
7960,3,17,19,-3,1,-7,0,-8
7965,-3,8,3,7,-9,-5,-3,-12
7970,-13,-3,-5,-6,-15,-4,-2,5
7975,12,-3,-10,7,13,5,4,-2
7980,7,31,10,-6,-15,-1,1,12
7985,2,10,9,-4,5,-1,-6,-10
7990,-6,-7,-32,5,14,-3,-3,-5
7995,-8,22,0,-10,1,7,1,2
8000,-9,-25,-13,5,-2,-4,-2,5
8005,-3,-46,11,-8,-7,10,3,-1
8010,5,30,9,1,-17,-8,-1,8
8015,-7,-33,-9,4,7,-8,-5,-12
8020,4,45,10,8,19,4,-3,-3
8025,10,0,-15,-15,-18,-4,0,5
8030,-5,-36,7,2,-10,9,0,-7
8035,-1,13,-17,3,10,-5,-2,4
8040,-27,-15,2,-1,-4,-6,1,0
8045,13,-60,-8,-2,30,7,-1,6
8050,7,16,-4,-6,-33,-6,0,9
8055,7,2,4,-1,-4,-6,-3,-12
8060,-2,23,8,3,13,6,2,1
8065,-8,32,-2,3,-15,-11,-10,-11
8070,6,-24,9,1,13,9,8,6
8075,-14,4,10,10,-14,-11,-5,-3
8080,6,-9,-5,-18,-8,7,1,-1
8085,-4,11,-5,-1,-3,1,-2,-2
8090,22,23,25,6,3,1,1,-2
8095,-36,-11,-23,-4,2,2,0,5
8100,23,-43,-2,-6,-6,-1,-1,-2
8105,10,11,18,5,-5,1,-1,-1
8110,-2,8,-22,-5,17,-6,-6,-22
8115,-3,-42,13,-2,-15,0,2,10
8120,-15,21,-16,-5,1,-1,0,-4
8125,-19,-51,7,2,1,1,-2,-1
8130,-1,-2,-18,-7,-24,-6,-1,2
8135,13,15,10,4,11,1,1,2
8140,-14,-32,-17,-5,7,-2,-2,-3
8145,-16,34,5,-5,-14,-6,-3,-10
8150,22,-15,-11,2,-13,3,2,11
8155,16,15,12,4,39,15,7,-8
8160,0,0,24,-3,-17,-5,-3,-7
8165,-3,-15,-29,3,10,1,4,7
8170,-18,-3,-4,-2,1,-5,-3,2
8175,-21,-46,-3,-4,-21,-3,-1,-7
8180,28,28,5,3,20,1,0,2
8185,-6,39,3,-8,-2,0,-1,6
8190,5,-2,11,4,0,-4,-6,-10
8195,2,28,-9,-6,-17,-4,0,2
8200,-23,-58,3,6,-1,1,2,2
8205,11,34,10,3,6,0,0,0
8210,-2,-53,5,-12,3,-2,0,18
8215,3,32,17,1,36,15,2,-13
8220,10,-21,-40,1,-19,-8,-6,2
8225,-8,-19,-2,-1,-13,-4,3,7
8230,9,21,-1,6,6,-1,3,2
8235,-3,22,-1,-2,5,-3,-1,-15
8240,-16,-68,-12,-7,-5,-7,-1,-4
8245,12,-10,-14,9,0,0,-2,1
8250,-13,71,27,-1,12,5,-3,-5
8255,5,-21,-16,-4,0,3,3,9
8260,-1,1,5,5,-17,3,-4,-4
8265,3,33,15,-4,12,-5,-3,-6
8270,-13,-19,-9,-2,0,3,-2,-6
8275,-6,16,-17,-2,-39,-8,-2,0
8280,-9,-14,-5,-10,39,3,0,4
8285,31,-6,4,4,-10,-5,-3,9
8290,-1,4,2,-1,-10,1,1,-7
8295,13,-8,-6,-4,2,-4,-4,-3
8300,-15,15,8,7,1,-5,-5,-5
8305,-8,5,-3,-1,13,8,2,-3
8310,3,10,-6,-12,-11,-1,-4,1
8315,-8,-12,11,0,-17,4,2,8
8320,-3,56,6,1,6,-6,-7,-12
8325,13,20,22,1,-15,-2,1,6
8330,3,-1,-25,6,24,-14,-4,-10
8335,0,-31,-18,-26,1,15,2,2
8340,0,16,10,4,-9,-2,0,1
8345,5,-13,-2,3,5,2,0,-5
8350,3,-19,7,-2,-26,-7,-1,11
8355,-14,-7,3,5,26,-4,-2,-6
8360,17,23,7,0,-25,-5,0,-18
8365,-20,-37,-29,-2,43,12,1,-8
8370,2,-7,-7,-4,-17,5,3,5
8375,4,-3,1,4,10,-5,-3,5
8380,-16,-12,-6,-5,-21,3,3,1
8385,-1,33,10,2,-16,-1,2,3
8390,-4,-17,-10,2,19,-6,-1,-6
8395,-4,-53,-23,1,-26,-2,-5,-9
8400,-2,7,-12,1,31,4,0,0
8405,-8,-9,-17,0,-4,-2,0,-1
8410,-8,36,17,-9,19,2,2,6
8415,-4,-2,1,-7,-65,-14,-3,12
8420,30,3,26,10,50,12,2,-6
8425,-6,14,-7,-10,10,-9,-8,-14
8430,-6,-10,13,-1,-29,5,0,-6
8435,-12,6,4,7,31,2,3,1
8440,-2,7,-5,-6,-29,-7,-3,5
8445,-3,-21,13,-5,-12,-1,4,7
8450,-1,50,-4,4,16,-5,-5,-5
8455,6,-2,-3,2,6,-2,-2,-7
8460,3,-12,20,1,-6,-3,-1,8
8465,-14,3,-11,-2,-6,-1,-3,-8
8470,9,2,7,1,-22,-5,3,7
8475,13,29,12,-6,28,9,0,-2
8480,-42,-37,-10,-3,-16,-4,2,7
8485,47,10,10,2,-35,-7,-3,0
8490,-1,-19,-6,-7,47,-3,-5,-6
8495,5,39,17,1,-6,1,4,5
8500,-15,-15,-8,8,2,-4,-4,-4
8505,-11,-5,-10,-11,-13,2,7,17
8510,-2,-3,13,9,-25,-2,-2,-4
8515,-6,-33,-13,7,38,-5,-6,-21
8520,-1,15,-20,-16,-13,-2,-2,-2
8525,-1,6,10,5,3,5,-1,-1
8530,9,-17,-4,3,6,5,2,-1
8535,-6,7,8,0,-19,-6,0,11
8540,10,-17,-9,3,-9,-5,-1,-3
8545,-7,36,15,-4,15,1,-1,-11
8550,-21,-12,6,-5,-2,0,-2,-4
8555,2,20,-17,-6,5,5,3,3
8560,19,-5,2,6,0,-6,-2,-1
8565,21,-5,3,-1,0,0,4,8
8570,-17,10,-5,3,-18,-5,-3,-11
8575,5,1,12,-5,9,2,-1,10
8580,-10,19,0,-2,-15,-4,-3,-6
8585,-23,-34,-10,-2,-2,-3,-2,-7
8590,9,51,0,10,20,2,0,-3
8595,1,11,12,-2,-22,2,3,2
8600,4,-4,-2,-7,-6,2,0,3
8605,-4,-30,-19,5,-9,-7,-3,-5
8610,2,-15,-1,-7,4,3,0,8
8615,-18,34,10,8,-8,-9,-3,-18
8620,25,-3,8,5,24,7,3,6
8625,3,-3,5,1,-9,-2,1,3
8630,6,-4,-1,-3,-16,5,2,7
8635,-2,-13,-7,-1,21,-7,-7,-7
8640,-8,-24,-17,-5,-4,-1,-3,4
8645,-9,13,13,1,-8,-5,-3,-3
8650,-6,1,-8,6,-13,-8,-5,-6
8655,1,-20,12,-1,14,11,4,3
8660,-6,22,8,1,-13,-1,1,2
8665,4,-7,-20,-7,26,9,1,-1
8670,7,0,0,0,-7,-10,-6,2
8675,2,10,-1,-2,-23,-4,2,-2
8680,-5,-28,5,-1,1,0,-3,-4
8685,-17,3,-6,1,5,-3,-2,-1
8690,25,-17,-3,-3,-9,4,-2,-11
8695,-4,3,-6,8,14,0,-3,5
8700,17,16,2,-1,29,4,2,3
8705,-10,-12,15,-3,-19,4,1,-6
8710,-7,-3,8,-6,18,-1,-1,2
8715,16,-56,-15,-1,-10,-8,-7,-3
8720,-4,-3,-8,3,-4,0,0,-2
8725,-9,33,0,7,1,2,-1,5
8730,-14,-14,4,-12,-2,3,5,-4
8735,0,20,4,2,-15,-2,-5,-7
8740,-10,-15,-5,-5,3,-3,-2,-5
8745,8,-6,-6,-3,1,-5,-2,5
8750,4,12,9,6,-2,-4,-1,6
8755,2,-20,-15,-4,-22,-6,-3,1
8760,6,16,-11,-4,37,7,4,-4
8765,1,-3,20,-5,-8,2,4,3
8770,5,-17,-13,2,-7,-6,-1,3
8775,-9,-22,0,3,-9,-3,-2,1
8780,-17,25,9,-2,0,-4,-5,-4
8785,17,-7,-1,0,3,-5,0,-3
8790,-3,4,-32,-5,1,1,-1,5
8795,-2,26,13,5,1,-1,2,-11
8800,-8,-20,2,3,-7,-3,-5,0
8805,-10,8,4,-8,-2,2,-2,3
8810,11,-7,6,0,13,2,-3,-8
8815,0,62,-24,-4,0,1,0,4
8820,11,1,8,4,-7,1,4,8
8825,-20,-55,-2,-1,-6,-1,-1,-7
8830,24,20,9,-1,-15,-8,-3,8
8835,-5,17,4,4,34,2,1,-5
8840,13,8,1,-3,-13,11,4,-1
8845,-3,2,-9,7,3,-9,-5,-5
8850,-23,-30,-13,-18,7,1,2,14
8855,7,-11,29,1,1,4,3,-12
8860,-10,-16,-27,-2,-18,-6,-3,-11
8865,9,10,5,6,11,7,2,6
8870,-13,3,2,12,-38,-2,0,-4
8875,-1,-17,-7,-10,41,11,1,14
8880,1,12,15,-4,-14,-11,-8,-10
8885,8,-11,-16,2,1,2,-1,-3
8890,-16,11,10,6,8,2,2,-4
8895,12,-32,-10,-7,-23,-6,-5,-1
8900,-4,-34,18,1,3,2,2,2
8905,-1,26,-3,-7,0,-8,-3,5
8910,-19,-17,-3,-1,4,3,3,-1
8915,1,22,-6,-1,-16,-5,-5,0
8920,4,-34,-2,6,26,2,-2,1
8925,5,28,0,-4,-24,-6,2,-1
8930,9,-35,5,-10,16,2,4,3
8935,-27,2,-21,1,-6,-1,-2,-3
8940,22,0,-1,7,7,8,3,1
8945,-8,22,3,-8,3,0,-3,-7
8950,7,7,-4,3,-10,-2,-3,-4
8955,-23,-24,0,-1,-40,-8,-1,6
8960,13,68,2,-8,42,-6,-6,8
8965,11,-29,-1,4,9,11,6,-3
8970,-18,-12,-27,-5,-9,-4,-3,-4
8975,12,4,21,-2,-6,-3,-1,-4
8980,-4,10,-2,2,-29,-10,-8,-2
8985,-4,-4,4,-3,13,4,4,6
8990,6,19,14,13,28,-2,-1,-6
8995,0,-32,-1,-8,-13,9,3,1
9000,-8,27,1,-3,-16,1,3,3
9005,-17,-12,-5,-1,7,-3,-4,-9
9010,32,-4,-7,4,-3,-4,-7,-8
9015,7,46,12,2,8,-4,3,12
9020,-15,-71,-7,2,-4,-1,2,-8
9025,-11,24,-21,-15,-7,15,1,6
9030,-9,-8,-3,3,-3,-5,-1,-2
9035,-1,10,9,3,14,-4,-3,-4
9040,9,9,-12,-3,-20,-4,2,0
9045,10,-4,12,8,19,-5,-2,-1
9050,2,10,-9,-14,4,3,-1,6
9055,-2,-45,-6,5,11,-1,-7,-16
9060,-22,7,6,0,-5,10,9,14
9065,0,-6,-15,3,5,-11,-4,-19
9070,19,-25,12,7,8,2,3,6
9075,-5,31,-2,-12,-15,5,4,7
9080,9,-15,1,-4,-21,-17,-11,-8
9085,3,4,11,-7,2,6,2,8
9090,-13,-6,2,0,5,7,6,0
9095,-7,14,18,5,0,-10,-6,1
9100,-7,11,0,5,-11,11,8,-1
9105,16,11,0,-3,17,-3,-7,1
9110,-4,0,2,-9,-18,0,-4,-13
9115,4,0,-12,4,0,-3,0,6
9120,-5,7,1,-4,-2,-5,-7,-3
9125,-7,-38,-2,2,-20,-4,-1,2
9130,-24,30,7,-1,15,9,3,-4
9135,20,-12,-20,-1,25,-7,-4,-1
9140,19,-40,3,-2,-1,-3,-3,5
9145,-7,2,-10,-10,-13,2,0,-14
9150,-7,-17,-2,1,-22,-9,-2,0
9155,-4,4,1,-2,0,2,1,-2
9160,-12,13,-2,-1,8,-3,0,0
9165,6,0,-6,10,-4,-6,-4,1
9170,4,4,9,-8,7,3,-2,0
9175,-3,-29,-3,3,0,-5,1,2
9180,8,33,12,-6,-9,6,1,-1
9185,-22,-20,12,0,4,-6,-1,5
9190,9,23,-30,-3,-19,-9,-6,-13
9195,0,-2,-1,14,44,-1,-2,6
9200,6,10,3,-21,-24,13,0,-11
9205,6,28,21,6,-13,0,2,7
9210,-13,-11,-11,-2,13,-4,-4,-5
9215,5,11,2,-6,-15,-7,-1,-7
9220,-34,2,-9,2,-6,-8,-3,4
9225,27,4,2,-2,9,5,5,7
9230,2,-13,12,-3,-5,1,1,5
9235,-10,-6,2,3,7,6,-3,-13
9240,-3,-25,1,4,6,-7,-1,-1
9245,11,10,7,5,-8,-2,1,10
9250,-4,-14,-14,-8,-10,2,2,3
9255,3,-6,6,-3,-7,-1,0,2
9260,-2,70,3,4,16,-1,-3,-5
9265,-20,-48,-13,0,10,0,-2,-2
9270,25,11,1,2,7,8,5,12
9275,1,15,0,-6,-21,1,-1,-3
9280,13,11,3,5,8,-4,-5,-5
9285,-13,14,-21,-5,1,5,0,-5
9290,-22,-4,6,9,13,2,-1,-8
9295,20,2,-2,-7,-31,-5,-3,11
9300,-11,-22,-26,-1,17,-5,1,5
9305,18,6,8,1,-1,2,-2,-8
9310,-7,-25,-2,-5,-11,-4,-5,-13
9315,-1,15,5,3,8,5,7,5
9320,-13,-12,-10,11,12,-2,3,5
9325,-4,-20,-2,-22,-34,0,-1,-1
9330,-8,38,17,8,28,8,4,1
9335,12,-17,-6,-2,-14,-2,-3,0
9340,1,-9,-9,3,-4,-5,-3,-9
9345,-8,1,3,-8,19,2,2,7
9350,13,-3,-2,0,-15,-10,-5,-10
9355,-8,-4,7,-2,0,-2,-2,-2
9360,-4,6,-9,-5,8,7,-1,-8
9365,3,0,-14,9,-2,-9,-5,-3
9370,-11,-8,4,-1,-30,-8,-4,2
9375,-7,40,1,-2,18,3,1,11
9380,16,-11,8,4,20,0,2,-8
9385,0,-1,-3,-7,-23,1,-2,0
9390,1,-40,-12,-4,9,2,3,11
9395,-1,1,-8,-3,-10,-5,-8,-16
9400,1,2,2,2,2,3,2,6
9405,-14,-11,18,-9,9,-10,-7,-4
9410,-1,-2,-9,5,-17,2,6,-4
9415,11,5,-1,0,4,1,-2,-11
9420,3,-2,3,-4,2,5,-2,1
9425,-3,-1,3,3,-10,-10,-4,0
9430,1,-3,4,-4,-11,-5,-5,2
9435,-16,3,3,3,24,2,3,7
9440,-3,-18,-4,-5,1,3,1,-6
9445,22,9,7,7,-8,-1,0,-3
9450,-3,31,0,3,6,4,3,2
9455,-8,-55,-3,-2,-7,6,2,2
9460,-9,-37,4,2,-26,-12,-5,-1
9465,16,31,6,-2,39,10,5,10
9470,-2,-28,-4,1,11,-2,-7,-17
9475,-2,3,8,1,-16,-7,0,8
9480,-10,-18,1,0,8,2,5,2
9485,16,34,-5,1,-15,2,0,-10
9490,0,-42,-8,0,25,-11,-8,-6
9495,-6,-13,-22,-6,-5,6,0,-5
9500,-18,5,-2,-2,-8,0,-1,1
9505,5,8,17,1,-13,-9,0,1
9510,-10,42,-2,-5,5,0,1,11
9515,28,13,4,8,-15,-8,-4,-4
9520,-2,-11,3,-8,17,3,1,2
9525,-20,-26,-11,8,1,9,2,-12
9530,-7,53,9,-6,-14,-3,1,7
9535,2,-30,-13,3,9,0,0,-5
9540,0,40,-3,-5,-25,-7,-5,4
9545,6,4,1,0,12,2,2,-5
9550,2,5,-1,2,-4,-3,-1,-2
9555,-11,3,-20,-6,-23,1,2,-1
9560,4,5,9,-6,26,-3,-4,5
9565,-32,-38,-14,-1,-31,-10,-5,7
9570,38,-20,5,5,30,11,1,-9
9575,5,9,11,-12,-1,-6,-5,-3
9580,-8,11,-6,2,-20,0,3,-1
9585,-22,-29,-8,-1,15,-3,2,11
9590,-3,36,10,-3,-33,-3,-1,-9
9595,1,-25,-4,-3,30,-2,2,5
9600,5,-2,-3,3,-8,3,-3,-8
9605,15,23,-1,-4,-2,-5,0,5
9610,-1,-4,6,5,7,1,-2,4
9615,-8,-9,-10,-1,22,-1,-3,-4
9620,-3,-8,12,-9,-13,3,3,8
9625,-29,1,-20,-1,-12,-7,-5,-7
9630,13,6,9,0,-25,-9,-4,-13
9635,8,17,7,3,28,6,0,-1
9640,17,14,4,-4,-2,10,5,4
9645,2,8,5,-2,10,1,-2,-2
9650,-20,-9,-10,-4,-1,-4,-5,5
9655,-18,33,7,1,-15,-6,-1,4
9660,7,-35,-13,2,8,-1,-1,1
9665,14,21,5,2,-2,4,-4,-24
9670,-9,-11,-1,-4,26,6,1,8
9675,8,33,2,3,-8,5,1,0
9680,-7,-5,-11,4,-4,-10,-1,7
9685,-2,-9,0,-4,-8,-3,-1,2
9690,5,-3,22,-3,7,-2,2,18
9695,-24,-5,-7,2,-2,-2,-1,-22
9700,24,26,15,0,-8,1,-1,-5
9705,3,-10,-10,4,7,-4,0,-4
9710,8,6,1,1,-31,-5,-1,4
9715,-6,-11,3,-4,10,-2,2,8
9720,-3,16,4,0,16,2,-1,-2
9725,2,12,4,1,-7,0,1,-5
9730,-11,-36,-23,-3,4,2,0,-8
9735,-3,0,-4,4,-10,-1,-4,-2
9740,6,43,1,-2,2,-1,-4,-11
9745,-3,-57,0,4,2,4,4,8
9750,7,39,1,-2,-8,-5,0,13
9755,-12,-36,-8,-11,-2,-1,-6,-17
9760,-21,-6,-20,-2,-18,-11,-6,-8
9765,9,8,0,-13,12,1,-2,-2
9770,-8,-30,-9,-2,4,1,1,-6
9775,11,-8,19,0,-12,-4,0,9
9780,1,-9,-8,0,7,-2,1,1
9785,-26,-21,-3,4,-14,-5,-5,3
9790,24,2,-7,-1,8,-3,-5,-10
9795,4,17,7,-2,-11,4,4,7
9800,-10,-13,1,4,5,1,3,3
9805,-6,-6,-2,-2,1,-2,-3,-3
9810,-3,21,5,-2,9,7,4,13
9815,-1,-5,-10,4,17,-2,-3,-5
9820,15,-15,4,-7,-6,3,0,-7
9825,8,10,0,2,1,-3,-7,-7
9830,-24,-7,-9,-1,-5,0,-3,-7
9835,22,16,14,2,-5,1,8,15
9840,-9,16,0,-7,-12,-4,-2,2
9845,3,3,-5,-3,7,4,1,-4
9850,-9,-15,1,11,17,-2,-3,-9
9855,11,-11,-21,-7,-38,6,4,3
9860,-9,-6,5,2,18,-9,-4,-6
9865,4,30,-8,2,-15,4,3,9
9870,2,10,2,1,16,2,-1,-1
9875,-4,8,3,0,7,1,2,7
9880,-8,-36,-14,-1,-17,1,-1,-7
9885,7,10,-1,-1,9,-7,-3,-7
9890,-2,13,6,4,-4,5,0,4
9895,13,-24,6,5,13,-3,-5,-5
9900,-12,5,-3,5,-9,1,-3,-4
9905,1,-5,17,-1,6,7,3,8
9910,-1,-6,-8,-3,-11,-8,-5,-9
9915,-15,-2,-7,-4,2,1,-2,2
9920,10,-16,2,-6,-12,1,3,5
9925,2,14,2,2,15,-3,-3,-3
9930,12,-56,-6,-3,-32,-6,1,7
9935,1,4,20,7,12,-6,-3,-3
9940,4,-8,-26,-4,14,7,4,-2
9945,-3,-1,-1,-4,3,1,-2,5
9950,-11,10,7,-5,-5,-2,1,-5
9955,-13,-2,2,2,-9,-8,-5,-1
9960,7,16,12,-2,-3,-3,-2,0
9965,1,-1,16,0,5,4,2,6
9970,1,-45,-29,-2,-9,-11,-2,9
9975,-1,2,9,1,6,17,0,-32
9980,1,15,2,9,5,-4,-6,1
9985,4,13,-8,-9,-12,0,5,14
9990,-7,3,5,4,8,-3,-4,-12
9995,1,-18,-7,-11,-24,-1,1,13
10000,-10,28,2,5,32,1,3,-3
10005,17,-4,5,7,-7,-2,3,-6
10010,0,-4,-35,-2,6,4,0,3
10015,-15,-15,-10,-4,3,-4,-4,1
10020,10,7,7,10,-28,-8,-5,5
10025,-15,-4,13,-12,-21,0,4,13
10030,6,-7,-9,-1,20,-3,-1,-20
10035,0,15,-6,-1,12,14,-1,-4
10040,-7,-25,-4,-9,-14,-5,-2,-5
10045,-16,-5,-12,5,10,-6,-5,-9
10050,6,10,20,3,3,6,1,7
10055,-8,-3,-17,-9,-4,0,-1,2
10060,4,-4,8,0,5,-2,-4,-2
10065,2,-3,-7,-2,-9,1,0,-5
10070,3,-3,2,-1,-1,-4,-5,5
10075,1,12,5,3,8,-9,2,-5
10080,1,-5,-9,-4,4,5,0,5
10085,2,-5,-2,16,-6,-2,-2,-2
10090,-4,26,1,-18,11,4,1,7
10095,15,3,-4,2,3,-3,0,0
10100,8,-14,5,-1,-8,4,2,-5
10105,-9,-2,-8,0,-14,-8,-2,4
10110,-13,9,14,4,-8,1,-4,-19
10115,13,45,8,0,27,-5,-5,3
10120,-17,-11,-11,0,11,2,3,11
10125,8,-32,-19,3,-6,3,-3,-11
10130,-1,17,5,-7,-18,-4,-1,1
10135,-25,6,13,-2,9,-2,-2,2
10140,19,-5,-8,2,-3,-3,-4,-3
10145,-21,-16,0,-1,7,5,4,7
10150,0,7,-3,5,17,-5,2,2
10155,9,7,1,0,-18,16,3,-4
10160,11,22,20,-1,10,-1,-4,-3
10165,-2,4,-5,-2,-7,-7,-3,5
10170,-16,-14,-14,4,6,-2,-2,-9
10175,-7,-16,5,-5,-4,-4,3,13
10180,-9,-3,-4,-1,2,6,0,-6
10185,6,42,-1,0,-3,0,-2,-7
10190,2,10,27,-1,-26,-7,-5,3
10195,5,-19,-12,4,10,1,-3,-4
10200,6,6,-9,-8,-4,5,1,-1
10205,-5,23,15,0,4,-6,-1,3
10210,-21,-61,-19,-4,9,2,-4,-4
10215,12,10,-4,1,-29,-10,-5,-4
10220,3,-16,8,2,-16,-9,0,-2
10225,-7,-4,1,0,31,13,1,1
10230,16,22,9,-2,-6,3,0,-2
10235,-7,-2,1,-4,-16,-5,0,0
10240,-8,29,-10,1,25,0,-1,-4
10245,9,-45,-1,-4,-28,-11,-7,-10
10250,-16,1,7,-6,11,-4,-5,-4
10255,6,-9,-14,-1,12,7,5,2
10260,4,3,6,-4,-18,-5,-1,4
10265,-7,-9,-10,-5,-5,-4,0,9
10270,16,43,10,7,4,1,-1,-19
10275,-11,5,2,1,3,-1,-2,-3
10280,-10,-5,4,-1,-5,0,-3,1
10285,18,10,17,-1,-3,-4,-3,3
10290,6,6,-6,-1,19,9,7,12
10295,7,-16,-3,-4,-10,2,0,-5
10300,-8,-9,5,-1,-19,-7,-2,-1
10305,-1,22,-2,-2,18,-8,-4,-7
10310,-6,-34,4,8,7,9,2,1
10315,-5,-17,7,-2,-18,3,4,6
10320,10,2,-2,3,14,-2,-1,6
10325,1,-17,-8,-5,-21,-1,-4,-11
10330,-8,17,7,2,-4,-5,1,1
10335,0,-3,4,0,9,-3,-2,1
10340,-1,-8,-17,-5,-10,-1,0,-2
10345,4,3,-12,4,16,3,3,5
10350,0,1,-3,-4,-21,-7,-1,8
10355,1,5,-3,-2,5,-4,-4,-18
10360,-5,-4,-2,-2,2,6,-1,-3
10365,-1,9,-2,4,-7,-5,-3,-3
10370,8,14,-6,-7,21,9,6,14
10375,-21,-34,-6,0,-19,-15,-7,-7
10380,5,-2,2,5,12,-1,4,-6
10385,2,13,17,-3,0,9,-1,-3
10390,2,-46,-37,-5,-11,-7,-3,2
10395,-1,0,-7,1,26,7,2,10
10400,2,-18,-5,1,-7,-4,1,4
10405,-10,25,2,-10,-4,-3,0,-13
10410,3,19,12,3,-16,-3,0,3
10415,5,-1,-5,-2,7,0,-4,-6
10420,14,-6,-3,1,-4,0,-4,-14
10425,3,-8,0,2,-4,1,2,8
10430,0,12,8,-5,13,3,-2,-7
10435,-13,-41,-37,-1,4,3,1,9
10440,-23,23,13,1,-8,-10,-2,3
10445,10,-13,3,-1,-14,6,1,-7
10450,9,-3,-24,-2,6,-9,-9,-3
10455,-11,5,10,-7,-21,-3,-1,-7
10460,-4,4,3,1,8,4,1,7
10465,-16,-25,-16,1,6,-2,1,4
10470,11,7,11,4,8,3,0,-11
10475,5,30,3,4,-34,-8,-4,4
10480,12,-6,20,-13,25,3,-2,-8
10485,-9,-7,-20,5,-2,3,0,3
10490,-6,-24,6,1,0,-1,2,-1
10495,-14,5,0,-2,-4,-6,-3,2
10500,7,1,3,5,-13,-6,-1,-2
10505,15,2,8,-3,19,-1,-4,-12
10510,-19,17,-5,-8,-29,2,3,2
10515,10,-13,14,2,26,3,4,1
10520,-25,-10,-25,-3,-19,-9,-3,2
10525,7,-13,4,-5,26,-2,-3,-3
10530,3,18,15,2,-16,-1,-3,-3
10535,-9,7,4,6,11,0,0,2
10540,-6,-18,-13,-8,-15,-3,0,0
10545,0,-8,8,4,-1,-1,2,6
10550,-13,6,0,-10,2,2,-4,-15
10555,17,-37,8,2,-31,-11,-4,-6
10560,-4,-2,-5,-1,29,-2,-1,4
10565,5,8,-5,5,-8,3,1,6
10570,-5,-7,0,0,7,8,2,-4
10575,-12,12,-7,-5,-14,-5,0,-5
10580,15,12,0,-1,-10,7,3,6
10585,-12,-6,17,3,21,-1,-1,-2
10590,6,-13,-33,3,13,2,1,7
10595,13,40,-8,-7,-10,-3,-2,5
10600,-28,-18,-2,1,6,3,-2,-10
10605,24,36,0,-3,-9,0,-1,4
10610,-9,-41,8,7,-27,-5,-1,-5
10615,0,29,7,6,54,10,1,-1
10620,9,-50,1,-7,-35,1,0,1
10625,-2,-41,-14,-1,11,2,0,6
10630,-3,14,-8,-6,-6,-2,-3,-6
10635,-1,-12,9,2,-7,-5,0,4
10640,11,31,5,7,27,1,-1,3
10645,-17,0,12,0,-18,-7,-4,-10
10650,5,34,15,0,-2,3,5,-1
10655,0,-4,-8,0,6,7,2,11
10660,4,34,-2,-5,8,6,1,-10
10665,-12,-71,12,1,-18,-10,-6,-4
10670,13,32,16,-2,6,3,2,5
10675,2,-10,-16,6,-25,-1,-2,-7
10680,-3,24,14,2,31,0,1,4
10685,-31,5,-19,-12,-13,6,2,1
10690,17,0,-7,7,25,-3,0,-3
10695,-1,12,12,-11,-13,-4,-4,-12
10700,5,-28,-12,4,-7,2,3,8
10705,13,30,-12,1,21,-7,-2,0
10710,-9,-12,4,-3,-28,-7,-3,-3
10715,-11,36,-6,5,26,5,1,-4
10720,12,-41,-1,1,-22,-3,-7,-8
10725,-8,15,19,10,-7,-11,-4,-3
10730,-6,-3,-17,-17,0,23,12,14
10735,11,-2,-2,5,8,-10,-5,-5
10740,-10,6,-1,-10,-27,-1,2,8
10745,-3,21,5,6,-4,3,-2,-9
10750,-6,-19,-17,3,36,-5,-8,0
10755,8,-2,11,-2,-7,-2,3,3
10760,4,-13,-22,-1,7,1,-1,-3
10765,5,12,-7,-3,-29,-4,-2,4
10770,6,-22,-8,1,5,-6,-4,0
10775,-6,12,11,-4,2,9,-1,-2
10780,-6,11,20,4,7,-6,-3,-5
10785,-11,-28,-45,7,7,-2,4,-2
10790,11,24,16,-3,-13,0,0,20
10795,-4,-17,-2,-14,-3,3,-1,-17
10800,2,12,12,5,-9,-5,-5,-3
10805,-1,23,14,3,20,4,2,-2
10810,-32,-18,-4,-1,-19,-6,-3,1
10815,39,-9,-34,-3,4,-13,-4,3
10820,3,10,4,11,9,16,5,3
10825,4,1,2,-15,15,7,0,-9
10830,3,3,8,2,-14,-15,-5,-7
10835,-19,-26,-13,3,-4,-7,-1,2
10840,-17,18,8,1,6,6,4,0
10845,-3,2,-10,-7,-33,-3,-3,-2
10850,14,-11,-6,3,32,1,-3,-3
10855,-3,-1,-2,4,-6,1,-1,10
10860,-2,0,3,-16,-16,-7,-4,-11
10865,-18,-22,-6,0,14,0,-4,-8
10870,20,6,-8,-7,-37,-7,0,1
10875,-28,-43,20,2,-17,0,-3,7
10880,34,-11,-3,5,49,1,-6,-4
10885,-2,3,2,-7,-8,10,4,-10
10890,-3,12,12,6,-7,-2,-2,2
10895,-2,-8,-16,2,-1,-2,-1,-1
10900,-18,-7,-1,-13,-31,1,0,-4
10905,5,23,25,4,25,-3,-1,-2
10910,8,-47,-12,-5,15,7,0,7
10915,-17,27,10,4,2,1,4,-14
10920,-1,-1,-3,-3,-15,-9,-3,-1
10925,16,6,-14,-4,-15,-5,-1,0
10930,-7,25,13,6,-6,-4,-4,0
10935,-1,-28,-14,-8,27,15,-1,3
10940,10,6,-7,1,2,-7,-3,9
10945,-12,11,11,1,2,3,-1,6
10950,12,-8,12,3,-6,-9,-6,-25
10955,3,19,-27,-5,-8,-7,-5,-1
10960,-8,-22,-10,2,10,3,2,1
10965,2,-16,-8,-4,3,3,1,13
10970,-20,-9,11,4,3,1,-3,-14
10975,6,25,13,1,-14,-6,-1,-1
10980,-7,-36,-8,-4,0,-4,-2,6
10985,-3,-4,0,0,-14,-9,-2,-1
10990,4,7,6,-1,-2,5,0,0
10995,10,-5,-6,3,12,11,6,1
11000,-21,25,6,6,22,2,2,-2
11005,13,-34,-7,-5,-6,-5,-2,0
11010,3,17,3,-2,-17,-4,-1,2
11015,2,-8,22,8,18,-6,-3,6
11020,-5,1,-39,-4,-12,-9,-1,-10
11025,1,-10,3,-10,-13,18,3,5
11030,-21,17,-7,-4,-2,-12,-3,-8
11035,5,2,14,2,13,4,3,1
11040,-6,7,4,5,-14,0,5,10
11045,18,-31,8,0,4,-15,-9,-5
11050,4,10,-13,3,12,10,7,12
11055,-5,6,12,-4,-18,1,2,-4
11060,1,36,14,-3,-7,-1,-4,-3
11065,-7,-45,-4,-1,-6,-3,2,7
11070,-18,1,-9,-3,4,-4,-5,-7
11075,15,2,4,1,-10,-7,-2,7
11080,23,18,1,5,-16,-6,-3,-4
11085,0,19,7,-4,18,3,1,-5
11090,-14,-13,9,-2,4,5,1,-6
11095,-5,8,-21,-4,3,4,-3,-2
11100,-3,0,7,1,-7,-2,-3,-2
11105,2,19,-8,1,-15,-1,-2,-3
11110,1,-17,-9,3,8,-3,2,8
11115,-5,-6,5,-3,-17,-10,-5,-7
11120,-1,-44,-6,-4,19,9,1,4
11125,-13,12,-4,0,13,-2,-2,-13
11130,11,-6,6,-1,-3,3,0,5
11135,4,6,1,-4,-15,-7,-2,-2
11140,-9,-4,-3,-3,-1,-9,-4,-14
11145,-2,20,0,2,-24,-5,-3,0
11150,4,-26,-6,0,36,4,1,8
11155,5,6,-2,-6,-28,3,0,-6
11160,10,-28,12,4,6,2,2,-3
11165,9,16,6,-1,4,4,-1,-3
11170,2,22,-14,2,-6,-7,-4,10
11175,-17,-30,10,-3,3,4,-1,-8
11180,-5,13,-9,1,7,-2,0,2
11185,-9,7,-7,3,-3,2,3,-1
11190,-2,11,13,-2,-10,-7,-5,-6
11195,-3,-21,-19,4,16,-5,-3,3
11200,10,41,6,-7,-22,5,3,7
11205,-4,-10,-13,0,13,-2,-3,-9
11210,-2,-4,-13,-1,7,1,1,-2
11215,-4,27,13,1,9,-2,-2,-3
11220,2,-16,-22,-5,-6,-5,-2,3
11225,11,-3,-3,6,-13,-1,1,10
11230,3,-5,2,-4,-5,3,-2,-4
11235,-1,26,1,-3,0,-4,-3,-9
11240,2,-41,7,-1,12,-6,-5,3
11245,-6,6,-7,8,7,2,-1,-1
11250,6,3,-7,-8,-41,-1,2,-1
11255,-14,-26,7,5,18,1,1,8
11260,-27,53,10,-3,-3,-2,-2,-4
11265,23,-29,-24,-3,29,-5,-3,-5
11270,-4,29,14,0,-7,4,-2,0
11275,-1,-4,-11,2,-1,-2,-1,-3
11280,-16,-10,7,-3,4,1,3,4
11285,16,-18,-7,-7,-26,-5,1,11
11290,2,-16,-21,0,28,-1,-3,-6
11295,-8,9,14,3,-14,-8,-2,4
11300,11,-14,-8,-9,-1,8,2,-6
11305,-8,39,30,0,10,5,0,-1
11310,-2,-92,-19,2,-1,-2,0,7
11315,2,3,4,-6,-9,6,-3,-10
11320,-5,17,7,5,3,-4,-3,3
11325,-9,10,-1,-6,-18,-5,0,-5
11330,-5,9,8,-8,27,3,1,1
11335,13,-5,-4,2,-2,-6,-6,-12
11340,5,17,21,7,3,9,6,8
11345,3,-23,-37,-3,-13,-4,2,4
11350,-11,31,11,1,-11,-1,0,-2
11355,0,-29,-6,0,3,6,5,14
11360,6,-20,-1,-7,-18,-1,-4,-14
11365,-6,14,-2,2,16,-4,0,-2
11370,-7,-12,17,4,-18,-3,-2,4
11375,10,7,-13,-9,2,2,0,-7
11380,-8,-22,8,1,-5,-1,-2,-6
11385,-10,-26,3,4,18,-3,0,6
11390,18,47,8,-3,-11,3,4,5
11395,-2,24,2,2,-24,-9,-3,-3
11400,-12,-38,-15,-7,8,-4,-4,1
11405,-15,13,1,-14,-15,-1,0,-6
11410,16,7,16,10,2,-4,1,5
11415,8,-5,-12,-10,-10,7,1,-6
11420,7,-17,14,1,-3,1,-1,1
11425,-4,3,-1,3,31,3,-7,0
11430,-22,-23,-9,1,-1,-3,2,-2
11435,-7,5,-4,-2,-3,5,1,-5
11440,-6,17,-8,4,16,-10,-2,7
11445,6,-26,4,-8,-1,1,-1,-1
11450,-10,50,5,-3,-6,-2,-6,-19
11455,5,1,-1,-3,-18,-5,3,18
11460,-1,10,1,0,4,4,0,-2
11465,16,44,6,2,14,-4,-1,3
11470,3,-36,-7,0,-2,-1,2,-6
11475,-16,-33,15,2,-2,-3,1,-2
11480,4,10,-26,-4,-10,-4,-3,4
11485,-9,-3,4,4,21,0,-2,-6
11490,5,-4,2,-4,-18,-3,3,1
11495,-9,12,8,5,28,1,-5,-2
11500,5,5,-26,1,-9,2,1,-8
11505,-14,-19,7,3,-18,-1,-3,-5
11510,14,0,-10,-7,-12,-1,-4,-9
11515,-2,0,1,-2,45,2,5,20
11520,-36,-32,3,2,-4,-7,-6,-8
11525,49,36,-3,-1,-13,-1,0,-2
11530,-10,16,5,-6,17,0,-1,2
11535,-15,-22,-18,2,-4,2,3,0
11540,13,22,-17,2,-8,-6,-5,-12
11545,-10,-18,3,-3,-3,4,-1,5
11550,-23,-13,0,5,12,0,-2,-4
11555,17,32,16,-2,2,6,4,-3
11560,-2,-15,-10,-3,-13,-1,0,-6
11565,-12,22,10,3,-15,-3,2,10
11570,-3,8,-11,1,-4,-5,-5,-11
11575,20,-26,11,-8,-2,5,-4,3
11580,3,-6,12,4,8,0,5,2
11585,-18,6,6,-3,15,0,-4,-9
11590,0,-9,-3,-2,-11,-5,0,3
11595,-14,-9,-17,1,15,0,-1,-4
11600,6,4,3,-1,-9,-2,0,8
11605,14,1,-7,2,1,-3,0,-5
11610,3,3,4,-1,26,3,0,-2
11615,11,10,12,2,-12,-4,-4,-4
11620,10,22,-1,-7,-8,5,-2,4
11625,-21,-2,-14,-1,-6,-4,-2,-2
11630,8,-18,-14,-2,-9,-4,1,10
11635,-17,-25,-8,7,-1,-12,-6,-16
11640,21,54,10,-19,-7,0,-6,-1
11645,-2,-1,40,-3,3,4,2,-6
11650,7,-33,-16,-4,-5,-4,-5,2
11655,10,31,2,0,-11,2,-1,11
11660,-20,1,5,7,-13,-7,0,3
11665,-12,-24,-9,-7,60,1,-2,-8
11670,-2,-53,17,-2,-12,7,-1,-13
11675,9,20,-8,1,0,-3,2,6
11680,-10,-26,-4,1,-4,2,6,3
11685,10,0,1,1,-37,-6,-3,1
11690,-19,19,10,9,29,-4,2,19
11695,7,0,8,-17,-17,9,2,-26
11700,-14,-29,-1,7,17,-3,-7,-14
11705,24,-6,-14,-4,-24,-2,1,10
11710,-6,26,9,5,14,-2,-2,-2
11715,-25,-45,-2,9,-17,-2,0,12
11720,21,4,-3,-1,-11,5,1,5
11725,-18,-2,8,-5,43,19,7,2
11730,12,6,-21,3,-22,-6,-8,-24
11735,-4,20,4,-3,-13,-11,-1,13
11740,2,36,-4,6,-4,-5,-2,-8
11745,5,-46,-14,-4,-9,4,1,23
11750,-19,-2,4,-3,-12,5,3,-12
11755,23,42,14,4,35,6,-2,-18
11760,0,0,-10,0,11,1,3,5
11765,-5,-37,-17,1,-24,-15,-5,-9
11770,-10,35,9,-3,-8,0,0,9
11775,6,-39,2,-4,-5,3,4,11
11780,-5,-21,-4,-6,-2,-3,-4,-12
11785,4,39,3,6,11,-6,-4,0
11790,11,-24,-15,-5,-10,-2,-2,2
11795,-20,15,-7,16,24,-12,-6,3
11800,9,-24,7,-17,-12,16,6,-3
11805,-12,8,-11,-6,-16,1,-3,-13
11810,4,55,12,6,-15,-5,2,5
11815,-14,-30,-30,-6,31,4,0,1
11820,14,-13,7,8,-6,-16,-4,6
11825,-1,13,21,-8,-38,-2,-5,2
11830,-13,27,4,-13,40,14,4,-15
11835,30,-18,-5,7,-2,8,-1,-4
11840,-17,-20,-19,-6,5,-8,-6,-1
11845,1,34,23,5,-27,-7,2,5
11850,10,-81,-24,0,9,-1,1,4
11855,-9,6,6,-6,-11,-1,1,3
11860,-12,9,13,4,12,3,2,2
11865,-12,-20,-14,3,-18,-8,-5,-9
11870,19,-53,-15,-2,32,6,3,5
11875,-8,48,13,-4,-21,-4,-1,1
11880,19,-55,1,-2,17,-4,0,8
11885,-25,13,2,2,-36,-8,1,-4
11890,17,26,-20,-4,28,6,-4,0
11895,-5,-58,-11,-10,-17,-2,-6,-6
11900,1,49,-7,8,-17,-12,-1,6
11905,6,3,-2,2,51,19,6,6
11910,-14,17,13,-7,-61,-10,-2,4
11915,8,12,-14,0,-14,-20,-11,-17
11920,-18,0,-3,-1,29,10,-11,-24
11925,16,3,12,3,14,5,4,7
11930,-20,29,6,-4,-12,12,5,-4
11935,32,-45,23,-14,-5,-2,6,24
11940,-11,53,11,8,-10,-1,0,-9
11945,9,-14,7,2,24,-1,0,1
11950,-12,3,4,6,-5,-2,-2,-3
11955,-20,-2,-10,-3,8,-2,1,-5
11960,14,22,0,-3,7,1,1,1
11965,13,25,1,5,1,0,0,-4
11970,-11,-32,-11,3,-24,-11,-1,14
11975,17,29,-8,-8,27,13,0,-11
11980,5,-9,5,5,5,3,1,0
11985,-19,22,-5,-3,-9,0,0,5
11990,8,-15,20,-2,2,-6,-5,-4
11995,1,-6,-37,8,7,-5,-4,-4
12000,-14,5,0,-7,-23,1,0,7
12005,13,-1,-2,-3,10,-2,-1,-6
12010,6,49,15,5,14,1,-2,-3
12015,-11,0,1,-4,-8,0,0,9
12020,-8,-26,-3,-5,27,6,4,-9
12025,-5,-1,-13,6,-10,-6,-6,-12
12030,5,-5,-2,-6,-11,-1,-4,-6
12035,-19,61,25,8,6,-2,8,19
12040,5,-11,-8,-8,-35,-7,-6,-14
12045,2,0,-17,-11,-27,-12,-8,-11
12050,11,25,-4,5,63,17,8,1
12055,-14,-20,-10,1,-3,-5,-6,-8
12060,-6,22,41,8,-19,-8,1,10
12065,-4,-7,-5,-8,-2,7,7,5
12070,31,-19,-1,-3,-11,-12,-8,-8
12075,-7,29,-11,-8,-14,-1,0,-4
12080,-1,-12,-5,1,12,0,0,8
12085,-6,27,9,3,-3,-4,-2,-12
12090,-24,13,6,-1,-30,0,4,13
12095,13,-40,-5,-5,16,5,-5,-19
12100,8,-3,-13,1,6,-5,-4,1
12105,-20,-26,-25,-5,10,-1,1,-3
12110,15,-3,5,-2,-7,-5,-6,-3
12115,-15,-4,-6,2,-14,-5,-5,-9
12120,5,9,-4,-5,-62,-8,0,5
12125,9,-27,0,4,38,6,2,8
12130,-25,14,-11,-1,39,6,6,7
12135,25,-13,5,-3,-17,0,-2,-6
12140,4,25,1,-2,2,4,2,3
12145,8,-18,15,14,-1,-4,-2,7
12150,-11,-21,-32,-18,-51,-10,-7,-5
12155,-23,14,15,12,29,-2,0,-4
12160,4,-1,-9,-6,8,1,2,-2
12165,1,16,-8,-7,12,8,1,-9
12170,6,-1,4,5,-7,2,-1,-3
12175,2,16,22,11,7,-6,-2,2
12180,-8,-42,2,-3,-23,-10,-5,0
12185,-6,-9,5,-10,14,-7,-5,2
12190,-11,2,-9,4,18,-1,-4,-4
12195,-9,-28,-6,-8,-30,2,7,4
12200,26,41,14,2,46,9,2,2
12205,-13,-18,11,2,-30,-4,-2,-2
12210,13,-12,-14,-1,13,-1,-4,2
12215,7,17,1,-1,-19,-5,-2,-6
12220,-13,-9,-11,0,26,3,-2,2
12225,11,10,6,-1,-3,0,1,2
12230,-7,13,6,-4,-18,-7,-3,-9
12235,-14,5,-4,0,13,0,0,17
12240,15,-29,-16,3,-10,0,7,-3
12245,-4,31,9,-4,-2,0,-5,-11
12250,0,-30,2,7,-4,1,0,-9
12255,4,7,-8,-7,-9,0,0,0
12260,-26,-4,2,0,5,-3,-2,-2
12265,21,32,5,4,0,-3,1,7
12270,-12,-79,8,1,-10,-8,3,12
12275,23,28,0,-9,7,13,8,-2
12280,3,-1,-9,-1,19,0,-9,-7
12285,-7,-3,-12,7,-13,-8,-2,-1
12290,-1,10,7,-5,0,2,1,4
12295,-5,-5,1,4,-9,-4,-5,0
12300,-15,-19,-3,-5,-16,1,1,-5
12305,5,-11,-24,7,23,7,2,5
12310,8,9,3,-3,-7,9,0,-11
12315,9,0,0,-2,8,-6,-4,7
12320,-11,27,-11,-3,3,-1,-6,-20
12325,-9,-53,-9,-1,-8,-8,-5,5
12330,0,11,6,-1,-4,2,-3,-6
12335,1,9,-10,4,2,4,4,7
12340,9,-22,8,4,3,4,2,9
12345,-17,7,3,-8,-24,-4,2,0
12350,22,-6,-1,3,17,1,3,3
12355,8,9,-7,-6,4,-4,-4,-9
12360,-3,-33,2,-5,-26,-8,-4,-5
12365,6,3,15,2,44,16,2,-4
12370,-11,-1,-13,-5,-5,-2,3,2
12375,-11,-24,-5,3,-20,-8,-2,5
12380,-17,28,6,4,28,-1,0,-5
12385,34,18,5,-18,-20,5,0,-1
12390,-15,-31,-30,-1,-10,-12,-9,-7
12395,-15,-10,0,-4,-1,0,0,-3
12400,5,-14,12,5,5,5,5,11
12405,4,40,1,-1,-17,0,5,-3
12410,-1,-4,-4,-3,12,-7,-2,1
12415,-4,6,13,0,-3,-3,-5,-7
12420,-24,-1,1,-2,-6,-9,-4,7
12425,-1,-20,-11,-2,-9,-1,-1,-3
12430,13,-5,9,13,-8,1,0,-15
12435,-7,-15,-1,-8,53,4,0,-2
12440,8,11,-12,-5,-2,-2,3,3
12445,-25,-17,-7,3,-1,-1,-3,10
12450,19,-15,14,-5,-19,-9,-6,-9
12455,-12,19,11,9,2,-2,-2,-7
12460,20,3,-12,-2,-15,5,-1,-7
12465,-7,-13,-16,6,-4,-8,0,1
12470,-17,11,16,-9,1,4,2,6
12475,1,10,6,2,1,-2,-2,3
12480,-1,-24,-8,-7,-2,3,3,8
12485,7,3,5,3,-24,-11,-10,-11
12490,-14,16,-3,2,24,3,5,13
12495,17,-9,6,3,2,4,0,-9
12500,-1,15,5,3,4,-3,-2,-4
12505,-4,-14,-10,-3,7,-2,0,1
12510,-3,3,6,0,-4,3,4,14
12515,-4,23,-13,-3,-26,-12,-4,-4
12520,18,0,1,-7,1,-5,-4,-14
12525,3,-8,-2,1,6,0,-2,-1
12530,1,21,7,5,-14,-8,-5,1
12535,-17,-13,4,2,-6,14,5,0
12540,9,0,-23,-1,19,4,4,15
12545,-4,33,19,-1,3,-8,-6,-15
12550,-16,-20,-30,-23,-12,-5,-6,3
12555,11,-34,-2,0,8,5,-1,-9
12560,0,9,6,0,-18,-4,-5,1
12565,-9,4,7,8,20,-1,2,-1
12570,2,-1,-16,-3,-4,4,1,-6
12575,1,18,-3,-3,-19,-8,0,-2
12580,-40,-13,8,1,19,6,7,13
12585,33,-31,-8,-3,-13,-3,-2,-17
12590,8,58,14,4,6,-2,-3,1
12595,-16,-39,-33,-3,20,-3,-4,-1
12600,7,2,10,1,-32,-4,-3,0
12605,-15,-10,-18,-4,12,5,2,0
12610,-2,27,10,3,-10,-4,-1,3
12615,1,-44,13,-2,-16,4,1,-13
12620,-4,40,-6,4,27,-7,-5,-2
12625,-4,-25,2,-10,-26,-2,-1,11
12630,15,5,10,13,26,1,-3,-18
12635,-8,19,-7,-10,-25,2,0,12
12640,-3,-18,11,2,-42,-11,-3,-7
12645,4,-3,-1,-2,40,14,5,5
12650,-30,4,-6,3,7,-2,0,1
12655,26,36,13,2,4,2,-1,15
12660,9,0,2,2,1,-1,-1,-17
12665,5,-7,-36,-16,-13,-3,-6,-1
12670,-4,-12,-3,5,0,2,0,3
12675,-1,-23,-19,-5,22,-1,0,4
12680,-16,-12,7,4,16,7,0,-3
12685,-8,5,-4,-2,-24,-8,-5,-11
12690,12,-13,-12,-1,-7,0,0,4
12695,-7,20,10,0,11,-2,-2,-5
12700,7,4,0,-3,2,0,-4,-5
12705,-5,-5,9,7,-25,-1,1,6
12710,-3,8,4,-6,21,5,0,-8
12715,11,19,-11,1,-5,-3,0,10
12720,-4,-13,1,-1,8,2,-1,-5
12725,-25,7,8,5,0,1,3,6
12730,32,-10,-4,-10,-17,-3,-2,1
12735,5,22,26,7,-9,-7,-2,-1
12740,1,14,-21,-10,12,2,-2,-4
12745,-1,-16,-12,-6,17,-2,-1,2
12750,-13,-1,6,2,-6,-4,0,-1
12755,-28,-28,-8,2,3,0,-1,-12
12760,16,15,7,-4,-19,-3,0,11
12765,3,8,10,0,3,-3,0,1
12770,3,7,-3,3,6,-6,1,-3
12775,10,-12,9,-7,-12,5,-1,-10
12780,-15,7,15,-1,10,17,6,6
12785,2,-14,-25,-5,-2,-1,-3,0
12790,-5,27,3,-1,3,-3,0,5
12795,-3,-5,0,0,-18,-8,-3,-5
12800,0,1,-5,4,4,-7,-1,-2
12805,-3,-11,8,3,-4,2,4,17
12810,36,67,26,2,-17,-10,-4,-24
12815,1,1,-30,-2,37,27,5,1
12820,-1,-17,-7,-6,-5,-5,-2,0
12825,-5,8,12,3,7,-5,-2,-3
12830,-13,-16,6,-1,-26,-3,-1,7
12835,1,-7,3,1,-10,-5,-2,0
12840,1,-10,-3,7,5,-2,-1,5
12845,-11,27,3,-8,-34,8,3,2
12850,3,-41,1,-7,46,1,0,-3
12855,2,-1,1,2,-2,-3,-4,-3
12860,-2,5,-7,-6,-12,0,-6,1
12865,1,-2,5,7,-4,-10,-1,-10
12870,-14,-7,-9,-3,-8,6,0,8
12875,-10,-11,-5,9,22,-6,4,3
12880,3,10,3,-7,-17,6,1,-2
12885,31,-8,22,-2,16,1,-2,-8
12890,-14,-11,-35,-4,2,3,-1,-5
12895,12,-4,16,5,-15,-16,-5,2
12900,-8,-24,-6,-9,-14,-4,2,2
12905,1,11,14,1,25,1,-1,1
12910,-17,8,2,1,-21,7,1,-6
12915,-11,-48,-11,1,12,-4,-4,-9
12920,10,24,22,-2,-6,-1,-1,0
12925,-1,-10,-17,1,5,0,-3,-1
12930,20,14,3,-6,-1,-5,-4,7
12935,-16,16,-7,-1,4,1,3,-1
12940,9,-22,0,-5,15,0,1,-6
12945,-31,-6,-3,7,-6,0,-2,-15
12950,25,-4,0,16,5,-2,-3,3
12955,-4,18,14,-15,-20,8,6,14
12960,0,-1,-11,1,1,-10,-5,-8
12965,-1,0,-8,5,3,2,-1,1
12970,0,-39,-3,-8,4,-3,-4,-3
12975,9,-2,2,3,-9,-4,-1,8
12980,-25,4,-3,11,35,3,1,-6
12985,25,40,12,-16,-17,1,-1,3
12990,-8,-45,-5,1,-9,1,1,-5
12995,9,49,-7,-1,13,-2,-3,8
13000,-3,-48,7,-6,-10,-5,0,3
13005,-16,-1,-4,5,2,-3,-3,-5
13010,-8,-6,-12,-7,7,1,-2,-6
13015,-12,22,8,0,-8,-1,-1,-10
13020,12,11,-10,2,-6,-2,1,0
13025,-3,-4,-4,9,-1,-2,-3,-5
13030,-20,11,3,-22,7,-1,4,15
13035,17,-57,-4,0,-4,-2,-1,-4
13040,-6,8,-6,6,7,-2,-3,-2
13045,15,-30,-14,-6,-6,3,2,10
13050,-19,-17,5,14,4,-9,-6,-9
13055,1,24,-10,-17,-20,4,-1,-2
13060,20,21,15,-1,19,7,4,7
13065,-13,-35,-15,1,-5,-8,-4,-5
13070,1,6,1,12,15,1,6,8
13075,2,-13,6,-17,-32,1,2,1
13080,-7,11,-6,-2,2,-1,-6,-17
13085,-1,8,-1,7,30,4,1,-14
13090,2,29,7,-9,-26,9,-2,-3
13095,10,2,-1,12,5,-13,0,15
13100,2,23,0,-1,8,-3,-3,1
13105,-7,-7,-5,-17,-3,-3,-1,1
13110,10,-3,5,0,-4,2,2,1
13115,-11,6,-4,10,3,-3,-6,-4
13120,5,5,3,-3,-7,-2,-1,2
13125,-4,9,-25,0,-1,1,1,1
13130,0,-38,15,-9,-13,4,4,1
13135,-21,3,-34,-8,3,-3,-1,3
13140,31,9,-11,4,-5,-7,-3,-9
13145,3,-12,27,0,-12,-4,-4,-9
13150,10,10,-5,-4,11,5,3,4
13155,-3,-1,0,11,14,0,-1,-5
13160,-20,-40,6,-2,-22,-7,-2,10
13165,-9,15,-7,-10,-7,3,1,-1
13170,10,-14,-2,5,1,1,-2,2
13175,7,16,16,3,18,-2,-2,-14
13180,-10,-8,-14,-1,-5,-2,0,4
13185,6,14,13,0,-12,-1,0,4
13190,-8,-12,4,1,-30,-8,-4,1
13195,-8,18,23,-1,26,0,-1,-1
13200,9,-14,-21,-1,-9,4,1,-15
13205,-4,7,9,5,-8,-6,1,7
13210,-11,17,-8,-2,21,3,0,-3
13215,-1,-11,-6,-1,-19,-8,0,20
13220,11,-4,-1,1,24,7,1,-10
13225,6,0,3,-2,-3,2,1,-16
13230,1,8,2,-3,-13,0,-1,-5
13235,-1,1,7,-1,16,-1,-4,-4
13240,-14,-8,2,5,-33,-7,2,20
13245,-5,-2,-12,-4,36,4,-3,1
13250,9,13,-16,2,-12,-12,-8,-7
13255,-8,-17,0,-6,-5,7,4,-5
13260,-1,22,5,-1,-6,4,4,11
13265,18,10,3,-2,-4,-8,-7,-4
13270,-16,-1,2,4,3,1,2,2
13275,11,-2,12,-1,-49,-6,-8,-15
13280,-20,-63,-28,2,66,2,-1,7
13285,-7,4,3,1,-13,-2,2,-5
13290,9,-4,0,5,4,0,1,0
13295,-1,19,-1,-8,-3,9,4,-5
13300,5,-12,8,3,-5,2,-3,-6
13305,-13,1,-8,0,0,-5,-1,11
13310,9,20,0,1,-2,-2,0,-2
13315,1,-12,-5,-4,-13,-7,2,0
13320,-4,-18,2,-1,18,8,3,0
13325,-2,20,-1,-1,-13,-3,-5,-2
13330,-2,19,7,2,19,-3,2,1
13335,-10,-19,-13,3,-18,-9,-5,-2
13340,-9,19,14,-9,-13,4,3,2
13345,18,-15,-15,4,9,0,1,-3
13350,-3,-13,12,-3,-22,-6,-6,-7
13355,-3,3,-6,-2,31,13,1,1
13360,-17,1,-6,-4,-24,-10,-4,-15
13365,3,-4,11,2,17,3,1,-3
13370,8,25,-1,-8,-14,-5,-3,4
13375,-11,-6,-5,3,29,2,1,5
13380,16,-2,-9,2,-4,-1,-2,-4
13385,-12,0,-7,-11,-17,-7,0,6
13390,-12,8,-5,3,18,-1,-4,-11
13395,4,-18,3,4,-7,-3,1,1
13400,-11,17,5,3,-15,2,-2,-3
13405,14,-4,-23,-1,11,-3,0,9
13410,3,-1,3,-10,4,11,2,3
13415,8,-11,0,-2,4,-5,-2,-1
13420,-13,9,5,5,-1,-3,-3,-13
13425,-13,-34,-10,-4,-53,-9,-3,-1
13430,-31,-7,-2,0,61,19,6,3
13435,33,13,2,1,1,-2,-5,-9
13440,5,3,-16,-3,-11,-6,-2,-4
13445,-8,14,8,-1,0,2,-3,5
13450,5,7,4,0,-16,-6,2,4
13455,-8,-50,-25,-9,1,-2,-3,-7
13460,-8,19,6,1,11,4,5,5
13465,2,-9,9,2,-7,7,-1,-6
13470,-27,28,-2,-3,-18,-1,-4,3
13475,39,14,25,9,20,-1,0,-9
13480,1,2,0,-19,-17,-5,-7,0
13485,-9,-23,-11,0,2,-2,2,7
13490,-5,0,4,-1,-15,-8,-3,-14
13495,-4,4,2,2,-4,-1,-1,3
13500,19,-2,3,0,35,1,0,4
13505,-1,23,6,5,1,3,3,5
13510,11,-9,-20,-8,0,-9,-2,6
13515,-28,-22,5,-2,-5,-3,0,-9
13520,-7,13,14,0,-26,-4,-1,1
13525,14,-7,8,5,36,8,-1,3
13530,-13,12,0,7,0,-4,-2,-6
13535,34,-4,-14,-6,-15,3,1,4
13540,-17,12,1,0,-8,-8,-5,-2
13545,15,-10,2,4,-14,-7,-2,-7
13550,-10,-12,9,-1,-2,1,-3,-12
13555,-21,15,3,7,-2,3,0,4
13560,11,-35,-21,-14,-11,-2,1,10
13565,-11,28,1,1,16,-1,0,-5
13570,34,-30,-3,2,-8,-1,-1,5
13575,-20,48,7,-1,0,-1,-1,-6
13580,7,11,-21,1,5,-5,-2,3
13585,-1,11,14,-2,8,5,6,6
13590,-28,-14,-6,-11,-20,5,3,-8
13595,19,12,1,1,3,2,-2,3
13600,-4,-12,-7,3,-8,-6,-2,-10
13605,-1,-3,4,-1,19,-1,6,5
13610,16,-1,-19,9,-9,-12,-8,-5
13615,-17,-4,19,-5,26,21,1,-5
13620,1,17,0,3,1,-2,-2,5
13625,-3,7,-12,-7,-19,2,-3,-6
13630,6,-34,-13,4,-9,-2,1,6
13635,-3,-12,-7,-10,-16,-5,0,4
13640,-10,-3,11,5,19,5,1,-10
13645,-10,16,13,-6,-16,-3,-6,3
13650,31,29,-13,-1,12,0,1,2
13655,-2,5,-10,2,-18,-5,-1,6
13660,3,-30,-7,-1,4,1,1,-11
13665,-16,2,7,6,2,6,-2,-7
13670,-1,-16,0,-9,15,8,0,-3
13675,-4,5,-5,3,-3,0,2,3
13680,-3,1,11,-3,-32,-9,-2,9
13685,7,-55,-9,3,33,-1,-1,-2
13690,-9,-2,14,4,-3,0,0,-8
13695,4,28,-17,-2,-18,-3,-1,-3
13700,9,7,4,-5,17,0,-1,6
13705,0,-4,2,-3,15,5,-1,-5
13710,-20,-4,-7,-3,-2,1,3,10
13715,-6,-10,-5,3,-13,-12,-6,-5
13720,-4,-17,-15,-5,-35,-11,-3,1
13725,22,9,12,1,21,6,6,-5
13730,1,24,19,-3,6,9,4,2
13735,-7,-27,-13,7,-2,-2,-3,0
13740,-17,1,7,2,8,1,-1,-3
13745,5,1,-3,-7,-31,-11,-2,11
13750,-14,-28,3,0,-10,-10,-6,-8
13755,-2,-2,20,1,16,5,0,-8
13760,16,19,-2,-2,-16,-4,-7,6
13765,3,-11,-11,3,-16,8,6,0
13770,-20,-19,-8,-6,57,-1,-1,6
13775,30,7,10,-3,-12,-4,-5,-7
13780,10,0,-14,5,19,3,2,-1
13785,-25,4,-2,2,-16,-11,-7,-2
13790,34,21,2,-13,-17,14,11,4
13795,-18,-6,4,1,-4,-5,0,0
13800,4,10,-7,8,51,10,4,0
13805,1,4,-13,4,-16,-3,-3,5
13810,-7,-10,3,-1,-33,-15,-6,-5
13815,-8,-1,-14,-1,40,9,5,5
13820,8,24,25,1,-10,11,3,-9
13825,-15,-16,-3,-1,12,-6,1,3
13830,18,-1,0,8,-26,-5,-3,2
13835,-28,4,-3,-4,21,0,-3,-1
13840,5,14,15,-5,4,4,-3,-16
13845,2,-6,9,0,5,-4,-2,1
13850,17,-6,-22,-1,-31,1,0,3
13855,10,8,10,13,29,4,-2,-4
13860,-9,-21,4,-18,-24,0,3,8
13865,-13,16,13,3,22,6,0,-1
13870,-14,-19,-5,-5,-4,-6,-4,-9
13875,1,0,-11,-11,-25,-6,-3,0
13880,-17,-6,-1,2,11,0,0,13
13885,25,1,8,-3,-9,4,-5,-18
13890,-2,-26,-11,7,9,-1,0,5
13895,-8,14,-5,-7,8,-4,1,15
13900,-6,-7,4,3,5,-7,-5,-20
13905,6,31,9,-7,-17,2,1,-8
13910,14,11,-15,3,12,-2,-3,0
13915,-6,-12,-14,-1,17,1,-1,-3
13920,-6,-25,2,5,-17,8,3,8
13925,-12,-26,-13,0,-1,-5,0,2
13930,-5,19,-3,0,24,-2,-3,-1
13935,-2,5,5,-1,-35,-1,1,-5
13940,13,6,-24,-11,-5,6,2,6
13945,-3,12,7,-1,-5,-8,-4,-7
13950,-3,-12,16,3,17,7,0,2
13955,-1,2,9,3,6,-3,-4,-5
13960,-1,3,0,3,2,0,1,4
13965,3,-17,-4,-7,-2,-5,1,3
13970,-36,7,7,7,-14,-3,3,14
13975,34,29,5,-10,8,-1,-7,-24
13980,-9,-57,-14,-2,8,-1,-3,-9
13985,-6,25,5,2,14,11,3,2
13990,-2,-12,6,3,-10,-6,-1,2
13995,-6,-12,-2,1,-1,1,3,9
14000,-11,-2,-18,-9,-19,-9,-1,5
14005,5,7,-2,-2,-5,-4,-1,-18
14010,11,23,2,1,3,4,-1,-2
14015,-2,-16,2,2,-7,1,2,2
14020,-11,22,-1,-1,1,-1,-1,2
14025,1,-13,-2,6,3,3,3,10
14030,-5,7,4,-5,-4,-2,1,-10
14035,-7,-6,2,-8,-22,2,-2,-2
14040,5,5,10,7,6,-5,-3,-11
14045,6,-15,-5,-3,-16,-8,-5,8
14050,11,7,7,-2,24,3,0,-6
14055,-15,-28,-8,8,6,10,3,2
14060,-7,4,-17,-2,-3,-5,-2,-3
14065,-1,14,-1,-4,-16,-4,-4,-3
14070,11,2,10,0,-3,-9,-5,4
14075,-5,10,-11,-4,-5,-1,0,-5
14080,-7,-3,12,-3,6,-2,-2,9
14085,22,17,-18,2,-18,-2,3,-6
14090,-8,8,3,-6,0,12,2,-2
14095,4,-6,-7,13,36,-7,-4,-7
14100,5,4,13,-21,-37,-1,1,3
14105,-21,-21,-24,-7,-3,-7,-6,-10
14110,-12,-2,-1,5,13,-4,-4,-1
14115,7,-23,11,0,-50,-4,5,7
14120,16,7,16,5,67,18,1,-5
14125,-10,-6,-31,-2,-9,-10,-3,-2
14130,2,-2,-13,-14,3,5,1,-8
14135,-17,2,2,-2,-11,-5,-2,4
14140,19,8,-6,12,-3,-13,-5,-2
14145,-16,-7,17,-11,-10,4,4,9
14150,2,4,-3,5,-10,-5,-2,-18
14155,4,-3,-17,-6,8,2,0,-6
14160,-5,4,3,1,1,-1,-1,-1
14165,8,16,9,9,21,6,1,8
14170,-9,-58,-17,-12,-17,-3,-2,5
14175,-18,3,17,0,-6,-4,1,-5
14180,8,17,-12,5,-43,-9,-3,-4
14185,17,-28,1,-5,63,13,3,-4
14190,1,13,10,5,5,1,2,6
14195,5,-5,-5,0,-9,-1,-3,0
14200,-7,-16,0,-1,-16,-3,-3,2
14205,-11,2,10,4,-4,-2,1,2
14210,-16,6,-4,1,9,-8,-2,-5
14215,31,-2,-1,2,8,9,5,10
14220,3,36,7,-7,-22,-2,0,2
14225,-11,-10,-3,-2,18,5,2,-4
14230,5,10,5,0,-17,-4,-3,-4
14235,6,22,-12,0,2,-10,-5,8
14240,-15,-33,7,-3,-10,-5,0,-4
14245,-19,4,10,1,24,12,0,-10
14250,24,-13,-11,6,-6,-2,-2,4
14255,-11,9,0,-8,-31,-3,-1,2
14260,18,0,-9,1,40,4,2,5
14265,-15,-6,-4,-4,-35,-10,-3,5
14270,5,10,10,0,10,3,-4,-16
14275,-3,-11,9,0,6,0,2,-3
14280,-1,10,-6,-2,3,2,1,-2
14285,-11,0,14,-1,-21,-3,-2,1
14290,10,5,-4,8,-12,-5,1,9
14295,-5,-12,2,-15,15,7,-2,-2
14300,-21,20,3,-3,1,-1,-2,2
14305,23,15,-9,0,-2,-1,0,-3
14310,-2,-12,3,-1,-22,-2,1,3
14315,4,5,-7,1,28,2,-1,2
14320,1,-36,4,3,-16,0,2,-2
14325,-2,5,-12,-10,11,0,-4,0
14330,-7,-13,-7,-5,2,-6,2,10
14335,-11,-5,-3,0,-16,0,-5,-24
14340,14,11,-5,0,5,-8,-4,-7
14345,12,5,20,2,9,2,0,-8
14350,-8,17,-1,2,7,5,5,3
14355,-13,-6,-11,-12,-11,-4,0,10
14360,-9,-1,0,4,-5,-1,4,0
14365,2,11,3,1,-16,-6,-6,5
14370,-5,5,-7,-6,24,9,3,0
14375,-13,16,15,-2,-9,-2,-6,-12
14380,23,-45,1,6,9,-3,-2,-2
14385,-16,4,-20,-5,-15,-3,2,8
14390,2,-6,8,-5,17,7,-3,-2
14395,11,27,3,12,-23,-13,-1,0
14400,-27,-15,12,5,35,14,4,-9
14405,9,-4,-2,-14,-12,1,0,2
14410,2,13,0,-2,-7,-3,0,4
14415,-7,-29,-9,0,-7,-9,-4,4
14420,-6,15,-16,-8,-5,-5,-10,-15
14425,-11,-12,4,11,11,2,7,9
14430,7,-13,-1,-8,-1,2,-1,-16
14435,6,1,-6,8,1,0,1,-2
14440,1,20,11,-11,-17,-2,-5,8
14445,-3,-13,-11,3,3,-3,-3,-4
14450,-17,24,14,1,-14,-1,0,-3
14455,-1,-26,-36,-2,25,-1,-3,3
14460,4,6,0,1,4,3,0,-6
14465,11,-2,6,1,-9,-2,1,3
14470,-3,6,10,2,10,1,-2,0
14475,-4,14,14,-3,-2,1,1,6
14480,1,10,-17,4,11,3,-2,-4
14485,14,10,6,2,27,5,1,-5
14490,-6,-15,3,-2,-14,-1,-1,4
14495,-5,8,5,-3,-7,-4,1,-1
14500,-17,-30,-12,-3,5,1,3,-4
14505,18,10,8,-1,-30,-5,-3,12
14510,-1,-7,-6,2,20,2,0,-9
14515,-1,0,1,-2,-2,1,-1,-7
14520,4,18,9,1,-23,-6,2,13
14525,-10,-2,-5,-3,-8,-12,-7,-11
14530,11,7,-9,9,13,8,3,7
14535,15,1,9,-5,-5,4,5,6
14540,-4,-7,0,-3,-1,-1,-1,0
14545,-2,-14,-19,5,-31,-10,-5,-2
14550,-3,-5,-11,-6,-8,-11,0,0
14555,-25,34,7,2,44,16,1,-6
14560,30,-25,-8,2,-8,-5,-3,-3
14565,-8,-7,15,-3,7,10,-1,0
14570,-4,-7,-6,-3,-9,-3,-1,2
14575,11,-1,-5,0,-10,0,4,15
14580,-12,8,2,1,5,2,-2,-10
14585,0,26,-3,-1,-1,-7,-5,-11
14590,0,-38,-5,-1,-15,-6,-6,-3
14595,-3,-12,7,-1,16,-1,2,5
14600,23,27,0,3,3,5,5,15
14605,-1,-21,-5,0,1,-2,-3,-12
14610,8,21,8,7,-6,-6,-1,6
14615,2,7,5,-6,-27,3,-3,0
14620,-13,-11,-9,-4,6,-4,-1,-1
14625,2,35,1,2,-20,0,-1,-15
14630,-3,-7,-8,1,44,-2,-2,2
14635,2,-3,6,2,-22,3,1,3
14640,-16,0,13,1,17,-4,-4,1
14645,14,10,-1,-3,3,8,2,1
14650,-11,-7,5,6,-28,-6,-1,-4
14655,16,-30,0,-9,21,5,-2,-2
14660,3,29,7,-1,-12,1,2,7
14665,6,-11,4,1,4,0,1,4
14670,-8,3,-10,-7,0,0,-2,-1
14675,-7,-14,0,8,9,-11,-5,-5
14680,-4,-11,1,-17,-21,-3,0,0
14685,-6,4,8,0,-18,2,-1,-4
14690,3,-11,-17,-2,3,0,2,-1
14695,4,2,-5,-3,21,-3,0,1
14700,-7,-5,-1,5,4,7,1,2
14705,-5,7,0,-1,15,-4,-4,16
14710,-3,-8,-7,-6,-30,-2,-6,-28
14715,7,-10,3,16,5,1,-1,-5
14720,13,0,-14,-10,14,14,5,0
14725,-22,-14,22,-5,2,-2,-1,8
14730,17,11,14,2,-3,-8,-2,3
14735,-6,-6,-27,-4,-16,0,0,-3
14740,-10,15,6,5,-4,-7,-6,-1
14745,2,-75,-18,-3,8,-1,2,-9
14750,-6,19,-8,-2,-2,9,-1,0
14755,2,13,13,-7,-8,-6,-1,-11
14760,-3,-13,0,4,2,-4,-3,2
14765,-10,4,-13,2,-3,-5,-7,-4
14770,-5,10,17,3,-8,1,2,4
14775,6,-13,-14,-14,-8,7,6,11
14780,2,17,-2,2,24,2,0,-6
14785,-4,-32,-13,0,10,2,2,6
14790,13,3,4,2,2,-3,-3,-13
14795,9,18,7,-7,-16,-4,0,4
14800,-27,-7,-1,-1,-11,-6,-3,-8
14805,26,6,-11,-1,16,1,-2,4
14810,-23,36,10,5,10,6,6,11
14815,13,-23,-5,-6,-12,-8,-2,6
14820,24,-1,-5,3,0,-1,-1,-3
14825,-9,23,1,0,-7,-1,0,-1
14830,-12,-45,-2,-1,12,-7,-5,-14
14835,-13,19,0,4,13,7,-2,-7
14840,3,9,-5,-1,-26,0,4,10
14845,-10,1,2,5,-8,2,-2,-4
14850,14,7,-3,-2,28,-1,3,3
14855,-11,7,9,-3,-8,-2,-4,-8
14860,-19,-22,-6,-5,-10,-10,-6,0
14865,7,4,-3,3,6,2,0,-17
14870,5,16,-2,-7,-14,0,-4,3
14875,-6,-13,0,5,5,-6,2,-1
14880,4,10,4,0,-18,2,2,0
14885,3,-9,-10,-5,14,-8,-3,0
14890,7,6,0,-1,-4,8,5,10
14895,7,-9,-6,6,8,0,-1,5
14900,-11,11,9,0,-10,-1,-3,-13
14905,-12,16,17,3,0,-7,-2,-3
14910,10,-23,-16,-2,-6,3,4,5
14915,-7,-12,-10,-10,-17,-8,-4,5
14920,-16,-28,12,2,6,0,-1,-5
14925,11,10,-10,3,14,0,-4,-3
14930,5,8,-5,-8,-12,-3,0,-2
14935,-9,-7,12,5,6,8,3,-6
14940,5,-12,-4,1,3,-1,1,3
14945,-2,13,-1,-2,-10,-2,0,9
14950,1,1,14,0,14,1,0,-5
14955,11,-35,4,0,-10,-4,-1,9
14960,10,46,13,-3,1,-1,-3,-16
14965,-6,-4,-3,5,12,-1,1,3
14970,-12,-5,-13,-3,-7,3,1,2
14975,-9,4,3,-10,-4,2,1,5
14980,6,-5,8,1,-15,-9,-5,-5
14985,-2,-5,-25,-3,19,5,1,-3
14990,6,0,0,2,-13,2,-3,-8
14995,0,-1,2,8,16,-6,-4,-7
15000,-3,-1,-6,-3,1,0,2,3
15005,7,-3,-6,-11,-8,3,-4,-2
15010,-8,16,14,-1,-25,-18,-7,0
15015,2,-37,-11,16,31,15,4,-1
15020,10,0,-12,-14,-8,5,2,12
15025,-19,-33,9,-8,-10,-2,2,-8
15030,1,21,0,2,-3,-4,-8,-5
15035,-7,2,6,-3,-14,-4,-2,1
15040,-9,-21,-18,5,14,-3,-5,-17
15045,-14,-6,4,-2,-4,2,0,6
15050,13,-2,-3,-4,9,4,1,-4
15055,1,21,3,1,-9,-15,-11,-10
15060,5,-9,-15,-2,1,1,8,16
15065,-2,5,23,-2,-16,3,-4,-4
15070,-15,-31,3,3,-2,-5,-2,3
15075,3,29,-12,-4,8,0,0,-9
15080,9,-37,3,-3,20,-9,-4,0
15085,2,20,0,4,-13,8,2,1
15090,-7,-7,14,4,7,-1,-2,3
15095,-12,-4,-20,-14,-19,-3,-3,-3
15100,-5,19,10,5,-3,-1,-3,2
15105,31,16,8,6,11,-7,-2,-4
15110,-7,-39,-18,-22,2,7,6,13
15115,-3,6,-6,3,-5,-2,-5,-13
15120,-3,3,5,3,4,2,4,0
15125,4,-4,-2,3,-8,-4,-5,-8
15130,-15,0,-5,7,1,-3,-1,1
15135,23,31,14,-4,2,0,-1,-3
15140,-10,-53,-25,-1,-11,-4,-3,-2
15145,-15,-4,-2,3,25,2,6,13
15150,2,27,-4,-3,-4,7,-1,-7
15155,7,-1,1,2,-2,-1,0,0
15160,-4,21,7,-4,-8,-3,-1,9
15165,8,-23,-4,3,-13,-8,0,-4
15170,-9,-12,-14,-9,3,-1,-3,-8
15175,-6,-2,8,5,19,2,2,4
15180,7,36,1,-1,-6,1,-2,0
15185,-16,-1,1,-3,5,1,1,9
15190,2,11,0,2,-9,-5,-2,4
15195,-20,-46,0,-1,-7,1,4,-22
15200,23,17,4,7,26,7,-2,-2
15205,-5,15,-2,-15,-27,-7,0,5
15210,6,30,20,4,16,0,-1,-1
15215,3,-16,-28,1,-30,0,-2,12
15220,-8,-10,-3,5,25,2,1,5
15225,-18,12,0,-2,-10,1,1,-16
15230,19,-11,-5,0,-10,-6,1,13
15235,-1,4,8,3,2,-4,-2,-5
15240,-6,19,20,-3,-7,5,1,-1
15245,25,10,-5,4,5,12,2,-4
15250,-3,-24,-3,1,-6,0,-3,-1
15255,-8,33,-4,-1,8,-9,-2,3
15260,-7,14,7,-1,-25,-5,1,-2
15265,-16,-29,-1,2,27,5,-6,-6
15270,-3,-11,-8,-3,2,-3,2,2
15275,7,33,12,-1,-8,6,4,5
15280,-20,-6,-15,0,-6,-8,-4,-11
15285,45,24,3,-4,-1,-2,-1,9
15290,-26,-32,9,5,5,6,-2,-12
15295,13,-10,-15,-5,6,-2,-4,6
15300,-1,0,-8,-6,-2,-2,0,-3
15305,-15,-10,2,6,5,-1,1,5
15310,6,-1,-3,6,-1,-4,-1,-4
15315,0,42,13,-6,-31,3,1,-5
15320,2,-38,-3,2,29,8,5,5
15325,1,24,3,3,-7,-7,-6,-3
15330,-6,-37,-10,0,5,-4,3,6
15335,-22,-25,-3,-12,-19,-2,-3,-11
15340,13,13,-2,3,19,7,-3,-7
15345,13,-9,0,3,-28,-3,3,10
15350,-20,30,8,-9,-7,-2,1,13
15355,35,18,-14,6,21,-1,-5,-5
15360,-4,-6,27,-1,-23,6,3,-9
15365,-12,-2,-19,3,30,-3,-2,0
15370,-1,21,13,0,-16,-6,-5,-6
15375,-33,-42,-6,0,17,-1,1,9
15380,31,57,15,-3,-6,-2,-2,-4
15385,-8,6,-21,-6,-13,-4,-4,-6
15390,3,-16,4,-3,-6,3,0,-6
15395,-4,6,10,2,12,-2,-1,6
15400,-8,-14,-16,2,-10,-2,-6,7
15405,-9,13,18,1,-2,-4,1,5
15410,22,15,-14,-1,13,2,-3,-20
15415,7,-21,11,-4,-19,2,3,10
15420,1,-3,-23,-5,-5,-8,-5,-2
15425,-5,-16,-12,-9,0,8,1,0
15430,-6,-10,-2,4,5,-4,-2,2
15435,-2,12,1,3,-9,-7,0,-6
15440,1,-11,6,3,17,3,1,5
15445,4,-12,13,-4,-2,-4,-3,-7
15450,7,9,-33,0,3,11,3,-3
15455,-1,26,7,0,-9,-3,-2,-5
15460,-22,-24,2,2,4,1,2,4
15465,-12,-22,-9,-4,-1,-2,-1,-1
15470,9,9,8,1,-1,-6,0,-1
15475,12,-15,7,6,22,16,1,0
15480,2,1,-19,-7,-13,-7,-5,1
15485,-9,13,11,2,6,13,2,5
15490,-3,1,0,1,9,1,3,7
15495,-8,-24,-18,-9,-12,-5,-3,-6
15500,2,19,4,3,-22,-9,-7,-2
15505,-1,-17,-2,-8,24,-5,-4,-10
15510,-17,14,9,0,0,2,2,2
15515,16,3,-3,2,6,-3,0,11
15520,-19,-47,22,2,-2,-2,-4,-15
15525,7,-6,-25,-4,-23,-5,0,3
15530,6,6,-2,-3,15,1,-5,0
15535,0,0,27,-1,2,-3,0,-4
15540,11,-1,-10,-3,-10,-5,1,5
15545,-4,9,6,2,4,2,0,-1
15550,-16,-15,-2,-2,-3,-3,-2,-4
15555,11,5,-1,0,-11,-3,-2,1
15560,-15,5,1,0,6,-3,0,8
15565,6,10,16,-1,9,10,1,-6
15570,-11,-6,-10,4,-8,-1,-3,-15
15575,5,7,-6,-10,1,-5,-3,-1
15580,3,4,1,-1,-2,-2,1,2
15585,-9,27,5,1,-25,-3,1,7
15590,15,-23,0,-1,16,-1,-4,-20
15595,-14,13,-1,1,-9,-6,-5,-5
15600,4,2,-15,-3,22,9,0,2
15605,6,24,13,2,-4,-2,0,4
15610,-9,-10,-19,-7,-18,-4,1,4
15615,2,-7,5,0,1,-6,-7,-5
15620,-1,2,0,1,-9,6,4,-8
15625,-4,-19,-11,0,17,-4,1,-1
15630,-4,10,12,-3,-11,-4,-6,7
15635,-9,0,-8,-8,8,-4,0,-3
15640,4,-21,-4,0,2,0,-1,0
15645,-10,16,0,4,-5,-7,-5,-10
15650,11,-6,4,2,-14,4,1,-2
15655,-8,15,-6,2,29,6,0,16
15660,16,23,17,5,14,0,1,-12
15665,8,-5,-2,-8,-16,2,-3,-2
15670,0,-30,-27,-3,1,-6,-1,3
15675,-10,-10,-2,6,-17,2,1,2
15680,-8,2,-5,-2,3,2,1,10
15685,8,-20,2,2,14,7,3,-14
15690,10,7,-1,-4,-12,-6,-6,13
15695,-14,-8,-1,4,14,3,0,-3
15700,19,-1,-2,-5,-19,-1,-2,-8
15705,-1,1,4,-5,14,-4,-3,-8
15710,-9,24,15,7,-11,-2,0,1
15715,17,-1,-7,-10,-11,-1,3,7
15720,-37,-2,2,-6,-7,-8,-4,0
15725,19,0,2,1,-1,4,1,-5
15730,2,16,-3,3,22,2,-1,-7
15735,-14,5,-11,2,-20,2,3,-8
15740,0,-2,-3,3,22,-1,-2,3
15745,1,-12,-3,-6,-41,-7,-2,4
15750,5,24,12,0,24,-2,-1,4
15755,-7,-10,2,10,4,-12,-1,0
15760,11,0,-7,-20,-27,20,6,4
15765,-13,-13,-4,-1,11,-2,-1,-6
15770,3,-3,15,0,-9,-1,-1,-2
15775,-9,-14,-1,4,10,5,2,1
15780,-8,19,0,0,-10,-10,-6,-11
15785,17,-46,-7,3,15,2,2,11
15790,7,20,9,-3,-14,2,-1,5
15795,3,4,-10,-4,7,0,0,-6
15800,-21,-23,6,5,7,2,-3,-1
15805,3,37,9,-2,-7,-4,0,2
15810,-16,-36,-23,-1,12,-2,-2,10
15815,18,25,38,-3,-6,1,2,0
15820,-4,-19,-13,2,-9,-6,-4,-10
15825,-9,-8,-8,1,3,4,0,1
15830,4,6,11,1,15,4,5,0
15835,3,14,-6,-1,-12,-4,-4,-3
15840,-12,-51,-12,-4,-3,-6,-3,-2
15845,1,17,0,-6,-37,-7,0,0
15850,5,0,-4,-6,19,5,4,-1
15855,-3,7,4,-3,-3,4,-5,-2
15860,14,23,10,7,7,-5,4,3
15865,-17,-9,-11,12,0,-5,-6,-3
15870,-6,-3,1,-16,-21,-5,-1,3
15875,7,-5,-5,-1,11,-3,-3,-6
15880,11,12,0,-6,-2,2,1,5
15885,-13,-2,21,0,6,2,-2,5
15890,22,5,-17,3,-5,1,4,7
15895,-7,-9,-7,1,0,5,-2,-17
15900,2,7,1,0,-3,-11,-4,3
15905,-8,0,-10,-2,26,6,1,3
15910,2,10,3,-6,-23,-1,-2,-5
15915,-13,-69,-10,0,7,4,2,-4
15920,28,22,-1,0,-3,3,4,8
15925,3,7,4,3,-7,-9,-5,1
15930,-4,-6,15,4,5,-3,-4,-2
15935,-13,0,-11,-3,-2,3,0,9
15940,-4,25,13,0,-11,-3,-2,-10
15945,5,-8,4,1,14,-3,-5,-9
15950,-2,3,-22,-1,-9,4,4,0
15955,5,0,2,-1,9,-5,-5,2
15960,-9,-7,0,-1,7,8,5,12
15965,9,35,-4,-8,-25,-5,-2,-11
15970,-14,-13,9,6,11,1,-3,-6
15975,0,24,2,1,5,-1,0,-5
15980,2,-53,-14,-6,-2,-5,-2,-1
15985,-15,1,9,-3,-6,5,1,0
15990,23,15,4,7,-21,-4,-2,9
15995,-6,-10,-11,-3,28,5,0,-6
16000,-8,12,10,-1,-6,-8,-8,-2
16005,-17,-31,-14,0,-13,1,3,-4
16010,4,5,-1,-6,15,-1,1,6
16015,-5,8,-2,-1,-22,-8,-6,-6
16020,10,9,-1,0,-1,3,1,-1
16025,7,0,5,2,21,8,0,2
16030,-30,12,-5,1,-5,2,0,-4
16035,22,-27,-4,-2,-7,-2,4,14
16040,9,1,-14,15,15,8,-1,-22
16045,0,-11,3,-18,-14,2,4,5
16050,-11,19,14,1,4,-4,-5,-5
16055,10,5,-3,5,2,-4,-2,7
16060,-14,-21,2,-8,1,1,-1,-5
16065,-1,-5,-7,6,4,-2,-3,7
16070,9,-6,-2,-2,18,3,2,-3
16075,-13,7,4,-7,-12,-3,-4,-16
16080,-4,12,-5,2,0,-5,2,9
16085,15,18,1,2,-2,1,-3,-2
16090,-11,-72,1,-4,-10,-1,-5,-13
16095,-9,54,4,5,3,-2,2,2
16100,-1,-22,-10,-6,-12,-1,1,10
16105,-18,-3,-14,0,4,-7,0,-4
16110,28,2,-11,-1,12,-2,-2,-6
16115,0,-2,19,3,-4,3,3,10
16120,-4,8,-1,-7,-1,12,-1,-1
16125,-11,2,-3,-1,-17,-13,-4,4
16130,2,-3,-5,0,-19,-9,-4,-11
16135,0,12,4,2,31,3,2,-7
16140,-6,-23,-8,0,5,0,0,6
16145,12,27,8,3,-5,0,5,12
16150,-11,5,-4,0,-5,-4,-3,-11
16155,6,-47,-3,-8,-17,-6,-4,-4
16160,-4,5,9,7,9,-6,-4,-10
16165,-2,-8,0,-5,10,8,2,4
16170,0,-11,-9,-1,-3,-4,0,8
16175,3,12,-5,0,-22,-2,1,7
16180,1,21,11,-2,13,2,1,-7
16185,9,-28,3,4,3,-2,-7,-7
16190,-10,20,10,-3,-1,-3,2,4
16195,-24,-19,-43,-12,-18,0,-2,-5
16200,21,-6,2,1,3,-6,-2,8
16205,-7,8,6,0,-2,-3,-2,-3
16210,-15,-10,10,1,-9,5,3,3
16215,10,7,8,2,-13,-4,-2,-4
16220,-3,-1,7,-2,14,1,-2,-1
16225,4,-9,-11,3,9,-6,-3,-16
16230,3,6,1,-3,-22,-1,-2,4
16235,4,0,0,2,30,13,6,9
16240,-12,8,-4,-5,-14,-3,-2,4
16245,4,-10,8,-3,-3,-4,-1,-12
16250,-3,25,-10,5,2,-10,-9,-7
16255,7,13,17,2,-6,16,8,7
16260,8,2,-13,-2,5,-1,-1,6
16265,-5,20,3,0,-4,-2,0,11
16270,-20,-63,-2,-3,2,-3,-2,-7
16275,14,5,-8,3,-36,-12,-10,-15
16280,-4,14,-19,-6,39,7,5,-5
16285,2,8,13,3,-7,8,6,5
16290,7,14,4,3,0,2,1,10
16295,-9,-19,7,-1,12,-6,-5,1
16300,13,-4,-12,-8,-22,-3,-3,-3
16305,-16,-9,2,-3,7,-6,-3,-4
16310,7,6,0,1,14,5,1,1
16315,-4,-4,-6,-4,-5,-8,-3,-5
16320,-12,16,2,3,-1,-4,1,-3
16325,14,-20,-14,-10,-14,-5,-8,-7
16330,10,2,-1,8,39,5,2,3
16335,-6,-22,20,-9,-21,0,-3,-5
16340,-22,-15,-5,-3,-24,-7,-2,11
16345,10,2,-14,1,-10,-1,1,-8
16350,-8,-4,-4,-3,19,3,-2,-6
16355,5,21,12,3,2,0,-1,4
16360,0,16,9,0,2,-6,-6,-10
16365,0,-15,-3,0,-4,1,2,8
16370,3,-14,-10,0,-15,-1,-3,-7
16375,-25,45,-2,2,21,4,3,7
16380,27,-3,17,-4,-13,3,5,-5
16385,0,6,-6,9,13,-3,-5,4
16390,-5,16,7,-12,-17,1,-1,-10
16395,2,-64,-14,3,6,2,3,10
16400,1,2,17,0,-8,1,-3,-4
16405,-2,5,-10,-4,-4,-6,-1,8
16410,14,-13,-3,-4,7,4,0,-3
16415,-23,-23,-16,-5,-4,3,1,4
16420,6,28,10,5,-7,-4,-5,-15
16425,2,-42,-32,-3,0,0,0,-3
16430,-13,6,14,2,10,-7,-2,1
16435,14,25,6,1,7,5,-1,-2
16440,-5,-10,-1,-1,-4,-4,1,9
16445,-21,2,10,-1,4,-2,-4,-12
16450,20,18,0,-1,-27,-4,0,12
16455,2,-14,-15,-4,5,-8,-11,-13
16460,8,12,2,8,5,4,8,-8
16465,0,-12,-6,-4,-3,2,-1,3
16470,-14,-27,-6,-4,-8,-1,2,4
16475,-3,22,9,0,-15,-3,-1,-1
16480,-3,-5,-4,-10,23,3,-1,5
16485,8,-5,1,0,-8,-2,1,-5
16490,3,17,1,1,8,2,-3,-10
16495,5,-10,-2,2,-3,-6,-2,3
16500,-2,-12,-3,2,-15,-7,-5,-5
16505,-7,3,-4,1,14,10,3,-1
16510,-2,4,-2,0,4,2,-1,3
16515,-11,-8,9,-4,-8,-6,2,3
16520,9,-20,-5,3,2,1,-1,0
16525,-5,84,23,-3,3,-2,-3,-2
16530,3,-14,-10,-2,-18,-3,-1,-4
16535,-8,-6,9,1,11,5,0,-7
16540,2,-12,-25,-1,-11,-1,1,8
16545,1,1,13,1,5,-1,-1,-6
16550,-13,-6,1,-1,-5,-3,-1,-1
16555,6,17,1,-1,21,5,5,6
16560,-6,-3,-3,-1,-12,1,-1,-12
16565,10,-6,2,0,3,-2,-3,3
16570,2,27,10,3,3,6,-1,0
16575,-5,-31,-19,3,2,-3,-6,-3
16580,-13,1,7,-5,-19,3,3,-1
16585,14,25,-6,-4,14,2,2,11
16590,-4,-22,-18,1,-16,-7,0,-7
16595,16,18,4,-3,14,8,-1,-2
16600,-14,12,3,3,12,-3,-3,-6
16605,-7,-9,-10,-1,-11,-4,0,-3
16610,5,0,-11,-9,-12,-5,-1,2
16615,-1,-13,-5,-8,-5,-5,-2,-5
16620,-8,-17,7,-2,7,-7,-1,14
16625,11,-5,1,3,-3,3,2,-5
16630,-3,3,9,-2,2,-1,-2,-3
16635,-20,-1,-12,3,3,-3,0,1
16640,18,1,-1,-5,-3,-2,-3,4
16645,-12,-11,5,5,11,4,2,3
16650,3,14,2,0,4,4,3,4
16655,11,-13,-4,-5,-25,-6,-5,-2
16660,-11,-1,-1,6,15,0,-1,-4
16665,2,11,5,-7,-5,0,2,1
16670,-10,16,-8,2,22,0,0,7
16675,16,4,-2,0,-19,5,0,-17
16680,-1,-1,-2,0,11,-8,-5,0
16685,-5,-45,-9,-2,-8,8,2,0
16690,-1,22,12,-2,-2,-8,-5,7
16695,5,3,18,3,8,-2,-1,-5
16700,-1,-4,-19,6,-16,-11,-2,-3
16705,-4,35,11,-3,19,9,0,-1
16710,-18,-64,-5,-2,-9,5,3,3
16715,11,-13,-5,1,10,-3,-1,6
16720,2,14,6,-2,-14,-2,-3,-8
16725,9,3,-5,0,-18,-14,-6,-3
16730,-4,-1,0,0,39,13,1,-2
16735,-5,29,22,-3,-18,-6,2,-5
16740,-21,-52,-21,-4,4,9,0,10
16745,10,0,-5,3,13,-2,3,-12
16750,10,5,10,5,-18,-8,-3,-5
16755,-2,8,-18,-4,-3,3,0,11
16760,-7,-4,10,2,9,0,-1,-3
16765,-19,-21,-7,-3,-2,-7,-5,-5
16770,-5,19,-1,9,17,5,-2,-8
16775,9,6,15,-14,-18,-8,2,13
16780,-7,12,-5,3,0,11,5,-5
16785,10,-4,-3,-5,-15,-3,-4,-1
16790,13,7,1,-3,7,-4,-3,1
16795,-46,2,-5,8,1,-5,0,9
16800,36,-11,6,-12,-11,-6,-5,-28
16805,-13,2,-6,0,-5,3,5,4
16810,2,24,-1,2,-7,1,-3,-4
16815,-6,-14,-9,2,32,5,2,9
16820,-8,20,5,-1,-4,-5,-2,5
16825,-6,-4,11,3,2,-5,-3,-4
16830,7,-17,-2,-4,-21,-8,-1,-5
16835,4,-7,-25,-1,1,-2,-2,-6
16840,-9,19,5,-2,12,1,0,6
16845,-8,-15,-3,-3,-6,-4,-1,6
16850,10,-8,3,2,-18,4,2,-4
16855,7,23,5,4,18,1,-2,-5
16860,-6,6,-1,1,-8,-3,1,4
16865,9,-1,10,1,1,-3,-4,8
16870,-9,-7,-5,0,12,-4,1,3
16875,8,-3,-11,-9,-21,4,1,-9
16880,0,-2,7,-1,4,-1,-5,2
16885,-5,-13,-5,0,-9,0,2,-5
16890,-14,22,6,1,0,-4,1,5
16895,11,23,-7,0,11,-9,-8,-14
16900,-10,-34,12,1,5,3,1,4
16905,-3,10,7,-3,-17,2,2,0
16910,16,-16,-2,-5,8,0,0,5
16915,-8,-3,5,2,-20,-5,1,-6
16920,-9,19,-8,0,18,5,3,11
16925,16,1,8,6,-13,2,-3,-14
16930,7,19,-10,-1,12,-1,-2,-2
16935,-9,-17,7,-8,-9,8,1,4
16940,-4,-9,-17,0,-7,-5,-2,-11
16945,-14,-7,-16,1,0,-4,-3,4
16950,0,11,10,-4,-5,7,3,16
16955,13,-16,6,6,-3,-3,0,-6
16960,7,29,-10,0,-11,5,-4,-4
16965,-11,-30,-1,-2,36,-4,-7,-7
16970,-2,-13,-5,-7,-21,-3,-2,-2
16975,-2,-33,-5,2,0,-1,3,7
16980,-29,6,7,1,-4,-1,2,-3
16985,35,9,-7,0,9,9,3,2
16990,21,18,-3,-1,-7,-4,-3,2
16995,-11,-18,8,2,-9,-2,-6,-18
17000,-1,-13,5,0,10,-3,-1,-3
17005,-11,8,-3,-3,-9,-2,1,11
17010,-11,-5,-1,2,10,2,5,-3
17015,6,30,9,3,8,1,-1,-1
17020,-3,-26,-14,0,-6,3,0,8
17025,3,-17,0,-9,-15,-5,-2,-8
17030,-11,-23,0,2,-16,-4,-4,-9
17035,0,28,3,6,22,9,0,2
17040,15,4,11,0,13,1,5,4
17045,-9,-13,-8,1,17,-1,0,9
17050,-8,-6,0,-3,-15,-2,-1,-7
17055,15,-14,-4,-4,-13,-5,-2,-2
17060,10,5,15,3,2,-3,-5,4
17065,-2,26,5,-11,-12,-4,-3,-12
17070,-15,-12,-14,-3,8,-3,-2,-4
17075,5,19,2,-2,-1,3,-2,3
17080,3,10,-6,4,13,-2,2,-2
17085,-2,8,-7,-2,-3,4,2,7
17090,-16,-72,10,1,2,-3,-3,1
17095,-11,-30,-13,-8,-4,-5,-3,-11
17100,10,21,13,1,-21,-2,-6,-9
17105,-46,17,2,5,11,-2,0,-6
17110,52,34,5,-2,-2,3,1,9
17115,-7,2,2,2,-7,-1,-1,10
17120,10,-34,4,-7,1,2,0,-3
17125,-1,-4,-15,4,8,-7,-1,-10
17130,-21,7,-2,-7,-3,-3,-6,-5
17135,-8,16,4,-4,-5,-9,3,15
17140,9,-12,-16,0,-13,-7,-5,1
17145,1,34,5,-10,-13,13,1,-12
17150,-1,-31,-10,7,36,1,1,-3
17155,-8,-11,9,-2,-10,1,-4,-4
17160,-20,21,-2,-4,-6,-5,-4,-4
17165,37,-25,-5,-3,-5,-6,1,20
17170,-2,21,-1,4,0,7,2,-11
17175,-6,12,-2,1,0,-6,-3,6
17180,-10,-17,-4,-5,0,-6,-5,-20
17185,6,-7,-8,-1,-11,2,2,-2
17190,-4,20,11,-1,1,-4,-5,3
17195,4,-5,-1,0,-16,0,1,8
17200,-10,15,8,-2,22,3,0,-4
17205,2,-4,-41,4,0,-10,-3,2
17210,-11,-34,1,-2,0,9,3,-6
17215,1,16,-10,-7,-14,-2,-1,-5
17220,-4,-2,1,-5,-4,-4,0,13
17225,14,14,31,11,1,-6,-3,-2
17230,2,-2,0,-7,-5,4,0,-2
17235,-1,-2,3,2,4,2,-2,-5
17240,-1,-22,-16,-2,-5,-1,2,16
17245,0,34,17,-4,-2,-3,-2,-4
17250,-17,11,-4,7,0,-1,2,5
17255,13,-14,2,0,7,-2,0,-8
17260,0,-3,-14,-1,-3,0,-3,-9
17265,-11,0,0,0,-26,-5,-1,3
17270,-7,-2,-22,1,26,-5,-6,-10
17275,21,28,5,-1,-14,4,3,2
17280,13,-19,-1,-3,9,1,1,4
17285,0,-18,9,5,3,0,-1,4
17290,-4,25,0,-4,1,0,-2,-6
17295,-18,-17,-5,-2,20,3,2,1
17300,6,33,-2,1,-29,-8,-5,-7
17305,-1,-27,-4,-2,28,10,3,5
17310,-14,-4,12,5,-15,-10,-2,11
17315,10,-30,-27,-3,6,6,0,-11
17320,2,23,7,1,-12,2,0,-2
17325,-18,3,19,-5,-22,-3,-3,-4
17330,8,8,-23,0,33,-3,2,2
17335,10,-14,2,1,-2,-3,-3,0
17340,-3,9,0,0,-3,4,3,-5
17345,0,-33,-6,1,12,-3,-4,4
17350,-3,22,23,-6,-30,0,-1,-8
17355,-18,6,2,-3,0,-8,-4,0
17360,5,-21,-6,-2,4,13,4,6
17365,2,-6,2,5,8,-5,-1,2
17370,-7,-17,-5,-4,-10,-5,-6,5
17375,-8,-4,-2,3,15,-3,2,-14
17380,13,35,17,-2,-19,-3,-1,6
17385,1,-3,-23,-8,9,-5,-5,-14
17390,14,0,-1,5,4,4,5,3
17395,-11,19,20,3,-10,-5,-1,11
17400,-14,-76,-20,-12,-16,0,-5,-13
17405,-9,-7,31,0,-5,-3,4,11
17410,-17,3,-5,0,8,-5,-3,8
17415,1,-13,7,-1,20,0,-5,-22
17420,25,40,16,-1,-4,2,5,-1
17425,10,-33,-16,-4,-31,-2,2,0
17430,19,6,-12,3,-7,-4,-4,-1
17435,-9,-56,-17,-4,-1,-1,2,13
17440,-2,1,16,7,38,-1,1,6
17445,-10,30,-14,-5,-20,0,-5,-24
17450,-1,1,11,7,13,4,2,-6
17455,-4,11,4,-7,16,9,3,1
17460,-16,9,-9,-5,-34,-11,-2,18
17465,8,1,-33,4,44,6,0,-10
17470,5,-23,9,-5,-33,-4,-5,-16
17475,33,32,7,1,-9,-5,-5,4
17480,0,2,-7,5,28,14,10,1
17485,-12,11,-4,4,-8,-4,-6,3
17490,-2,-2,5,-9,-6,-3,-2,-5
17495,-5,-6,-6,1,-12,-1,-3,9
17500,-7,-1,15,6,42,11,0,-5
17505,6,41,27,6,-10,-4,0,6
17510,-14,-24,-36,-13,16,1,1,7
17515,-8,-25,-5,-1,-12,-7,0,-3
17520,25,35,2,0,-10,-5,-5,-15
17525,-4,9,19,4,18,7,5,9
17530,-11,-21,-1,-6,-41,-3,-3,-6
17535,9,-31,-9,-3,4,-3,0,12
17540,-13,10,-17,-5,13,-6,-8,-28
17545,15,-4,24,9,-9,-9,-3,1
17550,-7,-6,-25,-12,-17,11,5,7
17555,-10,16,-9,2,-22,-6,-2,-7
17560,-12,-47,-6,10,10,0,-1,10
17565,19,13,-2,-19,1,-1,1,5
17570,-18,-22,3,0,6,-8,-6,1
17575,16,26,-5,2,-8,0,-2,-16
17580,16,30,-2,-9,-16,-9,0,23
17585,-28,-24,-10,6,9,-3,-5,-25
17590,-1,-21,-9,-2,17,2,1,15
17595,18,28,36,-3,14,16,5,-7
17600,-13,24,-27,12,-22,-22,-11,-13
17605,-11,-72,-2,4,21,4,2,9
17610,20,96,18,-7,19,4,6,12
17615,-33,-89,-15,-2,-2,-6,-4,-18
17620,9,-10,-11,-8,-34,-4,-1,5
17625,-4,9,1,2,12,8,4,3
17630,7,-18,32,5,-20,-7,-6,-9
17635,-17,4,-14,-6,26,-2,-2,10
17640,10,2,0,3,8,8,2,0
17645,-14,40,-6,-12,-56,-13,2,-7
17650,21,24,23,5,33,12,-1,0
17655,8,28,12,13,-48,-8,-4,-2
17660,-8,-94,-29,-15,50,6,-2,-4
17665,-4,-2,1,2,5,-7,-4,8
17670,0,52,-3,-13,-50,-8,-2,-12
17675,-6,-57,13,4,11,3,-1,5
17680,3,16,-46,1,11,3,2,11
17685,4,-20,10,2,2,7,2,-8
17690,0,4,-8,-10,-43,-8,-4,2
17695,-7,19,-11,-11,39,-2,2,4
17700,-14,6,32,10,-28,-6,-4,-13
17705,24,-57,-14,-5,12,2,-1,0
17710,8,-33,-22,5,31,3,-2,-4
17715,3,25,-19,5,-19,-9,0,-1
17720,-20,7,2,-2,-4,12,3,5
17725,-6,-24,-18,0,-11,-3,-2,7
17730,11,14,18,16,13,-8,-5,-9
17735,-5,5,0,-6,-18,2,-1,7
17740,6,-10,14,-5,27,4,-2,-23
17745,-11,32,-12,-5,-6,4,-2,10
17750,17,-15,18,10,23,5,1,-14
17755,-7,41,11,-3,-27,-2,-2,-5
17760,6,69,38,0,14,1,2,2
17765,6,-4,-3,-1,-17,2,5,7
17770,-14,9,-20,0,0,4,1,-5
17775,-3,-17,19,-2,21,0,-8,-5
17780,15,49,-9,-3,-6,0,3,3
17785,-2,4,7,1,-15,-2,1,6
17790,-32,-31,-9,-1,4,1,5,22
17795,23,19,-19,-5,-2,-3,-1,-17
17800,-18,-20,19,3,-2,0,-2,-8
17805,4,-8,-4,-6,-2,1,-8,4
17810,0,49,-5,17,36,-6,-5,-15
17815,-4,-79,-28,-25,-37,0,2,-2
17820,-9,-34,3,-1,5,-8,1,13
17825,-9,34,6,5,-12,-1,-3,-19
17830,18,-24,11,-9,9,1,2,6
17835,2,43,15,10,-2,-1,-2,5
17840,-8,-36,-3,-14,-22,-6,-4,-7
17845,-15,29,5,1,4,1,-1,-5
17850,6,8,12,-1,-14,-6,1,16
17855,9,12,-17,7,26,10,1,-11
17860,-23,-60,-2,-1,-23,-6,-3,-3
17865,19,43,7,-1,3,-9,-6,0
17870,-4,4,-18,-7,-10,4,0,-1
17875,-11,27,-1,9,12,-8,-2,-4
17880,15,11,4,12,9,4,2,8
17885,-18,-60,0,-16,5,6,1,-9
17890,9,-1,1,3,5,-1,0,1
17895,10,2,8,-3,-16,2,-1,9
17900,3,4,-30,-3,-1,-10,-4,-1
17905,-8,-3,-10,2,1,0,-1,-5
17910,-6,29,11,-9,-19,0,7,5
17915,-1,0,5,10,49,18,8,1
17920,21,32,10,-2,-19,-4,-7,-5
17925,-7,14,-7,0,27,0,-6,-4
17930,-11,-37,-32,0,-20,-9,-4,-8
17935,-11,15,12,-1,-5,-1,0,10
17940,7,12,12,0,-17,0,0,2
17945,0,-4,-7,3,10,-11,-4,4
17950,5,12,20,-1,7,21,1,-14
17955,5,5,-13,-5,-4,-7,-5,-3
17960,-7,-19,-14,-1,8,9,3,7
17965,4,-12,-8,2,-9,-4,4,-1
17970,-21,0,14,5,-15,-11,-5,-10
17975,-4,-14,13,-2,-4,3,0,10
17980,25,3,5,-9,20,9,-5,-13
17985,-7,-15,-33,-4,-5,1,-1,1
17990,5,-12,-4,5,20,0,-4,2
17995,-7,25,-3,0,-12,-10,-4,-8
18000,-9,2,8,1,-17,-9,0,7
18005,-13,-3,15,-2,18,5,0,-1
18010,21,-7,-5,-5,-22,-3,-1,-3
18015,-3,-26,-7,4,-5,-1,-2,3
18020,-8,45,-8,-3,22,0,1,9
18025,16,-47,17,2,-4,4,4,-8
18030,-11,-52,-2,-6,-20,-9,-8,-6
18035,-1,47,0,3,11,3,2,6
18040,-20,-19,11,-4,-11,-5,1,-2
18045,23,25,9,12,-5,-6,-4,4
18050,-5,-14,-24,-3,-11,5,4,-5
18055,8,7,16,-5,14,5,-1,-9
18060,-9,-29,-11,-3,6,-8,2,3
18065,-4,27,17,9,3,2,2,7
18070,20,4,2,-16,-36,-7,-4,-3
18075,-9,-38,-18,-2,28,-1,-2,0
18080,-2,3,-2,8,-19,5,0,-5
18085,2,11,7,-6,16,-2,3,3
18090,-1,43,-8,2,7,4,-1,9
18095,-10,-17,12,0,-9,-2,1,0
18100,3,11,-5,-3,-11,-2,-1,-10
18105,-2,-7,-9,7,10,0,-1,-4
18110,-6,0,13,-3,-8,5,0,10
18115,12,41,-4,-11,-3,-2,0,2
18120,-13,-73,0,5,-13,-3,2,1
18125,19,48,7,-7,5,1,-2,-1
18130,-13,-19,-5,5,11,-7,-1,-1
18135,-3,-14,-4,0,0,-9,-7,-7
18140,-2,12,-5,3,-4,8,5,2
18145,-13,-24,-24,-10,-3,0,-1,-2
18150,20,3,39,-2,33,-6,-2,-3
18155,9,-7,-31,-4,-17,-2,0,6
18160,-2,-1,7,-2,-10,-2,-4,-14
18165,-17,-14,3,1,9,6,0,-3
18170,7,1,-13,7,-4,-5,0,7
18175,-8,-10,2,3,1,4,3,-5
18180,10,20,3,1,-9,-2,-1,0
18185,-3,5,10,-2,-8,-4,-2,-2
18190,-5,-14,-21,-15,1,9,1,-5
18195,-3,-10,13,2,-2,0,-2,5
18200,-13,23,-17,3,2,-9,0,9
18205,13,-43,24,6,20,2,-2,4
18210,1,4,-30,-2,-13,-1,-1,-10
18215,-10,-14,2,-8,1,4,-3,0
18220,13,17,8,-12,-4,-4,0,1
18225,-2,4,-6,-1,-8,-2,-2,1
18230,3,8,14,6,-6,-2,-4,-12
18235,-21,10,4,6,25,3,-2,-15
18240,11,-4,-22,4,5,-1,-8,0
18245,0,-31,-6,-9,-15,-3,1,5
18250,-3,-1,16,1,-7,1,-2,6
18255,-10,7,10,0,-38,-7,1,-3
18260,15,-6,-2,1,58,-3,-1,7
18265,-7,-16,7,2,-5,6,2,0
18270,-2,9,-6,-2,-22,0,-2,-4
18275,10,-25,1,2,9,2,-5,0
18280,-14,16,-10,-1,-8,-9,-3,-7
18285,-3,-8,-4,-2,-7,6,3,12
18290,-11,0,6,7,18,1,3,-10
18295,15,1,-10,-5,-39,-9,-6,-5
18300,-3,-2,0,-11,25,5,-3,-4
18305,-22,4,-14,1,-2,0,-4,-12
18310,14,-14,-11,-3,2,-5,2,2
18315,6,12,5,5,13,-6,-2,5
18320,5,-6,15,0,-6,9,2,1
18325,-10,21,-39,-8,-14,-6,-1,2
18330,-9,-18,15,5,-10,-6,-2,4
18335,8,4,-4,-3,19,4,3,1
18340,0,6,6,-7,-23,-5,1,0
18345,2,8,2,-3,0,1,-3,-8
18350,10,24,5,3,14,-1,-4,-1
18355,0,-11,-21,1,1,2,3,-2
18360,-2,-8,1,4,1,-5,-3,-7
18365,3,23,5,0,-11,-2,-1,-3
18370,-7,-13,-10,-8,-10,-3,-3,1
18375,-16,3,7,-1,4,4,3,11
18380,-4,6,-3,10,-3,-3,-1,0
18385,30,-46,16,-13,3,1,-1,-17
18390,-17,20,-13,3,22,4,-4,6
18395,16,4,6,-2,-13,-4,-4,-1
18400,-22,-33,1,0,-16,1,5,8
18405,5,38,-5,0,4,-5,-4,1
18410,1,-28,10,1,8,2,1,-5
18415,-13,29,5,0,0,-8,-4,3
18420,8,-30,-3,-4,-3,10,-1,-10
18425,0,10,8,-2,-5,-4,-2,-1
18430,-6,-7,-14,-4,-2,-2,-2,-4
18435,0,-19,-13,0,11,1,3,6
18440,-10,8,6,-2,-8,-8,-7,-10
18445,-9,32,4,0,-21,-6,1,6
18450,34,-57,2,10,18,12,6,8
18455,-6,16,16,2,14,-3,-3,-15
18460,9,-9,-4,-6,-3,-1,-3,4
18465,-8,5,-10,2,-5,2,-2,2
18470,-13,11,-10,-2,-17,-9,0,-4
18475,6,-1,16,4,6,3,-2,2
18480,-6,-4,0,5,-14,1,3,1
18485,-14,34,-4,-7,10,-7,0,12
18490,24,-22,18,3,3,14,-3,-10
18495,-5,-15,-43,-5,-5,-10,-6,-13
18500,-5,10,3,-6,-4,0,-5,-6
18505,-5,-25,-3,1,-8,-3,4,4
18510,-20,15,7,0,-8,-7,1,9
18515,-4,11,13,-3,19,14,7,-2
18520,8,5,-28,2,-8,-9,-4,-1
18525,16,1,-7,5,22,3,-3,-20
18530,-17,-1,-8,-3,11,2,0,-4
18535,6,-9,-7,-3,-31,-5,-1,15
18540,-5,14,15,-1,3,-1,0,-2
18545,9,-13,4,7,-32,-1,3,7
18550,-4,3,-4,-13,33,5,-1,-5
18555,0,-34,-13,0,-8,2,-4,-4
18560,6,15,24,2,7,1,1,4
18565,-8,-12,-7,5,-2,-2,-4,-12
18570,-9,13,1,2,-19,-8,0,6
18575,-14,9,1,-6,-3,2,-2,-3
18580,22,-13,6,2,15,2,-1,15
18585,-6,32,6,-4,1,0,0,-13
18590,8,0,-3,0,-2,-8,-1,7
18595,12,35,9,2,4,2,1,-4
18600,-12,7,-7,4,-31,-2,1,-10
18605,-8,-43,-26,-1,44,1,-4,8
18610,-12,34,14,-14,-5,6,0,-3
18615,2,5,-10,1,-15,-5,2,10
18620,1,-5,-11,2,-2,-7,-4,3
18625,1,15,16,-2,-13,4,0,-1
18630,4,-2,-7,3,23,1,-4,-14
18635,-6,-10,-7,1,8,-3,1,3
18640,-17,35,7,-2,-11,-8,1,4
18645,-2,-11,-17,-7,-4,14,-1,-7
18650,19,-15,8,9,2,-10,-1,8
18655,10,-8,-26,-2,-16,1,-2,-10
18660,0,-21,9,-6,22,17,3,-5
18665,-24,21,-1,-7,-23,-8,-4,4
18670,-7,33,12,5,-2,-1,1,4
18675,10,-23,-8,12,16,-2,-3,-4
18680,-16,-2,-21,-9,-1,-3,-5,-6
18685,14,-1,8,-7,2,4,5,10
18690,-3,-23,-17,-2,-25,-4,-4,-1
18695,-13,29,32,-3,5,3,4,1
18700,-26,-24,-15,3,10,-6,-1,17
18705,56,21,1,9,1,-5,-5,-28
18710,-12,-38,-14,-3,-7,7,4,0
18715,4,-1,8,-5,3,-7,0,6
18720,-10,-7,-3,-1,-8,14,3,-4
18725,-11,-13,2,7,0,-8,-2,8
18730,9,-6,-9,-10,-7,11,2,1
18735,-5,3,0,-6,-7,-10,-3,-4
18740,4,7,3,2,9,7,1,-3
18745,3,4,11,1,9,-6,0,8
18750,-20,52,-3,2,16,5,1,-6
18755,5,-45,-17,-8,-9,-8,-2,20
18760,22,18,-3,4,20,-1,-4,-22
18765,23,16,23,1,-12,-7,-6,-8
18770,-4,14,-17,-12,-19,-6,0,5
18775,-5,11,18,3,14,-6,0,-1
18780,1,-16,9,0,-10,5,6,12
18785,-20,-11,-6,1,-2,-3,-1,-2
18790,7,-13,0,-6,-19,1,-1,15
18795,0,-68,5,-2,-29,-5,-5,-10
18800,28,16,-3,6,49,7,-3,-17
18805,-15,10,4,7,-13,-5,1,5
18810,-12,-33,12,-1,16,-9,-6,5
18815,-18,31,-2,6,-9,5,2,-17
18820,-3,-8,-5,-5,-6,16,8,16
18825,5,-14,-3,-7,-14,-2,-1,-9
18830,-7,40,-30,6,25,-13,-5,-4
18835,5,-27,17,-2,-8,12,-1,-1
18840,-11,9,22,0,-1,-13,-2,-1
18845,-11,-19,-18,-10,-4,9,7,15
18850,17,-21,6,4,2,1,-3,-21
18855,13,42,6,-3,-9,-2,-3,-9
18860,6,-19,-10,-4,-23,-10,-8,1
18865,-28,23,18,5,40,1,4,10
18870,16,-23,6,-6,-4,2,-1,-2
18875,-2,19,-17,0,-13,-8,-2,-12
18880,-25,-10,2,6,-11,-2,0,7
18885,28,-1,12,-11,17,-9,-7,7
18890,0,2,-14,4,11,12,4,-1
18895,-21,6,19,8,22,-2,3,16
18900,30,38,-17,-4,-36,-1,0,-17
18905,1,-38,-1,2,21,7,0,-15
18910,3,-46,14,3,-28,-13,-3,-4
18915,-3,-12,-40,-5,4,6,0,17
18920,-22,22,29,-3,-2,-3,2,-2
18925,-18,20,-19,4,24,11,5,-3
18930,12,-9,12,-6,-17,-4,-6,-4
18935,-3,18,9,14,-4,-5,-2,-5
18940,2,-40,-3,-12,18,9,3,17
18945,-12,51,2,0,1,-5,-1,-8
18950,-1,-46,14,17,-53,-9,-3,-7
18955,-5,-56,-27,-35,30,11,1,-7
18960,17,29,8,9,-5,-7,-2,3
18965,-1,-11,-22,-11,-32,-14,-4,-10
18970,-13,123,17,4,0,2,1,12
18975,-5,-41,-15,-2,39,8,-4,-12
18980,-11,-18,-7,-2,-16,-9,-3,-14
18985,14,-7,4,0,11,7,0,17
18990,-10,-12,22,9,6,-7,-2,-5
18995,-4,29,16,1,-14,-5,3,9
19000,7,28,-14,-10,-30,-3,-6,-5
19005,16,-36,-3,12,23,0,-5,-11
19010,-4,19,-16,-12,-5,14,3,4
19015,3,-1,14,3,-29,-2,7,13
19020,-11,15,12,-7,70,0,-3,8
19025,14,-20,-45,-3,-35,-9,-5,-16
19030,-18,29,10,14,28,10,-1,-24
19035,7,-48,-10,-12,-18,-3,-5,1
19040,5,17,-7,2,-15,-3,5,3
19045,-3,3,10,-2,-18,1,-1,7
19050,-3,8,13,-6,23,-3,-2,8
19055,-5,23,-5,11,-17,3,3,6
19060,17,21,18,-8,13,-2,-8,-30
19065,-16,11,-6,-1,-23,-4,-2,8
19070,-17,-34,-22,0,21,5,3,3
19075,35,-19,39,6,-48,-10,-7,-1
19080,-9,-31,-17,9,81,4,4,-10
19085,-11,-20,-16,-22,-35,1,-4,-2
19090,-4,24,0,1,2,-16,-5,-7
19095,-19,18,-27,-5,21,2,-4,-6
19100,3,6,8,4,-25,2,2,12
19105,0,-3,22,1,-16,-14,-7,1
19110,10,-50,-35,-19,-7,6,4,-1
19115,8,33,5,7,33,-3,-3,-9
19120,-25,-33,1,3,-46,-17,0,11
19125,9,24,-10,1,18,5,4,-5
19130,-6,-34,7,-3,-10,0,-1,1
19135,7,11,-1,1,12,11,2,-3
19140,0,-16,-3,4,-12,-10,-3,1
19145,0,55,30,3,-9,-1,-1,6
19150,0,-39,-19,-2,12,8,3,-3
19155,-20,49,-1,1,12,5,1,-1
19160,1,-4,15,-11,-5,0,3,6
19165,5,-66,-31,5,-22,-3,-3,-5
19170,24,27,3,-5,20,-4,-1,-2
19175,-10,9,19,2,-8,6,4,0
19180,-14,40,12,7,16,-4,-5,-1
19185,4,-80,3,-5,-56,1,4,17
19190,-10,79,6,3,73,3,-7,-10
19195,25,-41,-16,-5,-21,-11,-4,0
19200,2,-10,23,0,-9,9,4,-2
19205,-30,14,-32,1,5,9,3,0
19210,21,-3,25,1,-25,-18,-6,-2
19215,-30,2,3,-6,-12,8,-2,3
19220,21,-34,-31,-15,-16,-5,-3,-9
19225,16,4,28,8,44,12,7,10
19230,-22,-5,16,0,-22,-12,-6,0
19235,3,29,-12,1,23,0,-6,-19
19240,11,12,14,4,-20,7,2,2
19245,-41,-45,-22,-4,21,-13,-2,1
19250,20,47,24,-6,-34,7,4,7
19255,21,-10,3,4,-7,-17,-9,-5
19260,-5,-24,-42,-9,9,7,-2,14
19265,-5,28,5,2,9,-7,-6,-39
19270,-4,9,-13,4,-36,-11,-6,-3
19275,-6,34,1,0,51,9,14,10
19280,-3,-58,5,0,-17,-9,-6,-4
19285,8,50,3,-3,13,11,1,5
19290,-8,22,21,-1,19,4,5,5
19295,-8,-77,-19,-8,-35,-4,-1,-6
19300,-6,11,-15,-15,3,-4,-6,-9
19305,31,31,17,10,-19,-9,-4,-4
19310,13,-3,-1,5,4,17,7,17
19315,-8,16,39,-1,-16,-3,2,7
19320,3,-8,-5,2,16,-6,-10,-30
19325,-16,-24,-4,11,-37,-13,-1,18
19330,-6,24,-27,-23,30,20,1,8
19335,6,-37,25,5,22,-3,-2,-25
19340,-17,-31,-24,7,-17,-9,-4,-1
19345,-20,-1,13,-5,25,5,-6,-9
19350,4,-6,10,-2,-35,-15,0,11
19355,16,-39,-61,-3,-4,-7,-4,3
19360,-10,45,22,-3,-5,25,11,10
19365,34,50,19,-1,19,-5,-4,-10
19370,-34,-45,-66,-7,-14,-9,-5,-7
19375,-22,-47,7,-4,4,-9,-8,-10
19380,24,-5,-12,7,-36,-7,4,8
19385,5,-6,10,-2,71,8,8,47
19390,-24,-32,-22,-1,-21,9,-6,-59
19395,-16,59,10,8,-23,3,-2,-7
19400,18,-13,-17,2,30,1,3,9
19405,7,-14,18,-6,8,18,7,6
19410,15,-13,-6,8,-9,-14,-1,8
19415,1,-5,-19,-6,-1,-1,-2,-1
19420,-6,54,51,11,-30,-9,-3,6
19425,-8,12,-55,-6,14,9,2,-13
19430,12,-95,8,4,1,-6,-3,-8
19435,-3,46,8,-1,12,10,9,4
19440,-3,7,-18,-4,10,0,2,22
19445,-5,-11,0,-3,-11,-2,-3,-14
19450,-22,11,4,3,-14,-9,-6,-20
19455,38,7,-13,12,19,-5,-3,11
19460,-13,4,1,-22,0,25,10,3
19465,8,7,3,10,20,1,-2,-7
19470,-22,12,8,-6,-2,5,4,8
19475,13,15,15,-3,-32,-11,-7,-4
19480,16,3,-42,0,33,-9,-7,-2
19485,-5,1,15,-2,-26,1,-2,4
19490,9,-54,-33,-5,5,-6,-2,-3
19495,-52,46,26,-3,-5,4,5,-4
19500,26,-6,5,4,9,0,-2,-8
19505,0,13,-4,-8,-27,-5,0,3
19510,-22,33,-11,10,7,1,2,6
19515,45,-31,-3,6,11,-4,-9,1
19520,-14,18,-1,1,15,7,1,-13
19525,-10,-21,11,-10,-18,6,1,-6
19530,19,57,34,2,6,-10,-1,14
19535,-15,-21,-15,-3,5,6,5,11
19540,9,-10,-2,12,-9,-11,-5,-7
19545,17,-14,1,-3,9,-6,-3,6
19550,3,24,4,-5,-7,-2,0,-7
19555,-11,-49,-12,-6,7,3,3,5
19560,-4,-8,-6,-4,-12,-11,-7,-7
19565,-30,-36,-1,-3,-10,6,4,-4
19570,17,14,3,-3,-25,-5,-1,18
19575,18,53,15,7,26,-4,-8,-21
19580,1,-31,-13,-14,-21,1,3,6
19585,-18,-33,1,-3,-21,-17,-7,-7
19590,8,46,-3,-14,-9,7,1,12
19595,-11,-55,-29,-8,33,9,2,-8
19600,-18,-12,11,4,-35,-13,-10,-14
19605,6,34,-6,7,17,-2,-3,0
19610,14,-11,27,4,2,6,3,4
19615,-11,39,15,-5,-25,0,1,10
19620,-34,-9,-30,-4,5,4,-2,-7
19625,49,37,27,1,-4,-1,-2,0
19630,-22,-69,-36,3,-10,-8,0,-6
19635,16,29,-3,4,25,8,1,5
19640,-8,20,20,17,-11,-10,0,16
19645,-6,-6,-19,-19,14,16,4,-4
19650,3,-44,-16,-6,0,-1,-5,-2
19655,-2,-23,-5,-2,-5,0,-3,-1
19660,-20,-10,-5,-4,0,-3,2,0
19665,10,26,20,9,5,-12,-3,-3
19670,5,11,-15,4,22,23,6,0
19675,-9,9,11,-5,-28,-4,-2,3
19680,9,-5,-1,-7,0,-2,0,-3
19685,-21,14,-16,2,-24,-7,-1,-8
19690,9,-11,13,7,45,4,2,-5
19695,1,-7,-7,3,-29,-9,-2,11
19700,9,16,11,6,40,11,1,2
19705,-21,-16,-2,-4,-35,-6,1,3
19710,14,-19,-33,-33,27,7,-4,-7
19715,1,29,4,-2,7,-5,2,-9
19720,9,-28,9,8,-14,-6,-5,0
19725,-9,-35,-37,-7,30,4,-1,-5
19730,-10,12,32,11,-8,-5,4,10
19735,3,15,-11,-6,-9,1,-1,0
19740,-15,-2,7,-15,-7,5,3,4
19745,13,-15,30,15,5,-7,-5,-1
19750,3,-21,0,-2,-19,-10,-7,-10
19755,-1,32,7,-4,7,2,0,-12
19760,-7,-12,-8,3,-1,-1,-4,10
19765,-8,-33,-17,-10,-2,-4,-1,-1
19770,14,53,26,11,-21,-3,0,2
19775,-2,-41,-1,0,-6,-3,0,-1
19780,-3,13,7,-3,61,13,1,-4
19785,11,7,5,-4,-16,-4,2,6
19790,-9,37,-18,0,-54,-15,-8,4
19795,-7,-5,16,6,44,19,10,3
19800,21,12,9,-1,-19,-4,5,-9
19805,9,57,-18,-4,19,2,-7,-10
19810,-6,-27,-3,9,-21,-9,-2,5
19815,0,4,5,0,4,-1,0,15
19820,-6,-21,-13,-3,-2,-1,1,-14
19825,-28,6,-7,5,-10,-5,-3,-4
19830,32,-16,0,-9,5,12,4,3
19835,6,22,6,6,-40,-19,-6,-5
19840,2,23,-9,-4,39,16,4,8
19845,-6,-48,15,-8,-33,-6,-5,-2
19850,-20,-6,0,8,32,4,-2,-15
19855,8,16,6,0,-10,-3,-1,6
19860,13,-1,-45,0,-23,-5,-4,-7
19865,-9,-30,10,-1,-5,-4,-3,2
19870,-8,-4,6,-8,13,2,4,3
19875,0,-18,-20,5,21,0,-6,-6
19880,-14,13,33,-6,-15,1,-1,18
19885,24,12,-4,4,-4,5,0,-20
19890,-7,-8,-8,-3,2,-11,-5,2
19895,8,9,6,-17,-13,-3,-1,-6
19900,-5,-15,-8,2,35,-6,-2,4
19905,-22,13,4,-1,-5,20,13,15
19910,19,17,6,6,-20,6,-3,-9
19915,0,12,0,3,30,-4,-1,-4
19920,-16,-10,4,1,-23,-9,-4,-7
19925,13,40,10,3,-10,-6,2,18
19930,-14,-29,5,-2,21,-3,2,6
19935,10,19,8,2,-22,9,-7,-22
19940,4,-34,1,-3,-3,5,3,-1
19945,-10,20,-10,9,15,-2,-2,-7
19950,-5,28,8,0,-39,-10,-1,11
19955,-1,-21,-5,-15,-13,-4,1,12
19960,-10,30,-2,4,29,9,2,-2
19965,29,2,-5,0,9,-4,-3,-3
19970,-8,19,-5,4,-3,-2,-3,-10
19975,-16,-6,-10,-4,-8,3,4,18
19980,6,-22,9,-2,-19,-16,-7,-25
19985,-8,3,-6,2,15,0,3,-2
19990,21,-51,-6,-3,12,1,-1,2
19995,-6,3,-13,-1,-49,5,1,0
20000,-10,-12,3,-3,28,2,-1,4
20005,-3,-9,-2,2,7,2,-2,1
20010,1,-12,-10,6,-7,0,1,-13
20015,-17,13,11,-3,24,1,-5,-1
20020,0,23,6,-3,-40,-6,0,2
20025,7,8,7,-6,15,3,-3,-7
20030,5,-26,10,4,6,-1,4,7
20035,3,13,-15,-3,0,0,4,7
20040,-21,-1,7,8,-8,4,-3,4
20045,29,-29,23,-2,6,-7,-3,-26
20050,-20,9,0,-7,-12,-1,-3,1
20055,-7,-46,-4,0,20,-4,0,0
20060,11,60,10,0,-7,-2,5,5
20065,-17,-51,-24,5,0,-1,0,11
20070,-3,35,19,-12,0,9,2,-6
20075,9,-9,-10,7,30,-11,-6,-18
20080,2,15,9,7,-16,19,6,8
20085,-7,-7,-6,-18,7,2,-4,-2
20090,6,-4,-8,2,13,-2,1,5
20095,-17,-2,12,2,-25,-7,-1,16
20100,28,12,-7,1,-9,-3,-1,-19
20105,0,6,-9,-2,-8,-1,-1,8
20110,-3,23,17,-3,6,-2,-1,1
20115,3,-9,-40,-2,9,0,-1,1
20120,-18,-26,4,-2,-14,-8,-2,-6
20125,26,4,1,1,2,-1,-2,5
20130,11,66,1,-4,5,2,-1,9
20135,-26,-65,29,-3,-13,4,-1,-12
20140,22,6,-15,-4,-2,-7,-3,0
20145,-38,-50,-23,2,-7,3,1,-13
20150,3,12,5,7,51,7,-1,4
20155,12,15,8,-16,-26,-5,3,0
20160,-4,13,-19,-4,1,-7,-7,7
20165,-9,-24,-11,-5,-28,-2,1,-7
20170,0,-7,11,1,7,-8,-7,-6
20175,1,12,7,8,17,8,3,3
20180,10,5,12,0,1,-5,-1,4
20185,-10,30,0,-1,-15,-9,-2,3
20190,-4,-9,-13,-6,3,13,4,0
20195,6,-3,-9,1,20,5,-2,-7
20200,0,7,14,-1,-14,-7,-5,-1
20205,-6,11,-5,7,4,-4,-1,-7
20210,-5,-22,10,-4,-10,-2,2,10
20215,-34,1,-18,-1,3,-8,-12,-22
20220,34,-4,-6,-3,-6,4,2,-6
20225,9,26,10,-4,6,-1,-5,-4
20230,-6,56,12,11,4,0,-1,-1
20235,7,4,-12,-9,-10,11,10,6
20240,-12,-14,2,3,-4,-8,0,0
20245,-5,9,9,-4,-12,-9,0,10
20250,-3,4,-9,7,7,7,1,-3
20255,44,0,-10,0,-4,2,1,15
20260,-11,-13,4,-3,-1,-6,-8,-25
20265,1,16,-20,1,13,11,2,6
20270,-7,-48,-13,1,1,-8,-2,-3
20275,-15,-20,9,5,2,-3,-2,-4
20280,12,-6,-1,-4,14,5,0,10
20285,-13,37,0,4,-19,-8,-4,0
20290,6,-75,-13,-13,2,-3,-4,-6
20295,21,41,6,3,-3,5,0,-5
20300,-10,-45,21,-7,-8,-1,5,6
20305,-1,2,3,12,15,9,-1,1
20310,-7,7,-14,-12,-22,1,5,5
20315,-38,-23,-9,10,0,-7,-3,-7
20320,33,-1,-15,-10,13,1,-4,5
20325,6,3,22,3,-7,6,7,-3
20330,7,16,-1,11,11,-10,-3,-5
20335,-10,10,8,-7,-5,3,-3,-2
20340,-12,7,-8,7,4,-5,-1,1
20345,-7,36,-9,-10,-4,-2,4,11
20350,-4,-65,-7,-8,-19,-5,-7,-12
20355,-5,43,14,3,-7,-8,-4,-3
20360,3,-11,-27,2,5,2,1,4
20365,15,0,15,4,39,0,0,-4
20370,-31,11,5,-5,-35,-1,5,13
20375,31,-28,-16,-3,25,5,3,-5
20380,-5,-15,7,-1,-7,5,-3,-16
20385,-6,-7,-5,-4,-1,-6,-8,-5
20390,-2,-65,-8,1,-8,-6,-2,-2
20395,7,-6,1,-2,-6,-6,-3,8
20400,-13,64,25,2,3,-2,-2,0
20405,0,-53,-39,-9,5,2,-1,2
20410,-3,50,7,1,-3,5,0,-6
20415,8,-42,-1,8,-3,-16,-4,6
20420,-16,-19,-25,-8,4,10,0,-2
20425,16,26,11,-14,-21,-1,-2,-5
20430,-6,-24,-10,4,5,-2,-1,-10
20435,15,38,5,4,-23,-4,2,3
20440,-18,-68,-4,0,18,3,6,19
20445,-22,0,6,-3,-23,-2,-4,-3
20450,38,57,1,-5,10,-2,-6,-11
20455,-11,-14,4,0,-8,-2,0,-3
20460,2,15,-12,6,-7,-12,-6,-2
20465,-1,-19,-13,4,-47,1,1,7
20470,-22,16,-7,-7,53,12,7,9
20475,10,5,13,-2,-10,-1,-2,-1
20480,16,18,-6,7,7,-1,1,7
20485,-8,-8,5,-1,-5,-2,-1,-12
20490,-1,12,9,-3,-16,0,2,-5
20495,-19,-36,-28,-4,15,-3,-5,-8
20500,2,11,10,-5,-11,6,-2,-4
20505,2,53,6,-2,26,-1,1,4
20510,-14,-13,-5,11,9,-7,-6,3
20515,32,23,14,-18,-47,0,5,14
20520,-20,-13,2,5,39,6,-2,-12
20525,10,-19,14,4,0,-5,-1,1
20530,-6,-16,-30,0,22,1,-1,2
20535,-6,30,28,-2,-12,3,-1,1
20540,-8,-35,-2,0,-20,0,1,9
20545,17,8,14,-4,17,2,-4,-3
20550,10,25,17,4,-22,-10,-9,-21
20555,-1,-50,-30,3,7,2,1,3
20560,-12,12,12,-6,-1,11,3,-8
20565,-7,-9,12,-2,-1,-3,0,12
20570,15,8,-3,-4,-1,-1,2,6
20575,-21,-30,-9,5,7,-11,-6,-5
20580,4,49,-9,-6,-21,-3,-4,-11
20585,8,-90,-5,4,2,5,5,1
20590,-2,8,-22,-2,1,2,-1,-3
20595,-11,36,26,2,10,2,3,3
20600,-7,6,-18,-4,0,1,1,0
20605,13,-7,-10,-2,0,-6,-2,0
20610,3,-18,18,1,-10,-4,-6,-7
20615,-10,18,-19,2,11,2,-2,1
20620,-4,33,-3,2,5,0,2,-2
20625,-23,-27,-1,-5,-15,-6,-5,-9
20630,15,-18,-7,-3,3,3,2,9
20635,-8,-60,5,-5,2,3,0,-2
20640,5,-20,-40,1,-2,-8,-3,2
20645,-13,41,16,4,6,-3,-4,-8
20650,15,35,10,10,-8,0,1,3
20655,-8,28,-10,-14,-1,8,-2,-13
20660,16,-37,18,14,22,-14,-4,5
20665,-24,-14,-10,-17,-46,11,8,5
20670,13,1,14,-1,32,1,0,-11
20675,0,22,-8,4,-7,-4,6,18
20680,0,5,21,5,4,-6,-7,-18
20685,1,-7,-22,-5,-4,-6,-2,6
20690,-12,-1,5,-5,-35,2,-1,7
20695,-5,24,14,2,36,10,3,-6
20700,-9,-11,8,-1,8,1,-2,-14
20705,18,8,-33,3,5,-1,2,9
20710,-3,48,8,-1,-9,-2,-1,3
20715,7,-24,-13,2,7,-6,-4,-2
20720,-3,-5,16,-5,-32,0,-2,-3
20725,0,31,13,4,19,-2,-6,-6
20730,-5,-27,-18,12,18,-1,6,8
20735,1,-8,-7,-11,-31,-1,3,4
20740,16,21,-3,-2,14,0,-1,-6
20745,-7,-24,10,7,6,-3,-3,0
20750,-1,-2,-9,-6,9,2,0,11
20755,-11,-37,4,0,8,0,-4,-17
20760,1,-3,-50,-11,-19,-1,1,3
20765,4,2,31,11,34,9,2,-1
20770,-5,26,3,8,-17,-7,-3,-1
20775,-8,5,13,-19,-12,-3,-3,-9
20780,-7,-8,-3,-6,-16,-5,-3,1
20785,9,3,-9,0,0,-8,-8,-8
20790,-3,6,-3,4,-7,-2,-1,6
20795,12,-42,5,-5,-19,2,-2,1
20800,-4,5,34,6,32,4,5,-3
20805,2,-3,-32,-5,-5,4,2,3
20810,-1,19,25,-4,-11,-10,-7,-6
20815,-1,-45,-23,6,0,6,-1,-4
20820,-11,21,9,0,-41,-11,-3,3
20825,16,24,15,6,22,0,-1,-4
20830,6,-11,-4,-16,12,17,4,-1
20835,-8,33,6,4,-3,-7,1,-5
20840,-1,-7,-10,4,5,-3,-2,-4
20845,-20,-17,6,-9,-9,-5,0,-8
20850,-10,-17,-7,1,-4,-1,1,1
20855,-8,35,-1,2,-31,-10,-4,12
20860,10,-34,-7,-5,28,12,-2,-19
20865,-10,29,17,5,-9,-7,-2,-7
20870,-21,-17,-16,-5,-2,-10,2,-2
20875,23,44,19,-1,7,5,-3,5
20880,5,7,16,0,-16,-1,2,14
20885,0,-18,-12,-1,-25,-9,-7,-5
20890,-11,-6,-1,-1,26,6,1,-14
20895,-3,39,-3,3,25,5,1,10
20900,5,11,23,7,5,-1,-1,-6
20905,12,-15,-32,-9,-21,2,5,11
20910,-5,-29,6,1,-8,-9,-5,3
20915,2,40,1,2,-7,-11,-5,5
20920,-7,-49,-17,-2,12,-6,-3,-10
20925,5,-8,20,-19,22,23,5,5
20930,-3,1,11,4,-11,0,2,-4
20935,28,-15,8,-1,-13,-5,-5,-10
20940,-18,-5,-33,-7,20,11,0,-9
20945,-13,43,1,12,-6,-11,3,8
20950,-1,-28,-4,-5,-16,0,-1,0
20955,11,7,5,3,24,2,1,1
20960,-4,3,-15,-2,-25,-10,-6,-3
20965,-7,-66,0,1,-1,-2,-4,-4
20970,11,8,11,-5,-20,-2,-6,6
20975,-25,16,-30,14,4,6,2,-14
20980,2,-14,1,-13,15,-2,5,12
20985,2,51,0,6,-13,6,2,3
20990,16,-47,7,-5,17,7,2,-3
20995,-3,-1,-1,2,-1,3,1,4
21000,0,45,20,-2,-8,-1,-1,-7
21005,1,-12,21,9,23,4,-2,-6
21010,-7,44,-18,2,7,-8,-4,8
21015,11,-76,9,-4,-5,-3,-2,-18
21020,-1,33,11,5,-36,-1,-1,11
21025,-2,21,-2,-4,8,-3,-4,-2
21030,2,-12,-5,1,4,2,0,-3
21035,-10,-10,-12,-8,10,-2,-1,4
21040,2,6,-1,-3,-26,-3,2,5
21045,18,-21,-21,-2,8,0,2,8
21050,-21,17,24,12,-12,-4,-1,-14
21055,6,8,-20,-5,11,17,4,0
21060,5,-17,8,5,15,-11,-5,2
21065,-12,-5,-16,-18,-18,1,-4,-14
21070,4,-13,-8,3,4,-7,-5,-6
21075,-7,42,-1,-6,-15,-7,-1,2
21080,-10,-5,-12,1,3,4,1,7
21085,11,66,-6,4,9,-5,0,8
21090,0,-13,-11,-7,-21,3,-1,-9
21095,3,-24,12,3,-13,-7,-4,-11
21100,-1,-21,-15,1,19,-7,-6,4
21105,-9,7,10,4,-10,-2,-3,-1
21110,9,32,-1,-15,12,10,3,5
21115,-15,3,1,8,1,-6,3,12
21120,17,-59,-7,-2,11,20,5,-5
21125,-3,-40,7,6,1,-4,-3,-9
21130,7,2,-4,2,-7,-9,-1,9
21135,-7,-3,-2,-2,-21,-14,-6,0
21140,5,37,24,-5,21,9,7,9
21145,-16,-64,-33,3,-27,-12,-5,-5
21150,7,38,20,-12,8,3,2,-2
21155,3,2,-24,-2,-16,3,3,-1
21160,-10,18,-9,4,-5,-10,-7,-8
21165,-6,-13,16,-9,-3,4,7,18
21170,-2,-12,-17,15,16,-1,-2,-19
21175,-11,-27,-8,-10,2,-1,-6,-2
21180,20,71,11,-2,-9,5,-1,-11
21185,5,-1,21,2,1,-9,-4,4
21190,-19,-32,-35,0,-7,3,7,-2
21195,11,55,31,11,34,0,-1,5
21200,-19,-36,-35,-18,-22,15,5,10
21205,7,54,0,-5,-13,-3,-6,-23
21210,8,6,25,0,33,-4,-3,2
21215,6,-8,-12,4,-13,-5,5,2
21220,-11,-14,17,3,3,-6,-7,-5
21225,-4,-27,-18,-2,21,18,8,6
21230,4,33,-4,3,-10,-6,-1,3
21235,2,-36,-23,5,35,-5,-4,1
21240,-4,-16,28,-14,-32,6,3,3
21245,-4,46,-13,1,1,-4,0,-5
21250,-2,-60,-15,-5,-26,-13,-9,5
21255,0,23,15,11,17,3,-3,-8
21260,-1,-4,8,-20,-11,9,7,11
21265,7,50,1,5,38,15,3,-12
21270,-4,0,4,5,-34,-4,-1,7
21275,-13,-44,0,-7,18,0,2,8
21280,15,-19,-1,2,3,-19,-9,-2
21285,1,4,9,-1,-16,6,2,-8
21290,-9,-21,-6,0,15,3,-5,-4
21295,-1,6,22,-1,-18,-4,-8,-8
21300,0,6,-6,13,14,-9,3,3
21305,-2,-16,-7,-7,17,14,6,9
21310,-8,36,21,-6,-7,0,3,14
21315,27,-25,-8,-5,-23,-7,-3,-13
21320,-12,3,5,18,32,12,-2,-9
21325,3,-1,-7,1,-13,-19,-10,-1
21330,-5,13,4,-3,-8,7,-1,-7
21335,1,-7,5,-6,1,6,5,10
21340,-2,4,-2,9,-30,-8,0,0
21345,5,-26,-7,-4,41,3,-3,11
21350,-6,17,-16,-7,-19,-1,-3,-23
