time,emg1,emg2,emg3,emg4,emg5,emg6,emg7,emg8,hand,pose,orientation,testPerson
0,1,16,13,0,6,6,-3,-15,1,1,100,BueBaby!
5,1,16,1,-1,0,3,5,6
10,7,2,4,1,1,-4,-2,-11
15,5,-13,6,-2,-8,-5,3,15
20,-4,-8,9,0,-2,-12,-6,-3
25,-7,-27,-17,-6,-17,11,5,-7
30,4,15,-6,5,35,6,0,-8
35,-3,18,4,3,-13,-2,1,4
40,3,25,26,-7,-6,0,-1,2
45,-8,-33,-15,-3,-20,-2,-3,2
50,-12,-18,-2,4,20,-2,3,3
55,1,-24,9,-5,3,-4,1,0
60,16,16,-9,2,-33,-19,-5,-2
65,-14,-16,7,0,61,14,5,2
70,-1,31,-6,-6,-31,0,-1,-12
75,6,-19,2,3,6,-7,-4,-2
80,-7,-8,-12,0,22,6,5,9
85,3,1,1,5,-61,-13,-5,-6
90,-5,-30,-4,-11,40,-3,-1,7
95,-19,30,-2,1,1,2,-2,-6
100,6,-5,-10,-5,-18,0,-1,0
105,29,-8,-17,-2,25,10,6,15
110,-23,3,26,9,-11,-5,0,-3
115,19,4,-19,-4,-6,7,-3,0
120,-2,15,4,2,12,-1,3,14
125,-25,-41,-17,-9,-3,7,0,-10
130,9,-8,1,-4,-3,0,-3,-5
135,0,-25,3,3,-35,-24,-7,3
140,-4,19,-13,0,14,34,12,-1
145,26,35,20,-1,14,-7,-2,5
150,-15,-48,-5,-1,-23,-3,-3,1
155,-23,17,-15,-4,-11,-18,-5,4
160,34,-11,14,-1,24,12,-1,-14
165,-6,-19,-8,3,-18,-2,-2,0
170,9,15,-10,-2,17,4,1,0
175,-5,-4,9,4,-18,-5,-4,1
180,-23,18,7,-11,-17,-4,-4,-14
185,6,-17,-10,0,17,6,1,2
190,-5,13,9,-1,7,-5,0,-2
195,3,6,14,1,13,7,1,1
200,-48,-16,-13,0,-47,-18,-6,6
205,59,42,19,3,47,4,4,-3
210,-7,14,16,4,-13,-8,-4,-2
215,9,19,-10,-4,7,11,1,-6
220,14,-31,15,3,3,-13,-4,-2
225,-38,-4,-20,4,-4,-9,-3,7
230,9,14,-9,-4,-8,7,1,1
235,12,-7,4,1,10,10,7,-4
240,-5,-14,12,11,-19,-2,-1,-4
245,-13,-4,-15,-7,-2,-1,1,6
250,11,19,13,-2,32,-16,-5,1
255,-7,-13,-8,-11,1,36,9,-6
260,24,15,-10,4,-15,-24,-9,2
265,-19,-9,-1,-6,3,16,2,-5
270,15,5,10,1,-18,3,0,5
275,-19,29,-23,-2,0,-15,-5,-1
280,12,-56,-1,-6,10,0,3,15
285,-17,25,-21,-7,-27,-8,-3,-21
290,-4,8,13,5,-3,-10,-5,-4
295,-2,-18,49,-6,33,3,-4,-5
300,22,30,-16,3,1,5,-1,-8
305,5,-1,14,6,-7,-14,-4,10
310,-3,4,-11,-14,5,5,2,1
315,-6,-31,-7,1,-18,4,3,11
320,-23,-28,-38,-7,-26,-11,-2,-8
325,18,9,24,4,39,2,0,7
330,-4,-25,-7,6,-7,1,1,4
335,4,11,3,-3,0,-4,-6,-11
340,-3,2,-13,-4,-21,-11,0,12
345,-9,16,-7,2,11,0,0,12
350,11,20,-17,0,10,-3,-6,-29
355,-7,13,12,4,-19,-6,0,6
360,-7,1,3,-4,-10,5,-3,-7
365,4,-16,29,3,29,-3,2,9
370,-13,-7,-17,-1,-43,-5,-2,1
375,-7,-19,-19,-9,22,1,0,-3
380,7,28,-1,-6,-2,-4,-2,0
385,-2,22,13,7,-11,1,-1,-2
390,-29,-56,4,-3,-29,5,4,3
395,38,35,17,5,40,-3,-4,-11
400,-1,6,-7,-7,3,1,2,16
405,-6,-53,-9,-4,-17,-9,-5,-16
410,5,31,3,-3,-5,3,3,12
415,-5,-11,13,8,-20,-8,0,4
420,-5,21,-18,-3,55,0,-2,0
425,9,-23,-29,1,-22,4,-1,-7
430,-6,-5,1,-6,10,-8,-2,4
435,-14,9,-19,8,-7,1,5,15
440,-8,-30,25,1,16,3,-1,-17
445,40,43,3,6,13,7,2,-2
450,-11,-7,-2,3,-15,1,-3,-10
455,7,-2,-24,-3,37,-5,-2,6
460,-7,24,18,7,-15,3,3,4
465,-32,0,-6,-6,-37,3,1,4
470,30,-28,9,-7,26,1,3,2
475,14,0,3,-2,-25,-2,-1,-3
480,-13,-4,-23,0,17,-10,-5,4
485,-5,-1,9,-8,-18,-6,-4,-12
490,-11,69,3,4,11,3,0,-1
495,7,-50,-19,-7,-11,-2,-1,-1
500,-20,4,0,6,27,5,6,6
505,18,19,7,-2,-40,-4,-7,-7
510,-14,-25,1,1,24,6,-3,-12
515,-2,24,2,4,-3,-3,0,-1
520,-1,-28,0,-1,13,-10,-5,-7
525,-1,3,4,-11,-15,9,5,16
530,1,17,-12,6,0,3,5,1
535,-12,-31,-9,0,-9,8,-4,-11
540,17,-8,11,1,-17,3,1,0
545,-15,25,9,2,21,-12,-5,9
550,33,24,8,7,-7,9,5,1
555,-16,25,18,-20,-6,0,-4,-5
560,-10,-6,-7,2,-30,-2,0,-9
565,-14,4,-12,0,7,-10,3,12
570,-3,1,0,1,4,9,-2,-1
575,17,27,7,3,24,2,3,2
580,29,25,12,-1,-10,5,-2,-7
585,-2,-13,9,-8,-8,-4,1,10
590,-11,-14,-12,6,1,-9,-1,3
595,-11,15,-15,-6,-32,2,-2,-2
600,8,-3,-13,2,49,3,-5,-9
605,10,-40,21,0,-34,-3,0,5
610,-6,-37,-12,1,25,-9,-5,-19
615,-50,-2,-6,3,0,-3,2,13
620,43,17,28,-9,0,12,3,-3
625,9,10,-7,-2,-1,-2,-5,-11
630,-15,-17,-22,-9,-14,-6,2,15
635,25,-20,-16,0,-5,-12,-4,-9
640,-16,8,-3,-3,13,-10,-7,-2
645,-19,4,-9,3,-19,8,4,-7
650,-6,-17,14,-11,-15,-8,-7,1
655,7,19,4,9,7,3,-1,-6
660,-7,-38,-27,-5,-29,0,2,4
665,6,4,-15,-9,33,3,-4,-6
670,-5,9,11,0,-25,-9,-1,11
675,5,0,-3,5,24,-6,-2,-9
680,-4,2,1,-5,-34,2,1,4
685,-6,-9,8,1,-7,-4,0,-6
690,-1,-4,-7,-5,25,2,1,-8
695,13,-3,0,-3,12,2,0,3
700,0,5,-21,5,-21,-7,-3,5
705,-18,-11,-26,1,12,-6,-2,-3
710,24,36,6,7,9,28,8,-12
715,-16,-13,-3,1,-39,-13,-5,-12
720,-13,-6,-1,-1,32,16,2,-8
725,0,2,14,0,28,-10,-6,-5
730,4,-1,-11,-9,-11,-4,1,12
735,-12,17,9,4,-8,4,1,4
740,0,-49,13,-2,12,-7,0,4
745,6,12,-15,2,1,2,-2,-14
750,-5,-5,-5,-15,-3,1,-7,-11
755,-12,-21,-6,-1,27,-4,1,7
760,-23,21,11,7,-26,-10,-1,4
765,31,-2,3,-1,18,19,5,9
770,-15,5,0,1,2,-3,1,0
775,25,2,-10,-7,-32,-4,-3,-16
780,-17,42,9,8,33,8,-1,2
785,15,-9,-19,2,-33,-10,-4,-10
790,-14,24,4,3,-1,-4,0,9
795,4,-1,26,2,38,11,7,19
800,-13,-9,-22,-13,-20,-4,-1,-21
805,2,17,-22,6,-28,-7,-3,-1
810,-5,0,11,4,30,2,-3,4
815,19,-31,-3,2,-18,-19,-1,12
820,15,-17,-19,-16,33,17,2,-12
825,-7,6,26,11,3,1,1,3
830,9,8,-7,-4,-30,-6,-1,1
835,-30,-8,2,0,-4,-4,-3,-4
840,17,28,10,15,6,-8,-1,8
845,-3,10,-23,-18,-26,10,7,14
850,-20,-78,-11,-7,43,-19,-12,-30
855,12,36,19,5,28,16,5,4
860,-16,-8,9,8,-15,-5,-1,-1
865,19,13,4,-17,12,-1,-4,-2
870,-15,3,19,7,-43,-13,0,10
875,26,7,-17,-12,-8,-6,1,14
880,-20,-1,5,-5,6,2,-2,-8
885,17,-21,18,8,-9,-5,-1,-8
890,-6,-10,-1,2,-3,5,1,3
895,-1,1,-5,5,7,6,-3,-7
900,0,22,-21,0,0,-7,-1,8
905,-19,-23,-6,-21,-43,1,0,-3
910,11,-50,3,3,13,8,3,9
915,2,-16,-10,-5,-7,-6,-9,-14
920,8,-7,11,-1,14,1,0,-1
925,-19,-10,-10,7,4,-9,-4,0
930,3,28,-11,-3,22,21,9,14
935,4,20,-6,6,-31,-10,0,2
940,11,-50,-32,-8,-34,0,-3,-17
945,-15,12,22,-1,17,5,3,8
950,11,30,7,6,-23,-4,-7,-13
955,-35,-38,-19,-12,-54,-12,-2,-1
960,14,10,18,4,26,11,3,5
965,-5,33,-4,7,75,23,2,-9
970,8,-2,13,-2,-45,-10,-1,6
975,-20,7,-7,2,42,14,0,0
980,2,13,32,3,-24,-13,-6,0
985,-18,-46,-78,-8,-8,-4,-4,-11
990,31,27,1,4,12,2,-3,-4
995,8,-13,10,-8,-4,2,-1,-9
1000,3,12,4,-6,-18,-4,2,13
1005,-12,15,36,6,12,1,-3,-10
1010,-14,-5,-33,-1,-5,-4,1,4
1015,4,-12,7,-1,22,-4,-3,1
1020,-2,-3,-14,-7,-30,5,1,2
1025,-1,-8,11,6,-6,-8,0,1
1030,3,37,-8,-2,44,13,2,-4
1035,7,-41,0,3,9,2,4,2
1040,-9,7,-7,-3,-22,-4,-1,3
1045,17,-13,0,-6,-8,-8,-2,-4
1050,-2,-7,11,-4,-31,-6,0,12
1055,0,10,-5,-5,-7,-8,-3,-6
1060,29,22,25,15,45,19,1,-8
1065,-11,-3,17,7,-18,-4,-2,-3
1070,-1,-3,-6,-9,1,1,-3,-4
1075,-15,16,-9,-7,6,-2,2,3
1080,-14,-20,0,-1,-8,-15,-2,12
1085,9,15,15,1,-35,-3,-1,-4
1090,20,40,-16,3,65,8,-5,-8
1095,-14,-48,-21,-3,-14,7,2,3
1100,-21,-28,16,-1,10,4,0,-12
1105,20,0,2,-1,-7,-6,0,3
1110,-5,12,2,0,-23,-13,-5,9
1115,8,15,1,-3,-20,-7,-2,2
1120,-15,33,7,5,33,30,9,-14
1125,-15,-43,-16,4,17,-2,-7,-5
1130,-4,-17,17,-7,-10,-4,2,-1
1135,-4,14,26,6,9,5,-2,-4
1140,17,9,-3,-4,-33,-13,-1,13
1145,-8,9,-12,-5,-3,-1,-1,-2
1150,3,-12,0,4,3,-8,-3,-11
1155,12,20,-12,2,52,12,-3,-5
1160,-13,-32,8,-3,-43,-4,3,12
1165,20,21,13,-3,43,3,1,-3
1170,-24,-16,-8,-2,-17,1,0,-2
1175,7,2,-9,4,-45,-13,0,8
1180,2,7,6,-3,20,3,-5,-8
1185,-5,-16,-16,-13,6,6,2,4
1190,-11,-39,-18,3,-13,-12,-8,-11
1195,1,16,26,-1,-15,2,0,4
1200,11,6,-5,-1,18,3,2,8
1205,-9,5,-14,6,-2,-4,4,8
1210,-11,9,4,-2,4,5,2,-1
1215,-35,-68,-9,-1,0,2,-4,-11
1220,38,24,-18,-3,-60,-24,-2,1
1225,-11,5,8,-3,77,16,-5,-19
1230,13,-2,25,2,0,3,0,-3
1235,3,27,-5,-6,-3,0,-1,-1
1240,-22,-26,-17,-1,-22,-20,-6,0
1245,6,11,12,-3,-17,3,1,14
1250,-4,-9,-17,1,28,1,4,8
1255,-9,35,12,2,7,3,-3,-7
1260,1,12,8,-11,13,-5,-1,1
1265,34,27,-14,1,-4,-3,-2,-6
1270,-13,-20,29,3,-17,-9,-7,-7
1275,14,20,-10,0,13,7,2,-2
1280,-17,-14,-11,-4,11,-2,0,21
1285,-37,-30,-5,1,-24,-8,-1,-11
1290,34,57,15,5,-30,-1,1,-11
1295,6,-22,-17,5,54,19,6,3
1300,-3,-17,-8,5,8,7,-1,-7
1305,-6,-7,23,1,-21,1,1,15
1310,-1,-16,-9,1,12,-2,1,2
1315,-4,9,0,-10,-33,-6,-1,-1
1320,-1,19,-5,3,25,-1,-2,-8
1325,-2,24,14,8,-11,-4,-2,-4
1330,-30,-31,-34,-3,3,6,0,2
1335,49,38,12,3,-8,-6,0,12
1340,10,-20,14,5,-10,7,0,5
1345,-21,17,-26,-12,40,-8,-12,-26
1350,-6,-44,5,-10,-4,8,2,2
1355,-14,-1,0,-2,-20,-15,-3,-6
1360,6,16,7,-3,-10,0,1,3
1365,-22,-7,-4,0,-48,-20,-1,11
1370,29,15,0,-4,51,25,4,4
1375,-6,-6,1,6,24,2,3,13
1380,-23,-28,-13,0,-22,-12,-1,-11
1385,21,-14,13,5,-42,-8,-5,-16
1390,-5,36,2,4,51,32,6,-8
1395,-16,-31,-21,-6,-21,1,0,-1
1400,2,32,-5,-4,2,-3,-4,-6
1405,-11,-47,-2,7,18,2,4,11
1410,4,17,4,-4,-35,-12,-3,0
1415,-3,19,4,2,-18,-10,-2,-4
1420,-8,-2,0,-2,23,11,1,-5
1425,6,17,-17,-2,-2,2,3,7
1430,8,-3,0,1,-19,-15,-4,6
1435,-16,18,10,2,2,2,-4,-10
1440,8,29,-9,-3,34,-7,-1,0
1445,15,-10,24,-5,-58,-4,-1,4
1450,16,1,-3,-4,49,-3,-3,18
1455,3,-18,-30,-2,-16,-3,-6,-32
1460,6,45,20,2,-9,-4,-4,-2
1465,-18,-11,0,-4,-6,6,4,3
1470,3,-15,17,5,-3,-14,-2,11
1475,5,-2,3,-7,-11,0,2,5
1480,-12,-58,12,1,-5,-2,-3,-8
1485,-25,1,-34,-2,30,10,3,14
1490,30,-15,20,1,-7,-8,-6,-9
1495,3,60,-14,-8,-37,-2,1,1
1500,-7,-17,10,-2,68,10,-4,3
1505,0,16,18,4,-21,-7,0,-8
1510,-12,-29,-1,1,-7,8,0,-4
1515,-4,-1,18,-3,15,1,0,1
1520,11,16,-7,2,-18,-11,-4,-3
1525,-3,-14,-20,-5,-44,-3,1,10
1530,-16,9,-4,-4,52,4,-2,-11
1535,0,-35,-16,4,28,-1,0,2
1540,0,-18,-4,-5,-37,-3,3,12
1545,10,37,21,6,34,1,-5,-13
1550,-2,1,-6,-2,-60,-4,0,-6
1555,-2,-8,20,3,1,-3,-1,5
1560,4,1,-19,-8,27,5,1,-10
1565,14,-4,-26,3,-12,-2,-1,8
1570,-25,10,-1,-1,-1,-1,0,1
1575,18,-8,6,0,3,1,-1,-3
1580,-9,-15,-14,9,8,-8,-8,-3
1585,14,24,21,-2,-5,8,-2,-15
1590,-14,26,-22,-3,10,-5,1,-3
1595,-3,-55,3,7,1,8,3,8
1600,-13,-10,3,-7,-53,-19,-7,-13
1605,8,-25,-15,2,80,26,4,4
1610,8,31,16,3,-17,-1,5,9
1615,-24,0,-6,2,-34,-10,-5,-8
1620,30,13,-7,-2,43,18,6,5
1625,8,-10,23,1,-12,-13,-4,-2
1630,-17,-27,-21,-6,-37,-5,-5,-5
1635,23,49,30,7,19,-2,1,9
1640,-18,-58,-13,1,-11,11,5,3
1645,-8,8,-11,0,-7,-16,-1,-3
1650,-3,-27,17,1,43,11,2,6
1655,-6,6,-12,-10,-12,-4,-5,-2
1660,-14,13,-16,1,-10,-4,-5,-8
1665,11,-15,6,0,3,-3,-1,3
1670,0,8,13,-9,10,-5,-1,-4
1675,-18,-31,-46,-4,6,3,3,11
1680,25,27,3,2,-6,-8,-4,-4
1685,-12,9,0,-4,-3,-2,0,-6
1690,-11,-15,-10,6,-57,-13,-5,-2
1695,15,-2,16,-10,56,15,0,5
1700,6,16,5,-1,-16,4,0,-10
1705,4,23,7,4,14,-1,1,21
1710,-4,11,-7,-2,-16,11,-2,-20
1715,0,0,17,2,9,-9,-4,-9
1720,-11,23,5,7,-21,-10,0,10
1725,-3,-42,0,0,29,18,2,-3
1730,0,8,-35,-3,-22,-14,-5,-12
1735,5,-15,-4,-3,-11,-3,0,2
1740,5,18,7,-6,6,-1,-4,-3
1745,1,17,17,4,-16,-6,-1,0
1750,-3,-29,-3,-4,-16,15,6,9
1755,0,0,-10,6,29,-9,-4,-12
1760,17,51,6,-3,28,7,5,15
1765,-11,-33,-16,-14,2,4,-3,-8
1770,-1,19,5,4,-11,-12,-2,1
1775,-2,8,22,-2,-26,-6,-3,-5
1780,7,-29,-27,3,-4,10,8,11
1785,-1,2,-7,-7,28,-2,-7,-8
1790,-2,-9,-7,0,-10,-14,-3,0
1795,-12,31,-6,-3,-42,-5,-5,-6
1800,-22,-13,7,2,45,13,5,3
1805,38,-9,-2,-10,-26,-7,-3,6
1810,3,38,9,9,2,-10,-3,1
1815,-7,-6,4,-9,-7,10,2,-4
1820,-3,-25,2,3,29,-5,-6,-25
1825,-10,12,1,-6,-18,-2,0,-1
1830,-5,-5,1,2,-27,-14,-7,-1
1835,-7,-14,-18,-6,18,9,2,3
1840,1,6,7,-8,-12,1,-2,-2
1845,-2,-17,10,1,27,1,1,6
1850,1,16,-5,-3,-9,-1,-1,3
1855,-7,-7,13,9,-29,-9,-4,-18
1860,-6,-12,1,-7,6,1,-2,10
1865,-5,1,-7,1,-38,-4,-1,-9
1870,22,21,-3,4,42,13,4,12
1875,9,-61,-8,4,21,6,1,1
1880,-18,4,7,-1,-50,-16,-4,-14
1885,-10,2,-11,5,14,11,0,2
1890,0,-6,-41,-8,15,-5,-4,4
1895,1,17,10,2,1,11,3,-1
1900,-1,3,6,-2,-9,-11,-5,7
1905,14,8,-2,3,-28,4,9,3
1910,-10,-18,20,-2,-4,-6,-8,-12
1915,13,21,-16,6,36,10,3,7
1920,-16,-22,-6,-6,-30,-6,2,4
1925,5,-3,4,-1,-5,-8,1,18
1930,7,14,-6,4,-31,-7,-5,-23
1935,3,18,24,0,53,22,6,4
1940,10,5,4,1,56,8,1,4
1945,-16,-13,6,0,-10,-11,-5,-19
1950,8,-8,13,-4,1,1,3,10
1955,8,-11,-58,-5,-54,-20,-4,3
1960,-19,-8,2,-5,-6,-8,-4,-3
1965,-12,-21,-1,5,25,10,3,-2
1970,29,0,35,-3,-6,-10,-2,9
1975,-14,13,-13,1,-2,-10,-3,-11
1980,-9,-21,-23,-5,-71,-3,-1,1
1985,-1,6,1,-9,42,7,-5,-16
1990,-3,-2,-8,0,37,1,2,7
1995,-6,-13,27,7,-42,-11,-3,3
2000,29,7,1,6,32,-7,-3,-9
2005,-25,38,-31,-14,25,-6,-6,-11
2010,-12,-45,21,3,-10,11,5,-2
2015,-6,-5,1,-11,-27,-7,-4,8
2020,31,48,8,3,-16,1,2,2
2025,-16,27,-15,1,20,7,-1,-9
2030,9,3,-10,-2,0,3,0,-10
2035,-12,-16,16,-1,8,-7,-3,-1
2040,8,-1,15,3,-20,2,1,8
2045,21,0,-19,-1,8,3,0,8
2050,-18,-18,-18,-3,-38,6,-1,-1
2055,-11,22,24,5,46,4,3,8
2060,12,-32,-21,-6,-3,-10,-10,-19
2065,3,32,16,11,-22,12,8,18
2070,23,-43,20,3,35,10,5,-6
2075,-1,7,-17,1,-31,-5,-3,-10
2080,-12,-5,-2,6,72,6,0,4
2085,-13,-40,2,0,-55,-15,-4,1
2090,10,34,-7,-8,76,12,7,24
2095,-5,-12,0,1,-4,6,-4,-19
2100,-13,2,10,-2,-18,9,3,0
2105,6,-22,2,-3,-27,-16,-5,-8
2110,-28,12,5,3,-15,-13,-2,1
2115,-6,-11,-7,-4,-9,5,1,5
2120,28,-21,-5,1,7,-1,-1,-11
2125,-18,-30,24,7,20,-4,-4,-1
2130,5,15,-21,-1,35,5,1,-12
2135,1,-7,-16,-3,-18,-6,0,6
2140,-22,3,4,-13,-12,3,2,10
2145,16,10,5,4,9,6,2,2
2150,-10,21,10,3,-34,-20,-12,-20
2155,4,-37,-20,3,11,7,2,1
2160,-7,18,12,8,4,3,1,1
2165,20,-33,-1,-18,-14,-10,2,27
2170,-4,-3,1,2,-20,0,-1,-19
2175,9,24,31,0,37,7,3,12
2180,6,16,-6,3,29,-18,-7,-16
2185,-4,3,-28,8,14,19,1,2
2190,3,7,-1,0,-49,-1,6,28
2195,-2,8,17,-5,17,-7,-3,-19
2200,-9,-20,-26,-1,-23,13,4,5
2205,-22,21,14,4,-18,-13,-5,-4
2210,8,-17,-10,-2,37,-3,-3,-7
2215,10,5,0,2,-12,-4,-1,3
2220,-12,-9,-3,0,-64,-12,0,7
2225,29,28,-2,0,69,19,-2,-17
2230,-25,-39,-4,-12,-23,6,4,5
2235,19,1,-4,-2,-8,-17,-8,7
2240,-11,9,5,-5,-18,0,-3,-22
2245,1,6,11,-2,-6,-8,-1,1
2250,-12,1,-14,3,-1,2,0,-4
2255,-2,13,5,2,7,1,3,11
2260,-28,5,-48,-9,20,-6,-2,-3
2265,32,-62,3,5,-24,1,0,9
2270,-25,39,5,-8,47,-2,-4,4
2275,0,1,-1,1,-32,-4,-2,-18
2280,6,2,4,7,9,-12,-5,3
2285,-8,16,3,-17,-7,-6,-3,3
2290,10,20,-12,4,-40,1,1,-2
2295,0,-7,-6,-3,31,3,1,9
2300,2,-41,28,-1,-17,0,2,-2
2305,5,29,18,9,31,1,3,-1
2310,-7,-44,-24,1,-45,-8,-2,3
2315,-5,5,3,-1,14,11,0,10
2320,26,22,4,-4,2,1,-4,-4
2325,-16,-6,14,14,11,2,-3,-24
2330,-2,-3,-7,-7,-16,-7,-3,-1
2335,-2,18,4,1,-15,5,5,0
2340,-6,9,-23,-8,50,26,3,8
2345,-10,-63,1,-5,-89,-24,-4,1
2350,-20,-12,13,-4,71,-1,-11,-15
2355,15,-17,-11,-2,-30,-10,0,4
2360,8,-11,13,4,-13,-1,4,15
2365,-6,14,-43,-24,6,7,-3,-27
2370,-1,-7,-14,-4,-30,-8,-7,4
2375,-13,-5,19,10,4,-9,-5,-19
2380,22,30,18,3,39,24,7,17
2385,-31,30,-7,10,-13,-11,-4,-18
2390,28,17,-7,-6,13,10,10,31
2395,-6,-3,-5,-2,-46,0,0,2
2400,-11,-17,1,-1,16,-14,-12,-33
2405,8,10,21,4,12,7,3,20
2410,-30,29,-18,-9,-18,-7,-4,-13
2415,22,12,6,11,17,1,5,-2
2420,-8,1,2,0,-25,4,3,2
2425,-2,-20,-25,-3,5,-7,-2,10
2430,11,-3,41,6,-22,-7,-4,-1
2435,-3,2,-13,-5,33,1,2,2
2440,-18,-7,-3,-4,-19,-7,-2,-8
2445,-1,8,9,2,33,12,4,9
2450,21,-61,32,11,-4,3,-2,-2
2455,-6,-28,-14,-14,-34,-12,-8,-11
2460,-18,20,9,1,50,21,6,18
2465,23,26,-19,-2,2,-5,-1,-8
2470,-4,14,8,5,-1,-4,0,-8
2475,-3,-6,13,3,12,1,0,2
2480,-5,-16,-27,-15,-18,-12,-4,-4
2485,-13,1,9,-4,6,-11,1,12
2490,12,3,28,4,9,6,-1,-7
2495,13,34,-15,-5,-4,1,-5,-12
2500,0,-7,11,3,-21,-7,-2,3
2505,1,-6,11,9,-10,-8,-1,3
2510,-1,-5,-3,-5,-13,8,8,5
2515,-18,11,10,-7,22,3,-3,-7
2520,16,5,-23,7,-10,3,1,0
2525,6,-11,-11,-7,47,16,0,0
2530,-7,-2,-2,1,-8,-11,-6,-8
2535,-11,1,-1,-10,-29,-9,1,11
2540,14,-29,-1,-1,10,5,1,-9
2545,-2,30,17,7,5,-1,0,4
2550,7,5,-56,-6,5,2,0,-1
2555,-3,9,23,1,-2,-10,-5,-14
2560,-6,-19,-20,5,33,14,4,3
2565,-21,0,14,-10,-59,-12,-5,9
2570,8,9,12,7,19,5,3,10
2575,24,-22,-28,-6,30,1,-5,-15
2580,-8,37,15,4,-29,-22,-8,-13
2585,14,31,7,2,-19,4,5,18
2590,-18,-17,-13,-2,-16,7,3,5
2595,-9,-6,6,-6,14,-4,1,23
2600,10,19,32,0,9,-3,-2,-20
2605,-5,-38,-39,-5,-4,5,-6,-24
2610,5,3,4,3,9,-7,-1,0
2615,-7,-3,-4,5,-3,-1,0,2
2620,-8,-24,5,-8,-20,7,2,18
2625,8,10,-9,-2,7,-11,-5,-8
2630,-34,21,-1,-2,-14,3,2,-10
2635,17,-17,-11,-2,8,12,1,-2
2640,5,-7,-3,1,-8,-7,-3,16
2645,3,25,-8,4,-60,-21,-6,-16
2650,-19,-14,4,2,61,37,9,1
2655,0,-2,-13,-2,-16,-7,-2,7
2660,3,2,24,-3,4,-13,-4,0
2665,-6,18,-8,3,-6,8,4,7
2670,0,-23,-17,-13,-16,-12,-5,-10
2675,-18,7,9,2,25,-6,-3,-8
2680,9,12,-4,1,-1,1,-6,-13
2685,-6,-10,-3,-4,-14,1,-3,-7
2690,12,26,1,-7,25,-2,1,4
2695,6,3,-18,1,-18,-4,0,9
2700,-7,-43,-21,-7,-22,-4,-6,1
2705,4,1,26,6,35,9,2,0
2710,25,-68,-20,-3,-35,-17,-9,-4
2715,3,28,4,10,21,31,9,4
2720,-14,3,9,0,5,-3,2,7
2725,-4,-27,-16,-7,5,1,-1,1
2730,1,46,13,3,-3,-13,-8,-17
2735,-5,-22,-20,-7,-31,-7,-3,-4
2740,-9,24,13,5,-17,3,0,0
2745,7,-19,18,1,56,15,9,19
2750,8,36,16,4,21,-6,-2,-8
2755,1,-3,-4,-4,-25,4,-4,-6
2760,-6,11,-2,3,21,-9,0,-1
2765,1,-13,-6,-7,-63,-12,-4,-3
2770,-3,-16,-1,8,48,9,0,3
2775,4,19,-12,-8,-26,-8,-3,-2
2780,12,-14,7,6,-6,-11,1,13
2785,7,10,0,-7,-21,10,-4,-10
2790,-1,3,1,-9,18,2,2,12
2795,-28,-8,16,4,7,-4,0,-20
2800,4,26,-16,-3,-20,0,-5,-9
2805,-3,-57,16,5,31,-7,-6,-5
2810,-7,0,-7,-2,-43,-6,-2,0
2815,13,6,10,2,10,-1,1,12
2820,-14,7,19,2,10,17,8,3
2825,-9,15,-39,-6,2,0,2,0
2830,27,1,11,3,-20,-4,-4,-2
2835,-4,15,-11,-3,8,-6,-4,3
2840,1,-32,-5,-4,-6,-4,-1,-9
2845,-10,9,7,1,18,1,-1,4
2850,12,-17,-18,0,-9,-3,0,0
2855,-13,7,0,7,-21,-2,0,-4
2860,25,12,-1,-4,25,11,3,13
2865,-20,1,-6,-12,-11,-15,-3,-15
2870,8,10,-6,-1,6,10,-2,-8
2875,-3,10,18,8,17,3,1,8
2880,-12,-18,-11,0,17,5,1,-6
2885,13,40,-3,5,-27,-12,0,9
2890,-6,-5,9,-1,-2,0,-2,5
2895,-17,-22,3,-4,-3,-5,-2,-8
2900,25,-13,-8,0,-13,-10,-7,-2
2905,-11,11,17,2,9,7,0,-7
2910,-3,36,-15,-3,-18,-6,2,12
2915,10,-76,-7,-6,-28,-11,-5,-8
2920,-22,17,9,8,92,14,3,3
2925,23,-27,14,-1,-10,15,5,3
2930,-12,21,-8,-7,3,2,0,-3
2935,11,9,21,6,-43,-11,-3,-1
2940,-13,12,-10,-8,-7,-5,-4,-7
2945,13,-6,12,7,-5,-2,-3,-3
2950,-23,-36,-21,-3,28,6,-1,-3
2955,30,31,16,4,16,-3,-3,-2
2960,-8,0,-16,-11,-44,-9,-5,-10
2965,1,-14,2,4,10,-2,3,7
2970,-11,5,34,4,2,3,2,1
2975,-2,-58,-17,-4,-14,-11,-6,-4
2980,-7,30,15,-6,33,16,0,-5
2985,13,16,-9,-2,-12,-3,-3,-3
2990,-13,-28,8,1,5,-8,-2,0
2995,-1,33,-9,-1,-1,7,1,2
3000,-9,-18,3,-5,-38,-11,-2,-3
3005,-4,-5,-13,-2,41,8,2,-1
3010,1,9,2,-4,-40,1,3,0
3015,-12,31,13,-1,20,2,1,6
3020,3,-43,-9,1,-31,-15,2,16
3025,-4,-39,-3,-3,52,13,2,-4
3030,0,0,6,7,-4,0,-3,-8
3035,-3,-1,-18,-14,9,4,-5,-2
3040,-3,32,22,1,-5,-1,3,0
3045,-19,-45,-9,-2,-52,-11,-2,16
3050,7,2,-1,4,40,-5,-2,-3
3055,10,-7,14,-1,15,10,1,-14
3060,1,23,-21,-1,5,-4,-5,4
3065,1,21,4,-2,-22,-6,-4,-2
3070,-2,4,1,2,-9,-10,-2,11
3075,-5,-14,-7,-10,-15,0,5,7
3080,8,-47,-3,5,-11,-6,-10,-25
3085,-1,-8,-33,-7,58,12,2,-1
3090,8,-2,-5,2,-2,2,0,-4
3095,-18,-14,-5,0,5,-1,-1,10
3100,-13,0,14,-3,-30,-7,0,1
3105,41,30,-7,-6,-25,-10,-7,-10
3110,2,-13,1,-5,35,6,1,6
3115,-33,-12,-2,-4,2,0,-2,-17
3120,38,96,-13,2,12,3,0,9
3125,-29,-60,42,2,-29,-15,-5,-11
3130,0,4,-25,3,-8,0,1,-7
3135,-1,3,3,1,-29,-10,-2,7
3140,-10,-24,-10,2,51,25,10,8
3145,6,50,9,-4,-1,4,0,-5
3150,3,-54,-9,0,-40,-9,0,7
3155,-3,1,-6,1,-4,-3,-6,-14
3160,9,-12,-3,-1,17,13,6,5
3165,-12,3,0,0,0,-4,0,6
3170,11,-5,9,-6,-6,-5,-3,5
3175,-25,28,-8,10,3,-5,0,-5
3180,22,-4,2,2,-3,20,2,-9
3185,-6,3,5,0,12,-3,0,-5
3190,-28,18,-9,-4,-6,7,-1,-6
3195,22,11,19,9,4,-11,-5,4
3200,-4,-36,-8,-5,-10,13,3,0
3205,-10,-8,-27,0,13,-4,1,6
3210,9,64,37,2,-26,7,3,-4
3215,7,-49,-20,-3,30,9,5,7
3220,-18,-21,9,-4,-34,-24,-7,0
3225,8,-4,-3,0,-10,-6,-6,-4
3230,-17,-8,8,-4,7,-6,-2,-2
3235,30,50,2,3,-20,17,6,7
3240,-5,-10,-17,-16,17,-13,-7,-6
3245,7,-3,6,-2,15,12,8,8
3250,-2,-9,-17,0,-9,-17,-9,-15
3255,-31,12,-15,-9,-22,9,0,-8
3260,15,-20,-1,-2,3,-13,-4,7
3265,-3,4,-4,2,4,2,0,1
3270,-1,-13,-5,-8,-4,-1,0,0
3275,7,19,0,-4,5,-7,-4,-1
3280,-6,-6,-2,5,-12,-3,1,5
3285,-33,29,-6,-7,29,3,-3,-3
3290,30,-45,25,3,-41,3,8,5
3295,-10,-34,-27,2,42,-3,-5,-3
3300,1,13,1,-5,-16,2,0,-3
3305,19,-5,-3,2,-24,-5,-4,3
3310,-7,10,2,0,20,2,3,3
3315,0,21,17,-6,-13,-3,1,-4
3320,-12,3,6,5,-31,1,-5,-6
3325,-7,-21,15,-1,9,-3,-3,-4
3330,10,58,-25,-5,9,1,0,6
3335,13,-7,-1,-5,43,-6,-2,-8
3340,6,-8,37,2,-30,-5,0,3
3345,-7,7,-14,4,8,-2,-2,0
3350,8,-6,15,-2,-32,-3,-9,-10
3355,7,13,-25,-1,36,1,-1,6
3360,-6,-2,-8,-6,9,4,1,-3
3365,-5,-9,0,6,-10,-9,-4,-4
3370,-14,-15,-5,0,4,2,-1,0
3375,-4,-18,-1,2,24,7,3,8
3380,9,2,18,2,-11,3,1,1
3385,1,39,5,0,-39,-4,1,-1
3390,-10,-61,-36,-5,-8,-3,-6,-6
3395,4,15,27,-3,26,3,0,-3
3400,0,21,-2,9,0,-17,-4,-2
3405,-8,9,3,-8,1,13,3,-3
3410,-31,-28,-12,2,-36,-10,0,-3
3415,56,-15,38,3,6,15,7,16
3420,-3,36,-6,2,-11,-10,-7,-4
3425,4,-50,-14,0,21,-1,-1,-2
3430,-11,19,15,2,5,1,1,-9
3435,-27,-46,-29,-10,-35,0,-3,-9
3440,-10,8,1,-1,8,-8,-3,1
3445,21,9,14,6,-15,0,0,11
3450,11,-3,-11,-6,16,-5,-3,-3
3455,-30,6,10,6,3,9,0,4
3460,17,-27,-18,0,9,-4,0,-5
3465,-10,1,15,-2,-57,-7,-4,-13
3470,3,-17,-3,-9,75,16,2,8
3475,13,33,0,1,20,6,5,1
3480,16,-16,-14,4,-27,-1,4,9
3485,-2,36,7,5,-7,-7,-3,-4
3490,8,-9,-8,7,-1,-1,-2,2
3495,-25,-45,-11,-13,-36,-4,0,-4
3500,-14,13,6,-8,20,4,1,-2
3505,12,1,5,5,7,-3,1,3
3510,-5,28,-27,-1,-49,-9,-2,-5
3515,3,-64,-18,-3,23,-7,-4,2
3520,-10,2,-6,-3,-11,0,-4,-8
3525,-9,-8,-18,-1,11,8,1,-3
3530,1,12,8,4,21,6,3,6
3535,9,27,13,4,2,-13,-6,-4
3540,-3,-5,0,2,14,15,5,2
3545,15,40,7,-5,-9,-9,-4,-3
3550,-4,-32,-27,-5,-6,-3,-2,-1
3555,-5,15,18,2,-31,-7,0,-5
3560,-5,36,3,2,38,-2,-6,-14
3565,-4,-55,-12,-9,24,12,0,2
3570,8,18,-4,4,-5,-2,0,-1
3575,-2,11,-1,0,-29,-7,1,8
3580,-31,-8,0,-2,0,-3,-2,-3
3585,19,-4,1,-3,-14,-6,-2,11
3590,-2,-11,1,0,20,3,-1,3
3595,11,9,5,-3,-27,5,0,-8
3600,-3,-6,-1,0,6,-1,2,4
3605,-11,36,-6,-6,-11,-5,-1,-8
3610,6,-72,13,4,35,-4,-2,-1
3615,-11,29,-11,1,-18,-4,-5,-5
3620,-1,0,1,-1,-20,-3,-1,7
3625,-30,-18,-9,0,1,-2,1,-14
3630,40,59,32,9,-14,-8,0,12
3635,-12,-28,-12,-7,16,19,4,-12
3640,3,-1,4,-6,10,-9,-8,-6
3645,-12,-15,-3,1,-18,-1,2,7
3650,-1,32,15,-1,0,3,1,-4
3655,7,16,-1,8,0,-4,-1,6
3660,7,-25,24,3,-42,-1,0,-3
3665,-23,-36,-34,0,24,3,0,0
3670,9,24,-13,-13,16,11,-4,-10
3675,-18,-4,3,-2,9,-5,3,6
3680,-3,9,-5,0,-35,-8,-9,-39
3685,10,11,20,6,53,19,5,0
3690,-14,-17,5,3,-9,-2,0,3
3695,-13,12,-9,2,-37,-11,-3,5
3700,27,-5,7,-7,32,2,3,12
3705,7,2,9,5,2,9,-1,-5
3710,-27,16,-7,-2,-1,0,-1,-6
3715,11,24,14,6,-14,-11,-5,10
3720,6,-14,-10,-18,28,12,1,-12
3725,2,-45,-7,3,-17,-15,-5,-5
3730,4,-9,10,-6,5,14,3,6
3735,-12,-2,-11,-2,-22,-7,0,0
3740,-20,18,-4,8,16,-2,2,16
3745,26,7,-17,-7,5,-3,-3,2
3750,-14,-12,1,-4,-13,-2,-7,-18
3755,-1,-25,-6,-2,11,2,-1,-4
3760,-10,4,-7,-3,-11,-1,6,16
3765,20,9,6,6,-46,-19,-4,6
3770,17,23,-1,1,31,17,1,-2
3775,9,-7,13,-2,39,12,0,-6
3780,-9,6,-28,3,14,-5,-2,15
3785,-27,-16,10,-4,-31,-3,3,-2
3790,8,-15,-14,-3,-18,-18,-9,-14
3795,14,31,23,2,16,7,3,2
3800,-11,-35,-34,-2,-16,0,-2,-7
3805,-12,24,5,0,11,-23,-4,7
3810,4,-2,0,5,-15,13,7,3
3815,-4,-6,-3,-3,45,15,-2,-19
3820,-5,47,19,-3,-14,-6,0,6
3825,-3,-39,2,-1,-13,-4,-2,-6
3830,15,19,3,-1,14,-14,-5,6
3835,10,1,-12,-3,-45,-13,-7,1
3840,5,8,15,1,29,4,5,6
3845,7,21,-8,-4,9,12,-2,-17
3850,-10,14,10,5,22,-6,0,2
3855,1,33,20,0,-25,-2,1,12
3860,-12,-55,-36,0,-19,-7,-7,-20
3865,-4,27,14,-1,23,1,1,-2
3870,-15,-46,-45,-4,-12,9,8,12
3875,23,17,2,8,7,-13,-5,0
3880,-34,-8,9,-12,-38,5,-1,-2
3885,11,3,-23,-4,78,15,1,4
3890,3,11,8,-2,-52,-9,0,-1
3895,-6,-15,-4,-3,21,8,-2,-14
3900,-7,-7,-1,10,-6,-6,-3,1
3905,-3,-9,-4,-8,-23,-4,-3,8
3910,-5,1,29,-7,-5,-3,-1,-7
3915,2,1,-32,-3,-16,-5,1,-5
3920,6,12,19,5,21,3,0,0
3925,-16,10,-1,2,10,12,3,2
3930,9,6,2,4,11,-11,-4,3
3935,2,-31,-3,-8,-30,3,-1,-4
3940,8,0,13,2,7,-2,-4,-5
3945,13,0,-5,4,-2,-4,0,1
3950,-9,-2,-2,-4,-46,-6,-1,10
3955,-33,-14,7,-1,63,-5,-3,-4
3960,50,24,-9,-9,-18,6,1,-2
3965,-5,5,20,2,-24,-10,-5,-9
3970,-12,-31,-22,-5,16,5,-1,-2
3975,2,-42,-8,1,22,-5,-2,7
3980,-3,2,-12,1,0,-3,2,0
3985,-7,8,3,-3,-15,-7,-3,-1
3990,-5,17,0,-1,-12,-6,0,-4
3995,-6,22,6,-3,-3,14,2,1
4000,8,1,7,0,6,6,0,2
4005,3,7,-4,2,-9,0,3,1
4010,7,6,1,5,11,-11,-5,-6
4015,9,-13,18,-5,-40,-3,2,10
4020,-9,14,-15,-8,53,10,-4,-17
4025,-7,-4,4,2,-25,-4,-4,-7
4030,5,-31,7,5,49,11,5,11
4035,-4,-1,-8,6,-19,0,2,-4
4040,8,13,21,-10,-28,-11,-2,7
4045,-9,-30,-28,-9,3,-6,-1,0
4050,-6,0,24,-1,25,3,-1,-5
4055,3,0,-6,5,5,1,0,1
4060,-24,3,-3,-5,-13,-5,0,10
4065,9,6,1,3,10,-3,-5,-18
4070,16,23,-19,-5,-29,-6,-1,4
4075,-16,-7,0,0,1,-5,-6,-11
4080,3,-15,-14,-3,-16,-1,0,12
4085,15,10,5,-2,26,5,0,-3
4090,-6,16,16,3,-4,-1,-3,-18
4095,-5,-2,-2,1,7,-1,2,7
4100,7,-29,-11,5,-17,0,-2,-4
4105,-8,11,-16,-2,-35,-4,3,13
4110,2,7,32,-8,57,7,0,-5
4115,8,24,-4,-1,-28,-6,-1,5
4120,-1,-5,-1,0,16,-7,-3,-18
4125,-16,-9,7,-13,-43,-1,-4,-2
4130,-1,-5,-16,6,20,7,0,6
4135,-1,-27,5,2,-2,4,3,-2
4140,0,-50,-17,2,-16,-22,-7,-7
4145,15,51,19,5,11,31,9,10
4150,-18,-67,-37,-4,-33,-10,-7,-10
4155,0,13,4,-2,39,6,-1,-3
4160,-10,24,-1,7,-39,-9,3,11
4165,5,-14,8,7,51,5,-3,-11
4170,3,-28,-8,-14,-19,7,5,18
4175,9,50,-4,3,-6,-5,-3,-4
4180,3,-22,-13,0,-8,-2,2,11
4185,-4,-4,-11,-4,1,-5,-4,-4
4190,1,47,-1,5,-12,-2,-1,-8
4195,-16,-23,-3,-8,-11,-5,-1,9
4200,22,-4,28,8,4,4,3,-6
4205,-1,-36,-13,2,31,7,5,9
4210,-8,17,2,-1,-19,-5,-2,6
4215,9,-13,-8,-14,-22,-6,-5,-3
4220,5,32,16,-1,28,0,4,4
4225,-4,-18,2,3,-20,-1,2,1
4230,-21,9,-7,-4,40,0,-3,-6
4235,5,-12,1,6,-9,3,-1,0
4240,-16,5,-15,-6,2,-2,-2,-1
4245,17,12,35,0,2,-11,-4,-13
4250,-3,12,-3,-5,-16,-10,-1,-4
4255,-1,46,-18,-6,10,6,1,5
4260,-28,-39,-4,3,5,3,-3,-3
4265,16,7,-20,-6,5,-16,-7,7
4270,1,19,11,7,-4,17,4,-10
4275,22,4,29,9,5,-4,0,-2
4280,-3,30,-39,-6,10,9,-1,3
4285,-20,-31,14,0,-5,-6,-5,1
4290,2,3,0,-4,-34,-14,-4,3
4295,9,-6,7,-3,21,11,2,3
4300,-1,15,-35,-1,0,0,-1,-5
4305,-8,-34,21,-1,-20,-4,0,-4
4310,-2,1,-26,1,2,0,0,3
4315,12,-11,2,-2,-19,-4,-2,-8
4320,1,-2,36,3,28,5,0,2
4325,10,16,-24,3,-3,8,4,4
4330,3,-9,11,-3,28,-4,-4,9
4335,-13,-27,-6,-4,-28,-14,-7,-15
4340,-3,27,10,1,-12,-13,-3,-1
4345,16,47,-3,-1,-3,29,9,6
4350,-4,-28,6,-2,0,-6,-3,-3
4355,-10,14,-16,0,22,-3,-1,3
4360,0,-30,9,7,-17,-3,-1,-5
4365,0,46,-8,-2,-7,-5,0,3
4370,1,-28,7,-2,3,4,-2,2
4375,-5,22,-7,-5,-16,-4,2,-3
4380,-17,-38,6,1,46,10,0,-11
4385,13,2,-3,-4,-51,-13,2,16
4390,8,-21,-21,-5,15,0,-3,0
4395,-18,0,2,5,-2,0,0,4
4400,12,55,-10,-3,-2,4,1,-8
4405,-30,-31,-7,0,-2,-7,-2,-5
4410,18,24,-39,7,6,-8,0,0
4415,-4,-19,-5,-8,-8,15,3,3
4420,18,26,25,5,1,0,-2,9
4425,-27,-34,-10,-10,-6,-1,-3,-1
4430,40,12,19,2,-1,-2,0,-1
4435,-5,-1,1,-2,15,0,-3,-14
4440,-1,-5,-3,-3,-24,-11,-4,-4
4445,3,-32,-11,6,34,12,3,4
4450,-18,33,1,-5,10,0,0,-6
4455,-1,3,-2,0,-10,-7,-3,-1
4460,6,-6,16,-8,-28,-2,2,4
4465,-7,-16,-19,3,-1,-20,-9,-8
4470,-3,-13,20,-2,-10,13,5,8
4475,-4,-17,-27,-3,-1,0,4,1
4480,3,29,-2,-2,-11,-3,-6,1
4485,-11,13,29,6,21,0,0,2
4490,-18,-2,-3,0,-17,-7,-2,-10
4495,31,3,19,6,12,7,2,-10
4500,-14,-16,2,-3,7,8,5,8
4505,-9,11,-21,-7,-18,-6,-3,-10
4510,1,-1,26,14,-9,3,0,-4
4515,-6,27,3,-7,21,-6,-1,9
4520,-14,-1,-40,-5,9,7,1,-3
4525,32,-17,-7,-6,11,-2,-2,12
4530,-12,9,1,-5,-13,-8,-7,-12
4535,-5,-8,-15,9,-3,-14,-7,-5
4540,3,3,20,-11,-5,14,4,2
4545,-18,-9,1,3,18,1,3,-1
4550,-39,-9,-10,3,-3,-8,-2,1
4555,39,23,13,-5,-5,-1,-4,-14
4560,4,-23,-5,7,18,-4,-1,-2
4565,-2,23,2,-4,-17,-7,1,4
4570,-4,0,-2,2,-11,1,-2,-4
4575,-21,-19,-21,-3,-6,-4,0,2
4580,2,-19,-2,1,-24,-8,-3,-12
4585,26,35,12,3,13,12,1,-6
4590,-14,29,-7,-13,4,-3,-1,4
4595,-4,-14,-10,1,5,-1,2,16
4600,8,-18,19,-2,-4,-7,-5,-5
4605,-14,9,-13,-5,-9,1,-5,-10
4610,-3,11,7,2,-14,-7,2,1
4615,6,-44,17,3,4,5,1,-1
4620,-13,-2,-23,-3,11,6,3,11
4625,1,13,-10,-6,-14,-7,-6,-10
4630,5,-16,-1,6,-8,-4,-3,-3
4635,-2,25,12,-3,12,6,1,2
4640,-15,-24,12,3,6,-2,-2,-3
4645,1,-5,4,-7,54,0,1,-1
4650,24,37,-1,2,-22,0,-1,-1
4655,-23,-46,-10,-2,-28,3,0,-5
4660,13,20,-8,-7,-9,-11,-3,-2
4665,-10,-42,-2,-4,12,3,-1,-1
4670,16,42,15,6,-18,-3,-3,9
4675,-4,-11,-28,-1,6,-5,-4,-7
4680,-4,18,20,-6,-11,7,5,1
4685,-6,-13,-5,3,-3,-4,-3,-4
4690,7,1,13,-5,-45,-1,2,-4
4695,-6,33,14,6,48,6,-1,1
4700,28,-21,-29,-3,12,3,-1,4
4705,-6,23,23,-1,-7,-7,1,-7
4710,3,-10,5,1,14,20,6,5
4715,-17,-2,16,3,-11,-6,-1,6
4720,11,-16,-9,5,17,0,0,-2
4725,11,-1,8,3,-25,5,0,9
4730,-27,-8,-5,-9,-16,-8,-4,-20
4735,-6,18,19,-1,30,4,-6,-12
4740,11,-11,-6,7,32,4,0,9
4745,15,5,-9,0,-55,-4,1,7
4750,2,-33,-8,-3,35,-3,0,-1
4755,-18,-2,-6,-8,-2,-8,-3,1
4760,-4,-4,0,-9,-40,-7,-6,-1
4765,-4,20,-23,0,2,-3,0,-5
4770,-6,-8,8,3,26,-7,1,5
4775,15,-46,-9,1,2,19,3,4
4780,-6,32,29,6,-29,-11,-2,-2
4785,-6,-25,-15,-3,-15,7,3,-3
4790,7,25,-7,-3,47,1,0,0
4795,-11,13,10,-1,5,-8,-4,-16
4800,10,9,3,4,-14,4,3,5
4805,-46,-21,1,-1,11,0,-4,-3
4810,45,14,25,9,0,0,0,8
4815,7,10,-9,-5,-22,8,6,11
4820,-13,-4,-35,-11,9,-3,-4,-13
4825,-2,2,2,10,29,-3,-1,7
4830,-27,-13,-17,-12,-37,-4,-1,3
4835,26,41,21,12,31,-2,0,-1
4840,1,-30,18,-4,-20,12,5,-1
4845,6,12,-8,-4,6,-2,1,2
4850,-10,-19,-12,-3,-18,-4,-4,-8
4855,9,1,-12,-6,-17,0,-2,18
4860,-25,7,0,5,37,-1,-2,-23
4865,31,14,13,8,-9,5,2,5
4870,-5,-37,8,-6,4,1,-4,-20
4875,-1,-12,-29,-6,-15,-10,-3,7
4880,4,-24,13,14,3,-13,0,12
4885,-2,24,5,-9,11,15,3,-7
4890,-7,-27,-1,2,16,0,0,3
4895,13,13,7,-4,-29,1,2,2
4900,-2,4,-4,-3,-45,-8,1,6
4905,-5,-34,5,-3,27,-3,-6,-9
4910,1,-10,-9,-5,2,10,3,1
4915,-23,-6,-18,-4,-21,-13,-5,-15
4920,10,51,15,0,13,3,0,14
4925,-7,-41,-3,-1,-26,-12,-8,-10
4930,34,-1,-5,-7,27,9,5,17
4935,-18,3,-1,-3,-56,-11,-1,0
4940,-19,-9,14,6,87,27,6,-10
4945,12,14,4,7,11,1,0,2
4950,-10,-5,-8,-8,-16,-10,-10,-16
4955,11,18,22,3,-24,2,1,7
4960,-17,15,-28,-7,-3,-12,-6,1
4965,-24,-19,4,1,-5,-2,-1,-15
4970,25,7,-3,7,20,7,1,-3
4975,3,8,2,-2,24,4,3,-2
4980,8,-2,-7,-5,-62,-14,-6,-4
4985,8,-13,10,2,-2,7,3,8
4990,-29,-8,-16,-8,31,0,2,9
4995,4,-8,23,-2,1,-6,-7,-16
5000,3,-29,-2,6,-11,-8,-1,-2
5005,-5,27,3,-4,-24,-7,-3,-1
5010,-1,20,-2,0,16,5,4,15
5015,9,22,8,-3,-1,-4,-5,-2
5020,-19,5,-1,-1,46,22,4,-15
5025,22,1,9,-3,-11,-17,-2,17
5030,-4,-9,-10,4,-45,-12,-8,-20
5035,2,1,-23,2,44,16,7,11
5040,8,23,0,3,-30,-16,-3,5
5045,-16,10,7,-8,2,6,0,-5
5050,-6,-15,-6,4,-14,-5,0,5
5055,3,15,-3,-5,16,3,-3,-8
5060,-4,-2,11,-1,16,5,0,-4
5065,16,36,-2,8,17,-7,0,8
5070,6,-12,-9,-11,-64,-1,-2,-1
5075,-6,-3,15,2,-28,-5,0,-2
5080,-8,-26,-35,-4,77,12,0,-4
5085,-5,3,-1,0,-22,-10,-4,-9
5090,9,20,-3,3,12,-4,-1,8
5095,23,-53,-5,0,-39,-7,2,-2
5100,-3,-6,9,-6,-29,-2,-9,-12
5105,-8,-11,-16,2,32,6,2,4
5110,-14,-5,11,4,18,-1,0,2
5115,-3,2,-14,6,22,-5,-3,-4
5120,2,2,20,-10,-36,-5,3,6
5125,-7,-3,-8,2,17,5,-1,0
5130,-11,28,-2,-7,-26,-10,-1,-1
5135,26,-27,4,-4,20,7,-4,-6
5140,12,29,-7,6,-1,-10,-1,2
5145,-8,22,10,-7,-13,1,0,2
5150,1,-65,-21,2,11,-5,1,5
5155,-35,-6,2,-4,-26,9,5,-5
5160,12,-6,-4,-2,8,-8,-4,-4
5165,6,11,-29,0,-12,0,-2,2
5170,5,-9,24,-3,20,9,-3,-5
5175,-19,20,-7,-1,22,-15,-4,-4
5180,2,13,11,-4,8,4,3,14
5185,0,-52,0,2,-26,-1,1,1
5190,-22,32,-20,3,11,-2,0,-15
5195,16,-11,3,-7,7,1,-1,6
5200,-1,14,5,3,-11,-5,-4,-5
5205,3,-57,-10,-2,8,-3,-1,-4
5210,-6,1,-8,2,8,1,2,5
5215,-9,-6,-8,-4,-9,4,2,1
5220,-6,10,10,1,-2,-5,0,10
5225,11,-2,-7,-13,-5,0,-3,-6
5230,-1,-10,14,1,-17,-1,1,2
5235,-8,-28,-26,2,32,0,0,-8
5240,0,-16,-19,-2,-23,-4,0,1
5245,3,-14,7,7,33,-8,-5,-5
5250,2,2,15,-11,-44,8,1,-7
5255,-10,19,11,-3,21,8,2,0
5260,0,-28,-7,-1,-24,-5,0,-1
5265,6,27,22,6,5,-6,3,16
5270,-8,-3,-13,6,-3,-4,-9,-9
5275,17,6,0,-5,-7,6,-3,-14
5280,-3,-14,-2,4,-56,-12,-1,-3
5285,-4,75,-5,-1,83,19,3,0
5290,-1,-40,2,-10,2,0,1,10
5295,-3,24,6,0,-24,-7,-1,7
5300,-4,-13,1,-3,27,6,-3,-13
5305,12,3,1,5,-23,-12,3,11
5310,-24,-18,-9,-6,-11,1,-1,-5
5315,36,4,12,7,8,-4,-3,-8
5320,6,27,7,-1,9,6,2,6
5325,-3,-19,-20,-3,-2,6,-2,-5
5330,-14,31,2,3,17,-5,-1,4
5335,-6,14,11,1,-25,-4,-2,9
5340,7,-26,-29,0,17,-1,-1,-5
5345,-13,12,0,-13,-44,-5,-2,-11
5350,15,-15,10,3,14,6,1,0
5355,-7,17,-2,-1,-3,-8,4,15
5360,-3,-2,-1,1,19,3,-2,-7
5365,-8,-7,7,-2,-9,14,5,3
5370,21,60,8,16,19,-8,-3,-4
5375,-19,-39,-16,-9,1,7,3,3
5380,-4,16,3,5,7,-1,-1,-1
5385,-4,-10,16,-1,-34,-13,-4,-12
5390,21,25,12,-6,29,3,-1,6
5395,3,5,-18,0,-21,-8,-4,-4
5400,16,-16,8,-5,-4,2,-1,8
5405,-21,36,-2,1,11,-8,-3,-16
5410,-14,-3,-9,5,-31,-2,0,-7
5415,-3,-2,7,1,30,10,3,4
5420,36,9,-21,-7,-27,-3,-4,1
5425,7,-30,-1,4,1,0,-1,-1
5430,-15,2,-5,-5,-15,-2,0,-2
5435,-5,-7,-14,2,28,4,0,0
5440,-1,37,37,0,-30,-2,0,-1
5445,6,-44,-46,-3,20,0,-4,-1
5450,-6,-3,-8,-1,-9,1,-5,-11
5455,-14,12,18,0,-15,-3,-1,-4
5460,-8,-33,2,7,-8,0,6,12
5465,7,1,8,0,0,2,-3,-3
5470,-25,-7,-1,-8,21,-3,-3,-1
5475,11,5,6,1,-15,-1,-2,2
5480,-7,-17,-37,-8,-15,-9,-4,-7
5485,-12,13,32,5,14,7,5,2
5490,2,-44,-16,4,-39,-17,-2,-2
5495,20,23,19,-3,78,22,2,-4
5500,-12,-48,-5,-1,10,1,1,-4
5505,-3,8,5,1,-23,-5,0,9
5510,5,32,19,-5,-7,2,0,-2
5515,-21,-7,3,-6,-25,-16,-6,2
5520,-3,-11,-20,3,-7,-3,3,-10
5525,3,11,-7,-6,16,14,-3,-4
5530,6,-6,-24,-1,48,8,1,-7
5535,3,-2,5,4,-20,0,2,5
5540,-11,23,1,4,14,0,1,5
5545,5,-46,11,-2,-32,-10,-2,2
5550,2,9,13,1,-12,0,1,3
5555,-12,-17,-5,3,-17,-15,-5,-5
5560,17,11,13,1,42,38,8,5
5565,14,-10,-23,4,26,-10,-3,-4
5570,13,14,29,-2,-13,-2,0,22
5575,0,-37,-21,-2,-20,-4,-2,-19
5580,-18,35,10,1,1,-14,-10,-4
5585,-4,9,5,2,-1,3,3,0
5590,8,-12,0,2,14,-1,0,0
5595,3,25,6,-11,-4,3,0,13
5600,-20,-7,-8,-1,-19,-9,-3,-14
5605,5,-10,-6,-1,29,3,0,4
5610,2,5,6,1,-18,-8,-3,0
5615,-2,1,-4,3,-14,2,-3,-8
5620,7,6,-3,1,18,-3,-1,1
5625,-21,11,-2,-8,-23,6,1,3
5630,2,-43,-1,-4,-8,1,-1,-5
5635,13,-3,3,4,-1,4,1,6
5640,1,1,-1,0,10,-2,1,5
5645,-18,-7,-13,-4,-25,-17,-6,-4
5650,14,6,0,4,34,-2,-2,-9
5655,-24,29,1,5,-18,-4,-1,-8
5660,19,-7,8,-8,0,14,5,4
5665,-4,-30,15,-1,3,-3,-4,1
5670,-6,2,-28,-6,-29,-4,-4,-1
5675,1,1,0,-1,-15,-8,-3,2
5680,-5,14,24,2,33,-5,-6,-3
5685,4,-1,0,-2,-7,9,4,-3
5690,14,5,-7,5,-7,6,2,-4
5695,20,-5,-4,-7,18,-7,-2,10
5700,-20,23,0,-6,-36,-7,-8,-18
5705,9,-18,-1,6,39,9,1,4
5710,-16,-8,4,-3,-6,-9,-3,-2
5715,14,-37,-25,-3,-1,0,0,1
5720,3,-12,10,-1,-19,3,8,13
5725,0,19,6,4,-4,5,-4,-14
5730,-9,33,9,-2,2,3,-2,-6
5735,-1,-48,-14,-6,16,-4,-3,-4
5740,-16,6,2,11,2,-4,1,-3
5745,12,23,1,-3,-31,-2,1,4
5750,-1,0,-1,1,-7,7,5,8
5755,10,10,28,0,28,2,-3,3
5760,-12,11,-5,-9,-4,-5,-5,-7
5765,-3,-27,-13,-1,1,-13,-3,-6
5770,-10,13,4,-2,-6,-2,-1,3
5775,-22,15,-10,-4,-16,0,-1,-8
5780,33,-2,13,1,-2,1,0,-1
5785,-3,22,-30,-3,0,-7,-4,1
5790,7,-21,12,2,-8,-2,1,4
5795,-19,16,8,7,4,5,1,-11
5800,-12,-3,-7,-8,8,-1,-2,4
5805,0,-9,7,3,-5,-6,-2,-15
5810,0,7,0,-4,3,-9,-1,5
5815,6,10,18,2,-1,15,3,-6
5820,2,-3,-41,-1,-16,5,5,10
5825,-10,-54,-7,-6,30,-1,0,8
5830,1,69,8,3,7,-6,-5,-10
5835,-3,-4,-21,-2,-6,6,-1,5
5840,8,-21,4,-1,18,2,-4,-5
5845,-2,14,14,-2,-30,-7,-1,-1
5850,-5,-22,-21,6,20,-5,-1,-7
5855,17,11,-1,-13,-2,13,4,10
5860,-1,17,17,5,-38,-14,-8,-7
5865,5,5,11,-3,14,6,0,3
5870,-13,-44,-47,-3,19,-2,-2,-1
5875,-9,-1,-4,5,25,10,5,3
5880,-17,-1,-6,-8,-19,-10,-3,-5
5885,18,-10,7,5,13,1,-1,2
5890,8,11,16,-7,-26,2,-1,3
5895,5,13,-1,0,-6,-11,-2,0
5900,-22,-66,-14,-7,5,-3,-8,-15
5905,-19,23,7,5,1,-1,0,2
5910,20,-6,19,6,14,18,4,2
5915,-10,-2,-11,-6,-14,-7,-5,-4
5920,-4,4,37,1,-11,-4,0,-2
5925,0,-6,4,-6,23,-13,-3,-1
5930,-10,6,-1,2,24,18,7,11
5935,7,-28,3,-4,-55,-11,-4,-17
5940,16,-6,5,5,69,9,0,0
5945,-6,0,5,-3,-32,-5,-1,4
5950,-3,12,-7,-9,13,4,0,-1
5955,-7,2,10,1,15,-3,-1,18
5960,6,-8,-13,2,-15,0,0,-18
5965,-5,2,-36,2,-47,-8,-6,-5
5970,11,-15,17,-3,17,-4,-4,-14
5975,-5,12,1,14,13,3,3,2
5980,-17,-2,-42,-17,8,13,3,5
5985,28,38,5,0,-12,2,2,11
5990,-21,-36,-5,4,-32,-11,-4,-1
5995,-2,10,12,-7,13,3,0,-3
6000,0,26,14,11,7,-7,4,12
6005,11,18,-11,-5,20,21,2,-9
6010,10,21,-1,-14,-31,-4,3,5
6015,-20,-22,-10,4,-8,-9,2,7
6020,3,-20,6,0,-7,-5,-5,-4
6025,-8,-3,1,-7,17,-4,-4,-7
6030,11,-23,-53,3,0,-3,-4,-10
6035,-19,7,-3,-1,13,-1,-4,1
6040,7,-38,-25,-8,-13,-1,4,10
6045,-12,12,17,7,-6,-2,3,1
6050,10,1,14,-3,-31,2,0,1
6055,1,-3,-13,5,23,-11,-3,-3
6060,-2,-9,3,-10,-3,13,1,3
6065,-10,44,16,6,-11,-5,6,21
6070,20,-22,3,-6,-35,-2,-2,-3
6075,13,-1,2,4,31,1,-3,-9
6080,-9,25,7,3,-9,-4,-3,-7
6085,-14,-26,-5,-3,-13,1,0,-5
6090,-8,11,-25,0,21,-5,-1,4
6095,-12,14,-5,-2,-41,-1,-2,2
6100,11,0,-1,0,32,7,3,-1
6105,1,26,16,0,-81,-16,-4,-4
6110,-3,-2,13,10,110,17,1,-3
6115,3,-2,0,-20,-31,-8,-2,-5
6120,-30,34,4,3,1,0,1,6
6125,18,-22,-3,1,-30,-5,-1,-4
6130,-4,13,15,2,5,6,-2,-5
6135,-16,-10,-9,2,-2,-7,-2,8
6140,16,27,21,-1,24,12,0,-8
6145,6,-53,-36,-4,14,-3,-4,-11
6150,0,19,-2,2,-7,-4,1,8
6155,-23,-11,-17,0,12,-1,-3,0
6160,9,-19,-14,-4,-40,-13,-4,3
6165,-4,0,9,0,53,11,-1,-5
6170,8,19,12,2,9,2,4,2
6175,12,8,12,1,-28,1,0,-5
6180,-22,-11,3,7,8,-8,-5,-4
6185,9,-7,0,2,-5,-5,-3,-1
6190,-2,12,-2,-10,-11,7,0,-3
6195,4,-4,5,0,-27,5,4,3
6200,-3,-62,-21,-1,42,-6,-3,-5
6205,-20,-18,-7,5,11,10,0,-5
6210,-4,30,4,-3,-24,-13,-3,-4
6215,16,-13,6,2,11,-1,0,2
6220,12,16,-1,-2,-8,-6,-1,-2
6225,-12,44,4,-2,14,6,1,0
6230,6,-35,5,-5,-14,-3,0,3
6235,-14,37,-2,4,4,-9,-2,-2
6240,-14,-15,7,-9,-13,0,0,0
6245,24,20,16,-1,29,-7,-6,-9
6250,0,12,-11,0,-7,15,6,7
6255,22,12,20,4,1,-8,-1,-1
6260,-6,24,-4,-3,-14,3,3,10
6265,-3,33,22,-1,4,8,0,-7
6270,-18,-40,-4,3,-16,-18,-5,-6
6275,9,-29,-10,2,21,16,2,-5
6280,-5,26,9,4,-85,-16,-4,2
6285,9,-18,-35,-8,95,31,10,10
6290,-11,20,0,10,-1,-15,-9,-14
6295,-7,-7,15,-9,-5,5,1,-5
6300,9,14,-10,3,-13,-9,-4,-2
6305,-13,-11,13,-2,-16,2,-1,1
6310,6,-1,7,0,17,-4,0,9
6315,3,5,-2,1,-16,10,2,-1
6320,3,10,-7,-5,41,-4,-3,2
6325,5,-6,-11,-2,-30,-11,-4,-5
6330,-7,24,11,3,2,4,0,-3
6335,4,-24,6,-7,-2,-10,-5,-6
6340,6,25,8,-1,2,-1,-2,3
6345,4,-4,-1,3,-2,2,2,9
6350,-2,-18,16,0,10,4,0,0
6355,-12,3,-26,-17,-22,-5,0,-6
6360,-1,-28,-6,0,23,-3,-4,-7
6365,-13,-9,1,3,-47,-4,-1,0
6370,4,2,-1,-7,39,6,1,2
6375,12,13,0,1,-1,-11,-4,6
6380,-9,-27,-5,7,31,10,3,-8
6385,3,6,0,-15,-18,-3,-4,-5
6390,-4,-2,0,-2,-41,-16,-5,0
6395,1,-10,-5,5,14,-3,0,-1
6400,5,16,3,0,-1,13,6,5
6405,-2,-4,-7,4,32,-4,-4,0
6410,-12,-5,-5,-9,-26,0,-2,-8
6415,2,4,-7,0,-3,-9,0,11
6420,3,34,20,9,-6,5,-3,-14
6425,-5,-47,-7,-8,-5,3,3,5
6430,-12,-36,-12,-4,6,-2,-3,-8
6435,36,26,-6,10,9,12,4,7
6440,0,20,5,0,-21,-12,-1,12
6445,-7,-2,-29,2,6,-1,-2,-11
6450,-9,8,2,-4,-8,0,-3,2
6455,-19,-18,3,1,-6,-3,1,2
6460,6,-4,-10,0,1,-4,-3,-1
6465,8,27,24,-6,-4,6,3,-2
6470,-10,-3,-10,-2,-24,-7,-2,-2
6475,-13,-6,4,-5,9,4,-3,-6
6480,5,5,1,-5,28,2,0,1
6485,14,-24,-25,-1,-29,-12,-2,5
6490,8,-7,31,6,26,10,4,4
6495,-15,7,-9,0,23,-4,-5,-6
6500,-23,-3,13,-1,-12,11,0,-11
6505,35,19,8,7,15,6,2,0
6510,1,4,-22,-7,-28,-6,0,1
6515,-9,-19,8,7,2,0,-2,-6
6520,2,8,0,-2,-5,-9,-2,4
6525,-15,-11,3,-2,6,4,1,-1
6530,-1,24,-4,0,-9,-2,-1,-8
6535,-6,-14,0,-2,3,4,1,6
6540,17,-12,-7,1,-2,-6,-5,-3
6545,-23,26,12,-6,-28,1,1,-7
6550,29,-21,-10,3,28,2,-1,2
6555,-25,8,-7,-8,-15,-1,3,-1
6560,21,-71,-4,3,8,-11,-1,4
6565,-18,2,-17,-6,-21,-2,-4,-7
6570,-5,-16,-22,-5,25,2,-1,-2
6575,14,-21,10,1,-44,0,-2,0
6580,6,-5,5,4,28,3,3,6
6585,-9,11,12,-2,27,1,0,-1
6590,-5,-4,5,2,-23,-6,2,14
6595,15,6,-4,-1,10,9,3,-18
6600,-18,-27,-13,-5,10,-3,-2,3
6605,9,-7,-5,-1,-22,-14,-8,-2
6610,-7,21,4,1,-30,-2,1,0
6615,4,5,-3,-6,34,-3,-3,1
6620,-23,14,0,5,-29,-3,4,7
6625,5,39,17,-5,11,-3,-4,-3
6630,7,-15,7,9,15,16,6,3
6635,1,-11,-11,-4,-23,-9,-2,0
6640,7,-25,-7,-4,21,8,-1,-6
6645,-19,-15,4,5,-9,-9,-3,-1
6650,6,49,23,1,3,0,-3,-1
6655,-13,6,12,-2,0,2,-2,-9
6660,-30,-8,-14,-4,-45,-14,-2,7
6665,41,8,2,0,41,9,0,-11
6670,-6,-19,2,1,9,16,3,-7
6675,-20,-16,-4,-1,5,-5,-4,2
6680,4,12,-9,-5,-15,0,1,-2
6685,-5,-3,0,3,-12,-8,-3,3
6690,-2,13,-1,-1,-1,-5,-4,-5
6695,-7,-22,-4,4,6,1,4,20
6700,6,16,4,-2,-17,-10,-7,-20
6705,4,-17,-43,-9,16,18,-1,0
6710,-5,-1,-9,-1,38,1,-1,-5
6715,6,-12,5,0,-15,-3,2,3
6720,3,19,15,1,10,14,5,11
6725,0,16,9,-2,-35,-9,0,-3
6730,-7,-15,-14,-4,1,-8,-2,-3
6735,0,14,3,0,-6,-1,-4,-4
6740,-1,1,6,4,-2,0,0,0
6745,-22,-18,-7,-8,3,-12,-1,18
6750,19,12,-11,5,-16,5,-2,-5
6755,14,32,27,-2,66,23,4,-5
6760,4,-34,-15,6,7,-2,-4,-4
6765,-14,-2,-37,0,-16,-5,3,10
6770,-11,8,7,-1,-13,-8,-3,-2
6775,6,30,-9,-3,-10,-9,-3,-1
6780,4,-11,14,0,-44,0,1,0
6785,-14,-7,18,1,37,7,3,1
6790,0,-31,-8,-6,7,-2,-1,-6
6795,-2,0,-4,3,-10,-4,-4,0
6800,0,15,4,0,15,2,-2,-5
6805,-2,-7,6,-6,-49,-10,-5,-2
6810,10,11,-6,-7,2,1,0,0
6815,-15,-21,-19,-1,-14,-6,0,4
6820,-4,36,1,-9,-2,-3,-5,-6
6825,-4,-57,-2,2,36,-8,-2,-1
6830,8,18,8,-1,-12,9,2,4
6835,6,11,20,3,-1,-7,-3,-3
6840,-4,4,-55,-12,8,2,0,-7
6845,3,14,-5,6,-25,-3,2,6
6850,-11,-2,10,-3,-6,-13,-3,-4
6855,8,12,-6,3,24,16,6,-1
6860,4,-1,8,0,-3,-9,-3,2
6865,-3,17,15,12,-25,5,1,-3
6870,-2,-1,-19,-20,35,5,-1,0
6875,10,3,-10,5,-2,-3,1,3
6880,2,-16,25,-3,21,4,-4,-9
6885,2,7,-8,-1,-10,-5,-6,-1
6890,-14,-61,9,4,-32,-14,-3,-2
6895,-2,-25,-9,5,59,-3,-4,-4
6900,-39,5,-11,-8,-7,16,6,6
6905,38,26,16,2,12,-6,-4,-4
6910,3,-13,4,3,-23,-7,-5,-4
6915,-12,-1,-21,-9,-12,0,-5,-12
6920,5,-11,-1,2,-17,-7,0,7
6925,-18,9,0,-3,18,12,2,-3
6930,-4,14,-1,6,10,-6,-2,3
6935,7,5,14,2,-47,4,0,-2
6940,-3,9,-3,4,30,7,1,-1
6945,2,-28,13,-6,4,8,2,0
6950,13,5,4,5,35,6,2,10
6955,-19,-13,-1,-9,-9,-14,-6,-13
6960,23,31,22,-3,-5,-7,-2,0
6965,-17,8,12,5,-4,-8,-3,-9
6970,18,-27,2,-1,3,24,9,19
6975,9,58,-10,-1,-22,-7,0,0
6980,-8,-57,-4,-1,-8,0,-1,-2
6985,-8,0,-2,-10,-6,-6,-4,-1
6990,-11,8,-6,2,-21,-10,-4,-8
6995,-27,5,9,-3,6,-3,-3,-6
7000,48,24,6,1,13,4,-1,7
7005,-11,-49,-10,0,-10,-3,2,7
7010,-14,9,1,-11,-26,-3,-3,-2
7015,-10,-35,-16,0,24,0,-2,-8
7020,36,18,5,2,-14,-16,-6,-8
7025,0,9,13,1,54,10,-1,-5
7030,-2,15,-24,8,-60,-23,-1,6
7035,-20,10,18,2,54,39,6,-1
7040,-4,-23,-7,-1,-22,1,5,5
7045,15,47,0,-1,-49,-3,0,-2
7050,-18,-36,-16,-9,70,-5,-4,-6
7055,15,2,4,3,-32,-11,-2,10
7060,-32,-19,-16,-1,-8,8,5,4
7065,13,5,13,2,5,3,-1,2
7070,-9,35,3,-5,-15,-7,-2,4
7075,14,8,-12,2,-27,-10,-3,-16
7080,0,-48,14,-5,22,4,-1,-1
7085,-15,-20,-19,0,-11,-10,-5,4
7090,-2,6,21,0,7,12,0,-11
7095,-4,10,9,0,18,-15,-7,-10
7100,-18,-22,-6,-1,-3,8,2,4
7105,-14,12,7,0,9,-2,2,4
7110,32,1,0,-2,-9,-1,-4,-4
7115,6,-8,-8,0,-19,11,4,5
7120,-12,42,10,1,11,-19,-7,-10
7125,-1,-24,-13,-1,13,21,2,-6
7130,-12,-11,-8,3,-28,-12,-3,-1
7135,35,-11,9,-8,20,10,2,6
7140,-5,6,8,1,-4,-1,-1,4
7145,-7,22,0,4,-13,-11,-3,-6
7150,-1,22,0,1,-24,5,-4,-14
7155,5,-64,-6,0,17,-5,2,12
7160,-6,22,-28,-9,26,-1,-1,-3
7165,23,-12,12,5,27,18,2,-1
7170,-3,-2,-2,-3,-8,-3,-3,-4
7175,-13,-4,-23,-7,-53,-15,-4,5
7180,-8,23,-2,11,-6,2,5,7
7185,4,1,-7,-10,22,-10,-8,-15
7190,3,4,8,2,46,10,1,5
7195,-35,-18,8,1,-27,-11,0,-1
7200,27,14,-8,-1,-5,3,1,2
7205,2,19,-14,-2,-18,0,0,-7
7210,-18,24,9,3,-28,0,1,0
7215,31,-40,-11,-4,37,3,-3,9
7220,-9,10,17,3,-5,5,2,-9
7225,-6,15,-3,-4,-3,-8,-8,-2
7230,13,-3,9,-3,14,-6,-3,1
7235,-13,31,19,10,10,12,7,10
7240,2,-10,-21,-7,-9,-6,-5,-5
7245,13,12,10,0,-39,-7,2,1
7250,-36,-59,-27,-1,44,14,1,-11
7255,38,36,2,1,18,-6,-3,-3
7260,-6,-53,1,-10,-26,-11,-6,-3
7265,0,37,3,9,12,-7,-1,2
7270,4,-20,-2,-2,-8,1,5,15
7275,-35,10,-6,-8,-36,9,3,-7
7280,2,-33,-21,-4,35,-3,-12,-17
7285,7,17,6,-5,-32,-9,4,17
7290,6,1,13,8,-2,-5,0,-2
7295,0,8,-19,-7,-22,-15,-7,0
7300,-15,3,17,3,14,12,5,8
7305,2,-44,-3,-3,-11,-4,-2,8
7310,9,-1,-3,-4,12,10,-2,-10
7315,14,-23,-19,3,-5,-3,0,-7
7320,-6,32,29,-1,-5,-3,-4,-8
7325,-7,-33,-24,-4,0,-7,-3,0
7330,-5,47,2,-4,-14,2,2,5
7335,-1,-37,1,4,49,1,-4,-11
7340,10,11,-19,5,-19,3,-3,-7
7345,3,-28,-1,-8,8,3,0,1
7350,8,-3,9,0,-3,2,1,4
7355,-19,46,0,1,13,-6,-2,-1
7360,-7,-14,6,-16,-24,4,3,11
7365,-2,-4,-7,2,11,2,-3,-20
7370,5,14,4,6,4,-9,-1,2
7375,-5,-24,19,1,-15,-3,1,8
7380,4,25,6,13,37,-4,-2,-8
7385,0,-16,-14,-5,1,21,6,5
7390,-5,-22,12,-9,-32,-7,-5,-11
7395,-7,34,-17,3,0,-4,-2,-4
7400,5,-23,-7,0,14,2,2,1
7405,-15,10,14,1,6,-1,0,1
7410,2,-29,-9,0,1,1,5,4
7415,-19,-1,19,-6,-16,3,0,6
7420,19,8,-6,1,-17,-11,-6,-6
7425,1,-8,1,-3,-12,3,0,-1
7430,-5,27,3,-7,-14,-12,-4,-1
7435,4,17,4,3,50,8,-2,-7
7440,-18,-4,5,-5,-3,4,2,5
7445,7,-33,-7,4,18,-14,-5,4
7450,3,32,7,4,32,8,1,-7
7455,12,-18,-3,-6,-43,-2,2,13
7460,-10,1,-24,0,2,-3,-2,-17
7465,-11,18,14,0,-19,-16,-7,-8
7470,-2,-20,-19,-2,9,31,10,15
7475,-14,-9,4,8,-19,-7,-4,-6
7480,12,3,7,-7,10,3,-1,-1
7485,-8,34,10,0,-16,-6,1,5
7490,10,20,-18,-2,-3,-20,-10,-9
7495,0,-16,8,4,-2,8,1,0
7500,10,13,5,2,26,10,1,5
7505,-22,-13,-14,1,16,-1,0,2
7510,22,-8,3,4,-13,-8,-2,2
7515,-1,0,-35,-17,29,-3,-5,-11
7520,-9,-4,9,4,-12,10,6,2
7525,11,-1,6,-6,7,3,-3,-8
7530,-15,29,-4,4,-27,-10,-2,-5
7535,4,-90,-1,-7,-8,-2,-4,-3
7540,-9,16,6,3,-62,-16,-5,0
7545,-7,-11,-18,-13,71,13,0,-1
7550,8,-2,-14,3,-14,-7,-2,-3
7555,3,33,19,-1,-42,-6,-3,-3
7560,-9,26,2,2,32,5,-2,-5
7565,5,-34,0,6,-10,-1,8,31
7570,-3,30,22,-10,43,4,-4,-8
7575,7,11,-8,4,-11,5,1,-10
7580,-6,-24,-17,-9,-8,-12,-3,3
7585,-11,11,3,1,-44,-13,-3,-6
7590,-10,-27,-10,-1,31,-3,1,10
7595,25,11,8,0,-4,-2,-2,1
7600,-5,-13,-2,-4,25,2,-1,9
7605,10,29,6,1,16,-3,-4,-16
7610,0,0,-2,-1,-50,-2,-2,-4
7615,-38,-33,-28,3,26,2,-2,-3
7620,20,-3,-6,2,-16,-2,1,6
7625,6,0,5,0,10,15,5,7
7630,-22,-11,-3,-5,3,-7,-7,-11
7635,7,24,-3,1,-9,-13,-6,-11
7640,-4,11,25,10,0,-10,-1,2
7645,-10,-1,-24,-9,-8,15,4,-1
7650,24,-10,1,-3,-6,2,1,10
7655,-4,13,10,-1,6,5,5,8
7660,-14,7,-10,-1,-2,-6,-2,-3
7665,20,-16,14,4,-25,-6,-6,-5
7670,2,24,-4,3,39,3,-1,-10
7675,15,-44,7,4,9,13,6,6
7680,-16,-10,-2,-5,-12,-5,-5,-3
7685,5,13,2,0,-2,7,4,9
7690,-7,-18,-3,2,-20,-6,-1,3
7695,-8,39,12,-1,7,3,-2,-4
7700,7,-21,-1,2,-12,7,4,-8
7705,-8,-6,-11,3,12,-2,-5,-14
7710,-16,-13,-13,-4,26,9,4,6
7715,-10,24,7,4,10,-4,-3,-4
7720,18,-42,-21,-6,-21,8,4,25
7725,21,16,12,5,-10,-8,-6,-11
7730,6,3,4,-3,-27,-4,1,6
7735,-7,11,2,0,-9,-3,1,-6
7740,-7,41,-25,-5,16,5,1,0
7745,-2,-93,-13,2,-6,-6,-1,0
7750,-7,15,1,4,-3,-7,-5,-4
7755,21,17,-13,-8,-40,-9,4,23
7760,-16,-23,-21,1,34,22,0,-31
7765,-16,32,3,-4,19,-1,-1,-3
7770,-11,-3,7,-3,-23,-7,-5,-1
7775,6,-13,-19,-6,39,-4,-3,-9
7780,8,15,15,5,-13,-10,0,6
7785,5,-5,4,-7,-27,-5,-1,1
7790,-13,-25,12,2,-15,4,1,-1
7795,2,4,0,-2,18,-8,-5,-1
7800,9,20,36,11,-5,-12,-4,2
7805,-10,12,-1,-6,-13,25,9,1
7810,13,10,1,-1,21,0,4,1
7815,5,-42,4,-2,-28,-3,-3,-1
7820,20,33,7,4,-14,-10,0,19
7825,-26,17,7,-5,42,-4,-7,-26
7830,-8,-8,-6,5,12,10,2,-7
7835,9,28,3,-4,-16,0,-1,5
7840,1,-27,-31,-6,13,-1,-3,1
7845,26,23,15,-4,-42,-14,-1,26
7850,-9,-16,-25,-3,6,0,0,-14
7855,-20,22,11,7,-6,0,0,-5
7860,12,-33,7,-12,12,0,-3,-4
7865,-26,6,3,1,-3,-2,-1,4
7870,1,-9,11,5,6,-9,-6,-8
7875,18,-1,-4,7,-3,-2,-1,1
7880,-24,15,-23,-12,-29,11,8,8
7885,8,-1,-6,6,33,-2,1,7
7890,21,-7,1,-5,13,3,-3,-7
7895,-20,19,4,12,41,14,3,-9
7900,-16,-27,9,2,-39,-8,-2,-5
7905,8,-10,-13,-6,29,-1,-4,7
7910,-18,26,-9,-8,-35,4,1,-5
7915,15,-26,-4,-8,30,1,-2,0
7920,11,20,11,1,-31,-10,-6,-14
7925,10,15,5,7,-9,12,4,8
7930,-10,-35,-34,-4,-8,-18,-8,4
7935,3,38,10,3,-3,5,0,-2
7940,-7,-15,12,-8,25,15,5,8
7945,-11,15,-1,8,-1,-13,-7,-10
7950,-8,10,27,-2,2,2,0,4
7955,21,15,-13,-4,-57,-18,-4,2
7960,4,14,10,4,61,17,3,-3
7965,-11,-18,-20,0,-38,-8,-4,-2
7970,22,8,9,-3,34,0,-1,8
7975,-8,-24,-13,-4,-49,-2,-1,2
7980,-7,23,15,1,18,0,-5,-12
7985,16,16,1,4,-5,-4,3,8
7990,-1,-17,-8,0,-16,13,4,5
7995,-19,-12,9,-7,22,7,4,1
8000,23,27,-14,6,0,-9,-2,-3
8005,-24,-91,-7,-7,-41,-3,-3,-3
8010,11,30,3,-1,23,-11,-3,7
8015,23,-9,13,0,-20,-3,-3,-13
8020,-25,-17,-17,7,46,3,0,4
8025,12,24,6,0,-28,4,-1,-5
8030,-4,-1,-6,3,24,3,-1,-2
8035,-30,-17,10,-10,-51,-2,-4,-2
8040,23,8,-13,4,42,2,-7,-9
8045,-17,-10,-3,-7,-19,-8,-2,-2
8050,9,-11,-8,-6,-13,3,2,0
8055,10,25,-5,5,21,-2,2,0
8060,-16,-20,3,-1,-26,-6,3,14
8065,9,19,-13,-7,29,6,3,3
8070,-2,12,24,6,-50,-8,-4,-6
8075,-2,21,0,-3,44,-4,-3,2
8080,0,-16,-23,-6,-20,-6,-2,-2
8085,-30,9,22,-4,13,5,3,5
8090,43,-1,-25,9,-15,-2,3,6
8095,-9,-19,3,-14,-3,8,-2,0
8100,4,14,3,-6,-3,-9,-3,5
8105,-4,-4,-12,0,-6,-8,-3,-12
8110,-23,-3,3,2,-25,-6,-7,-7
8115,4,-14,8,4,32,-3,0,-5
8120,-3,18,2,2,-36,12,9,13
8125,-1,-43,-13,-2,66,-5,-8,-18
8130,-9,14,5,4,1,-12,-3,-5
8135,5,-10,-16,-6,-13,30,5,-1
8140,-18,4,8,-5,-16,-15,-4,-4
8145,6,24,13,7,20,-9,-1,0
8150,14,-14,-1,-5,2,4,4,22
8155,-1,-3,-16,4,13,-5,-2,0
8160,-4,10,16,-1,-20,-5,-5,-16
8165,6,-5,1,5,-13,7,2,1
8170,-15,-31,-2,-6,14,-6,-5,0
8175,-5,4,-1,0,16,3,4,-4
8180,16,11,8,-1,4,1,4,-4
8185,0,-32,10,2,9,-6,-6,-4
8190,-21,-4,14,-2,26,15,2,-6
8195,4,22,-4,3,-21,-10,-1,1
8200,5,-17,22,4,-12,5,1,8
8205,25,29,-32,-3,11,0,-1,9
8210,9,-43,-15,-3,-41,-10,-2,-8
8215,-17,-29,7,0,64,6,-2,-1
8220,-10,-27,-10,-3,26,2,3,13
8225,-9,17,-3,1,-37,-9,-6,-18
8230,4,23,14,-6,-27,9,2,-7
8235,-10,-16,-37,-6,10,3,-2,-4
8240,24,33,-9,4,-10,-12,-1,8
8245,-11,-17,21,-2,21,13,2,4
8250,1,58,19,7,-24,-17,-2,10
8255,7,-50,-7,3,20,10,2,-10
8260,-3,-3,10,-7,-19,-5,-7,-10
8265,20,34,-3,-1,-5,-4,4,15
8270,-25,-7,-2,1,-22,12,3,-28
8275,-5,1,-7,2,-3,-3,-2,8
8280,-5,6,-2,-2,39,-3,-3,-2
8285,-9,25,30,-2,-29,-1,0,-10
8290,-6,-6,-64,-10,39,13,-2,7
8295,22,31,12,-2,-31,-23,-4,8
8300,-15,-41,-9,0,-15,0,-3,-17
8305,-1,20,9,-9,15,5,1,-2
8310,3,6,13,4,27,-2,-1,5
8315,-6,10,-20,2,-28,-7,-3,-3
8320,-15,-4,7,9,4,-4,3,7
8325,26,-19,-13,-12,-14,2,-8,-11
8330,-19,-25,-4,6,75,11,1,-12
8335,-2,4,15,-3,-26,-11,-6,1
8340,5,-6,15,-2,-30,-2,-5,-11
8345,-3,4,-17,4,6,-9,-2,7
8350,10,-24,-2,-3,2,5,3,9
8355,-30,30,-32,-7,-5,-1,1,-1
8360,0,-7,16,-9,1,3,4,17
8365,0,8,0,5,-15,-3,-6,-22
8370,17,-6,15,-5,-4,-6,-1,14
8375,5,-20,1,-1,24,-11,-8,-14
8380,-12,2,-20,1,7,4,3,-1
8385,-16,-3,-4,-6,-34,0,3,1
8390,12,15,9,0,-5,6,3,9
8395,-31,-15,-5,-2,-14,-8,-2,-11
8400,39,21,-5,-1,41,0,-7,-4
8405,1,-26,-39,7,-5,14,9,9
8410,-3,-48,-9,-5,-16,-6,-1,2
8415,-21,57,11,1,-11,-13,0,8
8420,-3,-9,-4,-9,5,6,3,0
8425,5,28,-5,8,12,-2,-1,0
8430,5,-7,-16,-7,-27,5,-3,-8
8435,2,-7,6,2,18,-4,-2,-4
8440,-20,-11,14,3,-53,-9,-6,-7
8445,3,18,-4,-3,71,12,5,12
8450,-3,56,20,7,-7,-1,1,1
8455,11,-92,22,0,-4,9,5,-1
8460,-13,-11,-10,-2,0,-4,-3,-6
8465,0,-23,17,-2,-30,-10,-2,0
8470,-11,-4,-20,-4,10,-5,-4,5
8475,31,49,26,5,-12,4,3,6
8480,8,-20,2,1,4,11,1,2
8485,-7,-17,-7,-8,7,5,2,-1
8490,-12,6,3,4,-27,-9,-4,-16
8495,-14,11,18,3,28,4,-1,8
8500,11,18,-26,-1,-42,-7,0,-9
8505,0,15,18,0,27,9,2,-3
8510,-6,6,-1,3,-6,-3,0,-1
8515,7,-2,-13,-12,5,7,2,5
8520,-8,8,0,1,-2,-13,-7,1
8525,23,-38,1,-3,1,4,-1,1
8530,-10,20,10,-8,-27,-13,-6,-12
8535,21,-4,-20,1,-11,-6,3,15
8540,-6,19,13,0,27,1,-2,2
8545,-13,-51,-12,3,14,6,2,4
8550,-20,-19,-3,-7,-23,-13,-1,-15
8555,0,-4,10,10,37,-3,-5,-7
8560,-2,26,-21,-7,-21,0,0,-7
8565,-3,-15,5,3,-4,-13,-5,-4
8570,19,39,-7,11,33,13,10,14
8575,-39,-61,2,-13,-8,6,-3,-4
8580,21,27,3,3,4,-3,0,-9
8585,17,-43,0,-4,-18,-7,-6,-5
8590,2,47,22,1,-16,-3,1,1
8595,10,31,4,4,-11,-1,0,8
8600,-33,-75,-46,-3,50,12,2,-5
8605,-3,54,12,-3,-20,-6,-1,-4
8610,8,-57,8,2,13,-2,-2,0
8615,8,22,-9,-2,-52,-4,4,14
8620,2,1,10,4,1,0,1,1
8625,-31,-4,-22,-2,18,-4,0,-1
8630,32,12,2,1,18,22,2,-1
8635,-7,0,-1,1,-36,-3,2,5
8640,15,38,26,4,33,0,-2,-2
8645,-4,-19,-31,-4,-25,1,0,1
8650,-20,-17,0,4,11,-17,-8,-9
8655,0,20,-13,0,15,4,1,3
8660,7,-13,15,-2,-33,6,4,15
8665,-11,21,12,7,3,-4,-8,-12
8670,13,-7,-2,0,-7,-8,-5,1
8675,4,20,0,5,3,3,0,-14
8680,-16,-31,-20,-10,-27,-3,-2,-3
8685,9,10,12,-1,13,10,3,13
8690,-18,21,-3,-4,4,0,1,11
8695,12,-37,-5,-5,-6,-10,-5,-11
8700,11,27,8,4,-5,1,2,-4
8705,8,18,-5,-5,-19,-5,0,12
8710,-14,-5,3,3,6,-8,2,13
8715,8,-29,3,-12,24,12,1,-28
8720,-24,2,-8,1,28,-5,-8,-13
8725,8,37,9,3,-26,-7,-2,2
8730,1,-7,12,-4,-5,-4,0,-2
8735,-7,-2,-17,-3,-71,-17,1,13
8740,10,-3,8,2,75,20,5,6
8745,1,5,-3,-4,-24,1,2,-21
8750,10,10,-2,-2,18,-4,-6,-9
8755,5,8,16,7,-5,0,-1,7
8760,-29,23,-17,-12,-72,-27,-9,-7
8765,-3,-50,4,1,63,15,4,2
8770,2,-26,-32,-3,17,10,1,-3
8775,5,49,15,1,-13,-12,-6,2
8780,7,-20,-5,6,8,1,2,4
8785,-14,13,11,-6,-14,-12,-4,-7
8790,-19,-1,-7,5,4,10,-2,-21
8795,9,-41,-28,3,9,-2,-1,3
8800,-28,32,17,-7,36,13,-1,-7
8805,39,13,0,4,-21,-3,0,10
8810,3,11,12,1,-6,-5,2,3
8815,-37,-7,2,-2,10,5,2,1
8820,24,-30,-8,8,4,1,3,5
8825,-9,-2,-5,-1,-34,-8,-1,4
8830,21,49,15,1,40,17,2,-8
8835,-5,-37,-11,-11,-5,5,-2,-1
8840,-22,23,10,-5,-34,-17,-2,-5
8845,8,-53,11,7,-19,1,-3,0
8850,-4,-37,-29,-1,29,1,0,6
8855,-12,16,15,-3,-1,5,2,-3
8860,17,-2,7,-3,-35,-3,-2,3
8865,-23,8,-21,-3,6,-6,1,0
8870,14,10,-4,-4,-30,-17,-5,8
8875,7,-6,17,16,58,23,5,-9
8880,-23,-12,-32,-6,-37,-1,2,12
8885,21,13,9,2,-2,-5,0,-2
8890,-11,5,13,-6,-20,-1,-2,-4
8895,24,6,-7,6,-19,-12,3,6
8900,9,26,8,3,31,12,-2,-8
8905,-25,-30,13,2,19,4,1,7
8910,-5,-17,9,1,-13,1,1,2
8915,7,10,-21,-4,9,-4,-5,-7
8920,1,10,-4,-3,-39,-12,-7,-8
8925,-9,-1,3,4,37,1,-7,-9
8930,6,33,10,-10,-27,16,3,3
8935,-11,-42,-11,-7,25,-9,-2,7
8940,15,-21,-4,-1,-32,-9,0,-3
8945,-35,25,-7,-2,42,1,-5,-16
8950,17,-30,-12,1,4,-7,-2,-1
8955,10,29,19,-7,-17,-4,-2,5
8960,-8,-8,-6,1,17,7,0,-6
8965,-10,-43,-1,1,2,-7,-3,-4
8970,7,-6,-13,-6,-16,-2,0,1
8975,-11,10,13,-2,2,0,-3,-4
8980,13,-5,7,0,-2,-13,-1,8
8985,-8,22,-28,-2,-5,3,-3,-21
8990,-18,7,11,1,-18,1,-1,-5
8995,16,16,-13,4,20,-6,-1,8
9000,13,-18,8,-9,9,14,4,13
9005,-41,-9,-28,-3,-47,-4,-4,-15
9010,38,-5,3,0,36,4,-2,3
9015,-12,-20,-13,5,-25,-9,-1,-6
9020,-9,25,-9,0,16,7,2,4
9025,47,-46,-5,-6,21,15,1,5
9030,-19,-9,-11,-1,-16,-9,-5,6
9035,-30,7,-2,-2,-23,-6,-4,-4
9040,14,-34,-1,5,25,0,-1,-14
9045,0,39,10,0,-19,-14,-2,6
9050,0,15,11,0,4,15,6,0
9055,7,-35,-21,-6,0,0,1,8
9060,-28,-2,0,1,21,-3,-3,-4
9065,7,5,10,-2,-6,-16,-1,-8
9070,11,-20,-5,5,0,-5,-7,-7
9075,-3,-13,4,-3,1,16,3,-4
9080,-9,4,21,0,-20,-6,-2,0
9085,17,53,19,5,5,6,5,15
9090,-28,-70,-58,-7,-19,-12,-3,-5
9095,6,15,3,-4,24,9,-1,-8
9100,1,13,-3,-1,-11,-8,-4,-2
9105,2,-10,14,6,-6,2,1,1
9110,-7,46,9,-9,17,7,0,-1
9115,-14,-5,-3,-5,-8,-6,1,5
9120,-17,5,-3,2,-51,-17,-3,-6
9125,21,-43,-13,-10,48,12,-2,-8
9130,-4,-7,0,3,-1,-5,2,-1
9135,-7,23,-3,-3,-40,-12,-5,1
9140,16,17,22,-3,44,10,3,7
9145,-5,8,-35,-4,-37,-8,-2,4
9150,-21,-3,11,5,10,-7,-1,-6
9155,28,18,36,4,-10,2,2,17
9160,-4,-18,-24,1,-13,-3,-2,-14
9165,1,32,17,-1,11,16,8,8
9170,2,3,-15,2,11,-4,1,1
9175,-5,16,1,-3,5,0,-4,1
9180,-10,-10,-7,-1,-16,-3,-2,-7
9185,10,31,3,-1,-18,-5,-2,2
9190,-18,8,12,-5,26,-4,-3,-7
9195,9,-21,-17,-4,0,-3,0,0
9200,8,4,17,-7,-47,-8,-4,1
9205,-22,18,6,4,56,15,2,2
9210,23,-16,0,0,-9,-13,-2,9
9215,-4,-7,16,0,31,4,-2,-16
9220,6,-35,-22,-11,-7,3,-3,10
9225,-20,10,16,5,-21,-6,-2,-1
9230,1,6,7,0,-12,-2,-3,2
9235,-9,-6,-9,-2,10,12,7,-2
9240,7,9,-5,3,9,-3,-5,-16
9245,12,-7,12,3,-10,5,3,10
9250,-25,0,-6,1,-19,-4,-6,-17
9255,3,-27,-20,-12,9,6,-1,-3
9260,17,19,15,8,28,4,2,3
9265,-17,-4,-15,-10,-11,11,2,0
9270,6,-20,4,0,-35,-6,-3,-5
9275,-11,38,5,7,5,-4,-3,-7
9280,-5,-33,3,-2,-38,-11,-3,11
9285,23,28,-16,-1,30,8,-1,0
9290,22,8,4,-1,-4,6,5,10
9295,-15,12,18,4,-4,-6,-5,-14
9300,8,-10,-13,1,18,2,-1,0
9305,-16,6,1,-3,-55,-19,-6,-2
9310,-6,14,-9,1,32,1,-3,-4
9315,10,-5,-3,2,-10,6,3,4
9320,-16,-7,7,1,26,9,1,2
9325,20,-10,-5,-3,-15,-18,-5,-3
9330,3,-23,15,-6,-1,0,0,-7
9335,12,30,-13,2,22,0,-2,-4
9340,-3,28,11,1,30,5,4,5
9345,-20,-38,-20,-9,-17,-5,-2,-7
9350,-9,-7,10,5,-22,-3,-3,7
9355,4,3,0,3,-2,-9,-2,4
9360,30,9,12,-4,-16,14,2,-8
9365,3,22,9,6,35,-1,-2,0
9370,-16,-14,-15,-1,-4,9,4,-1
9375,-3,0,-2,-4,-14,-6,-3,6
9380,-15,16,-12,-2,7,0,1,5
9385,27,1,9,0,-68,-15,0,12
9390,-4,-8,2,2,36,1,-3,-10
9395,4,2,-6,5,52,21,4,-4
9400,-5,-7,15,-3,-33,-10,-4,-5
9405,-6,-25,-33,-5,19,0,2,0
9410,6,-1,8,-3,-17,-6,3,18
9415,-8,-14,-12,0,-26,-10,-5,-8
9420,0,-12,-10,1,33,6,3,11
9425,-6,15,13,-5,-18,-3,-4,-13
9430,28,30,-5,-2,22,2,-2,-8
9435,-24,0,22,2,-4,-7,-6,-7
9440,19,-5,-4,1,24,-2,-1,4
9445,-10,-23,10,0,-9,6,1,8
9450,-1,27,-16,-1,-21,0,4,6
9455,-8,-12,9,-5,-1,-2,-5,-19
9460,-32,23,0,8,-7,-7,-4,-2
9465,25,-14,25,4,31,2,0,3
9470,-18,-23,-45,-9,11,15,1,-11
9475,4,4,-6,2,-18,-14,-1,9
9480,-8,2,-5,-1,-44,2,4,14
9485,10,-18,8,10,22,6,-2,-19
9490,2,-11,-6,0,0,0,-1,8
9495,-13,-15,-9,4,9,4,2,-1
9500,4,-6,-16,-2,-1,-13,-5,-2
9505,-1,46,3,-8,-46,-1,-1,5
9510,-10,-24,4,3,20,3,0,-1
9515,0,-45,0,-2,-29,0,0,11
9520,11,13,9,-2,22,1,-3,2
9525,-22,-33,6,7,6,-8,-6,-27
9530,13,25,-11,0,-11,8,0,-4
9535,2,6,7,4,12,-1,3,4
9540,-12,-14,-26,-15,7,4,4,21
9545,-19,-40,-1,0,-33,-6,-3,-18
9550,34,-2,21,2,19,-10,-7,-10
9555,5,35,-3,-1,26,6,4,1
9560,6,-5,5,-1,-33,-3,-5,-4
9565,-23,39,-3,2,26,-1,2,12
9570,15,-47,5,-2,-17,-4,0,7
9575,-15,32,5,-12,-27,3,1,-13
9580,4,-51,-2,0,37,-3,-3,-10
9585,-6,-8,4,-5,-28,-8,-5,-12
9590,-10,24,-9,8,47,-2,2,16
9595,-10,-2,-6,-1,-51,-1,0,-11
9600,19,19,18,-3,8,0,-1,-14
9605,7,11,8,0,33,8,0,12
9610,-20,-33,5,1,-36,-13,-4,-6
9615,8,1,-34,-6,-4,-13,-6,6
9620,-2,9,5,5,1,9,0,-13
9625,5,35,8,1,-11,2,4,7
9630,-5,-38,-8,-8,-24,-4,0,8
9635,-1,-13,7,2,25,1,-1,-6
9640,-5,-22,-22,-2,-4,1,-3,-6
9645,-11,21,-9,-3,-1,0,1,4
9650,-3,-7,-11,-1,5,-3,-3,-11
9655,3,0,5,-6,0,-5,-1,6
9660,29,34,4,-1,-17,-5,-4,-10
9665,-24,-49,-1,0,-12,-7,-7,-11
9670,-26,-1,-18,-2,18,-4,-3,-11
9675,17,-7,-18,-12,-15,3,-3,7
9680,5,10,-1,1,32,4,4,12
9685,1,20,4,-5,-6,-3,-2,1
9690,-5,-9,7,1,-32,-2,-2,-10
9695,-14,-4,10,6,49,-5,-2,-5
9700,-17,-15,-11,3,-17,11,4,4
9705,36,19,4,-3,11,-4,-2,9
9710,-5,3,3,-4,-27,0,3,-2
9715,7,5,13,1,46,0,-4,13
9720,-18,13,-12,-1,-16,-10,-4,-23
9725,0,-52,-6,8,-11,-9,0,-2
9730,8,6,24,-10,42,10,5,15
9735,3,-13,-18,6,-26,0,-2,-4
9740,6,25,7,-4,-8,1,-2,5
9745,-2,-18,-34,1,13,4,2,7
9750,-19,-14,3,2,-20,-2,-1,-11
9755,9,22,24,7,1,-7,-2,2
9760,-9,-21,6,4,52,11,4,-9
9765,18,-6,-34,-7,-43,-9,4,13
9770,7,64,37,7,36,17,-1,5
9775,-2,-8,-21,0,-32,1,2,-15
9780,-22,-12,6,3,-18,-10,-4,-9
9785,11,-5,9,-10,35,1,0,9
9790,1,37,-1,10,-25,-11,-2,-1
9795,18,26,31,-8,18,12,-1,5
9800,-4,-29,-17,0,-10,-4,-1,0
9805,-24,8,-34,-1,3,0,-4,-9
9810,0,18,18,5,-60,-6,0,2
9815,4,-23,-6,2,86,19,4,-4
9820,-4,-26,1,-14,-21,1,0,7
9825,27,27,-2,3,12,-2,0,9
9830,-24,9,-6,1,-32,-1,1,-13
9835,13,19,13,5,-14,5,3,1
9840,-10,11,11,1,-7,-7,-3,3
9845,6,3,17,6,10,2,0,-1
9850,5,-18,-25,-23,-11,-4,-8,-8
9855,-4,10,-14,1,-3,-8,-1,4
9860,0,-16,26,3,-22,13,1,0
9865,-26,-20,17,-3,38,8,3,-5
9870,27,-8,-24,4,35,-2,4,15
9875,-17,-13,-1,-10,-54,-6,-5,-16
9880,27,-5,-5,-1,-6,-5,1,0
9885,2,6,44,1,-31,-12,-6,-4
9890,1,7,-9,7,1,0,2,4
9895,-25,9,-3,4,22,-3,-2,-2
9900,14,-8,-11,-9,-56,-1,5,7
9905,5,42,10,1,59,11,0,1
9910,-8,-69,-33,-1,35,-7,-6,0
9915,2,-8,21,4,6,18,7,2
9920,-14,55,-16,5,16,-17,-10,-10
9925,-24,-59,-22,-7,-18,4,3,2
9930,22,7,1,-7,-23,-1,-2,-10
9935,17,-12,-6,5,17,-11,0,12
9940,-18,-31,-11,-4,-30,-10,-11,-19
9945,-16,10,2,3,29,11,-1,-9
9950,8,46,8,-11,-6,-13,0,9
9955,-5,-29,4,-1,9,-2,1,0
9960,13,-18,0,3,1,-1,5,11
9965,-10,5,-2,-11,-9,-13,-4,-12
9970,-3,4,9,-2,25,6,-2,2
9975,8,1,4,1,-50,-5,-4,-10
9980,-3,-3,-17,-4,23,-7,0,5
9985,-22,6,8,4,-24,-7,-4,-8
9990,26,-9,-3,1,17,9,4,15
9995,-14,8,-18,-13,-67,-11,-5,-3
10000,-18,20,32,5,63,6,-3,-19
10005,29,-39,-44,-4,-40,-4,-2,-1
10010,-9,97,36,8,33,1,0,-11
10015,-8,-28,-14,-7,34,4,2,10
10020,3,12,4,-8,-17,-1,0,11
10025,3,5,-7,6,-28,-13,-5,-5
10030,-22,-39,15,-1,40,35,5,1
10035,16,39,-4,3,-14,-15,-5,-10
10040,5,-25,-10,-3,-17,-5,2,27
10045,-1,53,16,-5,43,20,3,-14
10050,1,13,-18,10,-44,-19,-11,-26
10055,2,-57,2,3,-3,9,8,17
10060,21,37,13,2,21,10,1,-9
10065,-8,-28,-24,5,-20,1,5,12
10070,-13,-29,-4,-1,26,-15,-4,6
10075,-23,1,-7,0,-23,9,-3,-13
10080,14,-2,-5,0,-41,-15,-8,-6
10085,22,26,3,-5,44,18,4,13
10090,-7,-40,-4,3,-1,-4,1,-4
10095,-2,8,-9,1,8,-4,-6,2
10100,-8,-66,-7,-3,-24,1,1,2
10105,7,-4,-1,-2,19,8,-2,-14
10110,13,4,8,-2,-66,-6,-2,-1
10115,-23,17,2,-4,31,-6,-6,-4
10120,6,3,-31,3,51,-1,-4,-7
10125,1,21,2,4,-19,1,2,13
10130,-7,-48,-7,-5,-28,-7,-3,-2
10135,19,12,4,-5,-7,6,6,9
10140,-29,17,31,2,-5,-6,3,-2
10145,12,12,-9,-3,-10,-6,-3,-14
10150,-20,8,4,8,24,6,0,15
10155,17,-33,-10,-12,-43,-21,-13,-23
10160,-23,39,-2,4,36,32,8,0
10165,15,-3,-14,-6,-27,-12,-2,4
10170,-21,1,6,-3,-48,-11,-4,-4
10175,0,13,4,0,50,-8,-1,-10
10180,7,5,5,-8,-15,1,-3,-2
10185,-6,-27,-1,0,19,-2,2,7
10190,3,-21,3,-5,-7,-1,-2,-1
10195,-20,13,5,-5,-28,-6,3,17
10200,25,-20,-3,0,-57,-17,-6,-9
10205,-12,5,36,9,75,10,0,-2
10210,5,-10,-44,-8,30,7,4,-1
10215,-7,10,11,10,-3,-6,-4,-6
10220,5,-48,0,-11,-24,-5,4,15
10225,-19,-9,14,-4,-44,-2,-4,5
10230,10,2,-5,-1,27,9,1,-17
10235,13,16,8,1,-10,2,0,-4
10240,-6,-1,-6,-4,79,6,-3,-7
10245,-5,-27,4,0,-41,-16,-7,1
10250,1,19,12,2,-1,9,5,7
10255,7,-40,-6,0,20,9,-2,-12
10260,-15,-3,-30,-1,-15,-9,-2,-10
10265,19,5,3,-5,9,-18,-4,4
10270,-6,1,6,-1,5,12,4,0
10275,1,28,9,5,-19,-8,2,15
10280,9,-37,6,3,3,-4,-3,-9
10285,-4,1,-2,8,-34,0,2,-16
10290,-5,-9,-25,-8,45,-7,-3,13
10295,7,34,-2,-8,-9,11,-1,-12
10300,-29,34,-5,3,-20,-9,-4,-1
10305,20,-14,-11,-3,-5,3,-1,13
10310,-17,-16,13,4,14,-6,-3,-22
10315,1,0,-19,-3,-9,2,2,13
10320,9,31,10,-1,5,11,4,6
10325,7,-6,17,-3,-5,-7,-3,-1
10330,-2,32,-14,-3,-33,0,-1,-8
10335,-4,-9,10,3,45,4,-4,-7
10340,4,40,8,6,-30,0,5,5
10345,-27,-79,-8,-4,1,3,10,18
10350,45,33,9,-13,7,-12,-15,-16
10355,-10,-27,4,2,-18,0,-2,-18
10360,9,6,25,3,16,-1,-2,0
10365,-11,19,-8,6,15,15,0,-4
10370,-1,4,14,6,-14,-13,6,32
10375,11,6,-7,-10,-48,-12,-3,-3
10380,-8,41,1,5,52,-2,-10,-9
10385,9,22,13,2,-40,8,12,19
10390,-9,10,15,-2,-5,-1,2,-5
10395,7,-8,-6,10,41,12,-1,-1
10400,-42,-19,0,-6,-42,-9,-1,-2
10405,40,12,-36,-7,-27,-9,-3,-2
10410,-18,-32,-1,-3,24,9,1,-13
10415,7,-16,-3,4,-2,1,2,7
10420,0,-22,9,2,5,0,2,14
10425,-3,-5,-22,-6,-13,3,1,-10
10430,-3,-10,1,3,32,-2,-4,0
10435,-6,-5,2,-5,-4,4,2,4
10440,6,-8,-16,-1,6,2,1,1
10445,-17,3,8,0,-20,-18,-7,-13
10450,12,9,3,3,18,24,5,4
10455,-8,2,-3,-9,7,3,2,4
10460,13,-18,-9,-1,-2,1,1,-1
10465,-14,12,8,1,11,-11,-6,-5
10470,-2,0,-7,4,-29,-6,-3,-1
10475,7,-10,-2,-14,10,-2,-1,2
10480,-5,-7,3,3,2,0,0,-13
10485,4,20,-4,-7,21,6,2,13
10490,-16,-38,-13,-4,-13,-6,-6,-14
10495,-18,-9,2,1,2,-9,-4,-10
10500,-10,-13,0,6,-16,1,1,6
10505,31,42,2,1,29,3,-3,-10
10510,12,11,-1,-11,-31,11,4,7
10515,-3,7,-4,6,-18,-10,-3,8
10520,-5,-39,-3,-6,20,8,2,2
10525,-19,-18,-1,1,2,-1,-1,3
10530,-10,-9,-15,4,-9,-13,-7,-12
10535,12,5,-1,0,-24,2,4,4
10540,7,15,-3,2,25,1,-6,-7
10545,-4,11,2,-1,-31,-2,0,-6
10550,7,22,17,2,57,3,2,10
10555,-40,-16,1,-3,-57,-5,0,13
10560,37,0,-10,3,54,-1,-1,-13
10565,6,5,11,2,37,11,1,-4
10570,7,37,3,7,-28,-11,0,4
10575,-7,-30,7,1,-1,10,2,-4
10580,-9,-7,2,-5,-15,-6,-1,9
10585,-7,1,14,1,22,6,1,-5
10590,-6,-1,-24,2,-28,-2,1,-3
10595,13,20,-21,-7,13,7,3,13
10600,2,0,27,-3,-10,-2,-2,-11
10605,-17,22,8,3,23,-10,-7,-11
10610,12,-22,12,4,-24,0,2,6
10615,-2,-7,-12,1,10,0,-4,-6
10620,7,2,-10,-4,15,9,0,4
10625,-1,-12,-12,-1,-23,-14,-4,7
10630,-25,50,26,0,-12,6,1,-10
10635,37,-50,-11,7,19,-5,-1,4
10640,-24,-18,2,-8,-26,-10,-6,-3
10645,13,6,-2,-6,-2,1,2,2
10650,15,-7,-37,0,-20,-10,-7,-5
10655,0,34,19,0,19,9,4,2
10660,-1,16,-4,-3,6,-2,-2,10
10665,-17,-29,7,-5,-25,0,-2,-6
10670,0,-4,-6,-5,6,-3,0,11
10675,-4,5,7,0,36,4,-4,-22
10680,4,15,12,-2,-38,-13,-3,3
10685,-5,1,7,12,-21,-14,-6,-2
10690,2,-6,-17,-12,50,38,12,16
10695,-18,1,2,6,-23,-7,-3,-13
10700,10,-20,-4,6,-6,0,2,7
10705,9,-12,-16,-11,3,-4,-2,-14
10710,-3,-26,15,4,-15,-1,-5,-12
10715,2,5,-1,-9,11,-4,1,10
10720,-8,2,-7,2,-12,7,1,-9
10725,15,41,10,5,8,-7,-3,13
10730,-16,-16,8,-5,-27,0,0,-9
10735,-2,5,-6,0,18,0,-5,-10
10740,-3,-1,-7,-1,-12,-2,3,3
10745,-4,22,-10,4,-16,-2,4,3
10750,10,-38,-3,-9,25,-18,-11,-9
10755,-20,19,4,1,8,14,9,25
10760,21,4,7,-5,-39,-7,-6,-18
10765,-14,5,-8,3,53,1,-1,-1
10770,18,-4,-4,2,1,13,7,14
10775,-5,12,10,-1,-34,-11,-9,-11
10780,-5,13,12,0,40,10,6,0
10785,-15,-48,-28,-10,-27,4,0,-6
10790,-4,28,28,3,-9,-15,-6,-1
10795,4,-34,-14,-2,8,-6,-4,-1
10800,-7,54,4,0,-69,-7,-1,5
10805,6,-19,6,1,34,17,5,4
10810,-4,-17,4,1,20,-12,-4,-5
10815,-5,17,-7,1,-25,-2,1,-8
10820,15,-14,-8,6,31,23,5,2
10825,-5,19,-2,-6,-11,2,-2,-2
10830,-20,-28,-7,-6,-12,-2,-1,8
10835,-17,-9,7,2,7,-16,-5,-2
10840,41,19,4,3,-10,-9,-3,-15
10845,-2,2,13,3,15,20,8,0
10850,-4,12,-7,5,2,-4,1,4
10855,-4,-3,9,4,-13,-4,-4,-6
10860,-17,-33,-30,-11,17,4,7,16
10865,-1,20,-6,-3,-13,-5,-4,1
10870,-8,19,11,6,-35,-15,-11,-38
10875,16,21,-4,-9,57,-4,0,4
10880,-6,5,18,5,37,27,7,9
10885,-31,-26,-11,5,-39,-17,-4,1
10890,37,31,-5,-1,3,13,6,1
10895,5,7,-7,-8,-23,8,-3,-11
10900,-10,-38,-25,0,-13,-15,-7,-2
10905,-15,9,16,-6,25,3,2,2
10910,-14,5,-33,4,-17,-11,-2,6
10915,29,-12,8,-1,-12,10,4,-6
10920,2,-12,-8,-1,-38,-12,0,14
10925,-22,14,3,9,72,10,-2,-12
10930,11,14,-24,-15,-21,-3,-3,1
10935,4,14,3,5,-2,-2,-5,2
10940,-22,-13,11,-7,-6,-6,-4,-7
10945,18,-13,-1,0,-22,-2,0,-3
10950,23,34,16,-3,3,-7,3,24
10955,-24,-19,-6,0,8,-1,2,-8
10960,29,-1,-10,-4,-12,-7,-8,-7
10965,3,-25,-8,-5,5,0,-2,-6
10970,-5,-4,-15,1,5,-5,-5,-3
10975,-4,11,5,4,-33,-1,2,14
10980,-32,20,10,2,55,2,-2,-6
10985,30,-23,1,-8,-37,-3,-3,-7
10990,-8,-31,7,2,13,6,5,-2
10995,0,42,-3,2,-48,0,0,4
11000,0,2,-2,-9,104,6,-5,-8
11005,-1,9,-1,5,-13,-2,-1,-3
11010,-18,-58,12,-2,-29,-5,-3,8
11015,15,-3,-20,-6,15,-6,-5,-12
11020,5,43,9,3,-9,-12,0,0
11025,7,-35,-14,-5,-27,1,-6,-5
11030,-6,4,1,2,-1,3,0,-5
11035,-9,-41,5,-4,0,-13,0,10
11040,0,13,-17,0,-21,7,2,3
11045,1,16,22,-1,1,-7,1,9
11050,-4,5,5,5,11,14,0,-23
11055,-7,-8,2,3,16,-1,-1,-3
11060,-19,-3,-4,-2,-3,4,-1,2
11065,26,-10,-13,-3,-18,-5,1,6
11070,-7,21,0,-2,13,-8,-3,6
11075,4,-3,18,-1,-4,2,0,-4
11080,11,28,-13,6,3,-2,1,5
11085,4,-28,0,-2,-27,-2,4,9
11090,-12,-6,16,4,16,-3,-8,-24
11095,6,11,-9,-4,14,8,3,11
11100,-15,-16,-14,-2,-47,-17,-6,0
11105,4,4,-25,5,79,22,4,-6
11110,2,-2,-5,4,-13,2,6,12
11115,3,21,20,2,2,-3,-5,-3
11120,-13,-40,-29,-4,-16,-4,-3,-14
11125,-4,-7,3,-5,-3,8,-2,-8
11130,-2,17,2,-2,23,2,1,0
11135,4,0,-6,1,-40,-11,-3,-3
11140,6,-12,16,-3,23,10,2,5
11145,-7,53,9,-7,-4,4,5,13
11150,-5,-29,-14,4,-12,-11,-7,-6
11155,18,4,-3,-1,12,18,4,6
11160,10,-6,19,-3,-1,-4,-1,-8
11165,-20,2,0,6,-7,-5,-3,2
11170,-13,5,17,-9,-23,2,2,-1
11175,-6,30,-22,2,20,-5,3,17
11180,2,-39,-7,0,5,8,-2,-30
11185,-19,-36,-8,2,8,-7,-7,-16
11190,9,17,-6,-4,-6,-9,-1,12
11195,-13,-6,-20,-5,-33,-20,-11,-6
11200,-12,-16,-4,-7,27,13,6,16
11205,19,34,9,7,-10,-6,0,2
11210,-4,-18,-15,-3,-13,0,-1,-5
11215,-15,-9,19,-5,14,5,0,-11
11220,12,30,18,3,-28,-12,1,8
11225,-2,-36,-8,-7,13,-4,-6,-4
11230,7,16,-3,5,4,5,2,6
11235,13,-36,-8,-4,45,-10,-6,-14
11240,-6,16,10,6,-12,6,3,8
11245,-1,10,9,0,-35,-6,3,8
11250,20,-1,-6,2,39,-9,-8,-25
11255,-9,5,14,2,-16,14,5,-1
11260,9,-5,14,5,-10,-19,-8,-3
11265,-2,15,1,-3,27,18,9,16
11270,-15,2,-3,-5,-16,-2,0,7
11275,7,-21,1,3,-19,-1,2,-6
11280,-3,9,6,-8,-21,-5,-4,3
11285,-12,23,-14,4,7,-3,-1,-8
11290,5,-35,-19,-2,19,-3,-1,1
11295,7,0,-20,-1,22,5,-1,2
11300,-22,-7,-16,-6,-12,-1,-1,0
11305,2,-10,6,-2,-25,-12,-3,-9
11310,22,20,7,-2,11,-2,-2,0
11315,-13,-13,6,-2,-34,4,5,11
11320,19,38,5,-1,57,6,-1,7
11325,-13,-10,11,2,-14,-12,-6,-26
11330,-8,-34,1,-8,-45,5,-2,-4
11335,15,28,17,9,39,1,0,0
11340,-9,10,-33,-11,-39,-8,-3,-3
11345,-13,0,8,2,22,-11,-5,2
11350,3,11,7,-1,14,25,11,11
11355,-15,32,8,5,-37,-15,-5,0
11360,15,-36,-12,-3,8,2,-1,-7
11365,-5,5,-5,-9,-18,-16,-4,2
11370,-2,-19,-22,0,41,7,-1,-5
11375,-8,3,14,-8,-20,-2,1,1
11380,5,20,8,8,-8,-2,1,4
11385,9,-15,-2,0,-20,-8,-2,0
11390,6,-1,11,3,29,9,4,15
11395,1,16,1,-1,-1,5,-1,-1
11400,-16,-52,-4,2,4,-5,1,-10
11405,13,19,2,3,-31,6,2,6
11410,-15,14,1,-2,3,4,4,-1
11415,27,-11,-15,11,22,-4,0,12
11420,-25,6,23,-9,-30,7,-5,-25
11425,32,-5,-6,-2,47,12,5,12
11430,-23,16,22,1,-8,-9,-6,-10
11435,7,-36,-49,-5,-14,-5,-1,-4
11440,-11,18,24,1,13,-5,0,8
11445,9,-15,-20,1,-22,3,2,-1
11450,6,8,-13,1,11,-13,-1,8
11455,-1,-7,9,-11,14,12,2,-1
11460,-16,1,-5,2,-18,-2,-4,-14
11465,14,5,3,-2,-5,-4,-2,1
11470,11,4,6,1,-16,-18,-6,8
11475,-18,-31,-21,-8,31,1,-1,-5
11480,24,-5,3,2,-14,8,3,10
11485,-14,25,-9,-4,55,3,-5,-19
11490,-3,-12,-3,-4,-27,-9,-2,-4
11495,10,20,17,2,-13,-7,-3,2
11500,-13,-22,-11,-1,-5,0,0,0
11505,-11,34,-1,-6,2,-6,-7,2
11510,-3,30,13,3,-23,3,6,8
11515,3,-41,-10,-6,-9,-4,-9,-15
11520,19,13,-1,3,38,-1,-1,5
11525,-17,-28,-11,-13,-39,0,-4,-1
11530,12,45,7,1,12,3,0,-4
11535,-14,-26,14,-1,-6,1,2,4
11540,-13,30,-28,-3,-5,-2,-1,5
11545,24,-34,28,5,1,5,9,-1
11550,-10,-24,-23,-1,20,-2,-10,-13
11555,-5,-1,13,-3,-8,3,0,0
11560,10,1,0,5,-8,-17,-5,-1
11565,-30,-9,-2,-3,25,12,5,8
11570,5,-8,27,2,-37,-2,-1,-1
11575,-5,52,-5,4,7,-18,-5,-6
11580,4,-67,-13,-2,14,31,6,8
11585,6,7,13,7,11,-6,-3,-2
11590,-3,-9,-1,-19,-27,0,1,-2
11595,17,15,5,12,-47,-9,-3,-8
11600,-7,7,12,1,1,4,3,-3
11605,17,-46,-1,-1,-8,1,-2,9
11610,-8,-4,-12,6,27,1,-2,-18
11615,-9,-1,-5,-4,7,5,1,-5
11620,5,0,-2,-3,-11,-3,-1,2
11625,-10,-1,-14,0,3,-6,-5,-6
11630,-9,-12,18,3,-10,-2,2,11
11635,-4,-5,-19,-8,-3,4,-1,3
11640,-13,11,1,0,33,-2,2,5
11645,19,18,-8,5,-29,-13,-5,-7
11650,7,2,-19,-2,35,14,1,-2
11655,-5,-2,-3,1,24,14,5,-1
11660,-22,39,22,0,-22,-8,-1,11
11665,-3,-38,-10,-6,-27,4,5,-4
11670,6,7,-1,-8,1,0,-5,-7
11675,-11,-26,-2,-3,-14,-9,0,2
11680,16,55,8,9,-12,-9,-8,-8
11685,-14,7,-13,-11,35,11,2,1
11690,7,-16,13,5,-5,-3,1,5
11695,-9,-37,-9,-5,5,11,4,1
11700,-6,-12,5,3,-25,-9,-2,5
11705,6,14,-5,-4,28,-4,-3,-4
11710,18,15,14,6,7,14,4,-10
11715,-3,-6,1,1,4,1,1,8
11720,-2,-69,-12,-4,-11,-9,-8,-18
11725,-30,-3,-2,12,3,-9,-3,2
11730,16,59,10,-7,6,9,3,10
11735,-6,-41,-9,-2,-3,5,-3,-16
11740,17,-5,10,-4,6,2,1,-3
11745,-15,1,-4,5,-17,-5,1,8
11750,-16,-34,-6,-11,-10,-6,-2,12
11755,14,39,12,2,10,-8,-1,-2
11760,0,10,-18,-3,7,4,0,-2
11765,-10,11,11,-5,-7,-6,0,-2
11770,22,-2,-16,-2,-28,-2,-3,-7
11775,-3,16,34,1,29,4,-1,5
11780,-8,15,-14,-7,-11,0,3,0
11785,-7,21,-13,-3,-7,-4,-2,3
11790,-3,-27,-29,2,-25,-20,-5,-12
11795,-4,13,2,1,41,8,-3,4
11800,9,7,11,-2,19,2,-1,-9
11805,-7,5,10,-10,-27,0,-4,-3
11810,-9,10,6,3,-7,-3,1,13
11815,-22,13,-4,4,4,-9,-3,-7
11820,34,-76,-20,-12,6,0,0,-3
11825,4,17,2,1,12,11,-2,-11
11830,6,-14,12,6,9,-4,6,17
11835,4,14,9,-2,-8,3,-1,-1
11840,-12,-24,-7,-4,0,-2,-3,-1
11845,-12,-17,-22,2,0,0,3,5
11850,10,-10,-1,-5,-3,-4,-4,-15
11855,-14,4,-6,0,-12,-5,1,0
11860,3,27,16,5,-13,-1,3,7
11865,-7,-4,15,2,-16,-8,-10,-23
11870,-35,-6,-24,-7,31,4,1,7
11875,16,-24,4,-4,-52,2,2,-6
11880,-7,74,-12,5,14,-4,-4,-5
11885,29,-29,19,-12,13,9,4,10
11890,-22,34,15,12,-19,-17,-7,-20
11895,-2,12,0,-2,7,11,1,0
11900,12,-1,-8,-1,4,6,7,19
11905,-3,31,2,1,-19,-8,-3,-15
11910,1,-15,3,6,20,-5,-1,15
11915,8,-12,-13,-8,-16,8,-1,-6
11920,-19,-13,24,0,4,-4,-2,-5
11925,6,-6,0,12,35,5,2,1
11930,15,12,3,-9,-51,9,1,0
11935,5,16,4,3,-5,-15,-6,3
11940,8,21,-19,-5,30,8,0,5
11945,-17,-59,26,1,19,0,-1,-7
11950,-2,6,10,-1,-12,3,2,0
11955,6,9,1,4,2,-9,-4,5
11960,8,0,-8,-6,-24,-3,-2,-8
11965,-10,-4,-7,-5,9,-4,-2,-3
11970,-2,44,-7,4,28,5,5,24
11975,0,-47,-15,-4,-11,4,-6,-23
11980,-11,-11,18,-2,-10,2,3,5
11985,8,30,-6,6,-46,-7,0,4
11990,2,-14,13,-7,46,8,-1,-2
11995,3,14,-7,4,10,-16,-4,3
12000,-7,-23,7,-10,0,15,1,-4
12005,-3,5,4,3,-22,3,-2,3
12010,-21,-20,-39,-8,18,-2,-4,-5
12015,22,18,-1,-6,-17,-9,0,-3
12020,-9,-55,4,12,9,0,-6,-23
12025,22,33,12,-6,19,0,-2,14
12030,-20,-35,-10,-1,-6,-6,-4,-20
12035,-3,2,-5,-1,4,1,5,20
12040,10,18,-13,2,-22,-15,-5,0
12045,-1,-53,-28,-8,-1,8,3,-5
12050,-5,-11,-2,4,6,-6,-1,0
12055,-3,13,2,0,-6,-3,-2,-6
12060,-5,5,3,-4,-8,-6,0,6
12065,-3,0,-24,1,4,7,1,4
12070,-8,2,5,-13,-22,-2,-3,-8
12075,2,-3,8,6,30,6,2,-2
12080,-1,26,-2,-6,-12,-2,-1,2
12085,4,-25,2,3,2,-12,-4,-3
12090,7,-13,0,5,-2,-3,-2,2
12095,-33,15,6,-6,-13,16,2,-11
12100,10,-7,-7,2,8,-8,0,10
12105,-1,15,-27,-7,-9,-9,-1,-4
12110,4,-50,14,5,11,5,-2,-11
12115,1,4,-2,1,-14,-6,-3,10
12120,-1,-7,-5,0,8,0,0,-8
12125,-2,16,14,3,-19,4,1,2
12130,4,36,-12,4,15,2,4,2
12135,-12,-17,10,-7,-4,6,2,12
12140,27,6,-14,-2,7,3,-2,-13
12145,-6,5,-3,3,18,0,-3,-7
12150,6,10,14,-1,-24,-12,-6,-2
12155,-6,-15,8,7,0,-4,-1,8
12160,-32,52,2,-3,10,12,3,7
12165,28,-12,2,3,8,2,4,-11
12170,3,-2,-4,-4,-19,5,-1,-6
12175,-12,-34,-1,2,4,-2,-6,-6
12180,9,3,-2,1,-6,-11,-3,4
12185,-25,19,-4,1,-3,-9,-3,-1
12190,15,-48,-3,2,9,15,6,6
12195,16,16,-15,-10,-2,-1,2,1
12200,-27,-25,4,9,4,-3,-2,-6
12205,13,-3,-2,-9,-15,-2,1,6
12210,-5,8,18,1,-19,-9,-5,-11
12215,14,19,-22,-2,18,1,4,11
12220,-9,-56,-12,0,3,0,-6,-16
12225,-32,16,0,-2,2,1,-2,-3
12230,13,2,-1,5,2,-2,0,7
12235,-2,4,18,-3,-38,-12,-8,-10
12240,13,-7,5,-5,26,6,3,1
12245,8,16,4,1,8,10,3,9
12250,-12,10,2,0,2,-1,-4,-5
12255,6,17,-9,4,-33,-15,-5,1
12260,-2,-13,13,-4,-32,4,1,-1
12265,-5,-17,0,1,40,-1,-2,-4
12270,-15,28,-5,-6,17,6,1,6
12275,22,-31,-15,-2,-12,-1,0,-1
12280,1,25,12,6,-26,-13,-3,-7
12285,16,-2,6,-4,3,13,5,5
12290,-11,7,3,0,-14,-8,-4,-1
12295,-9,17,4,1,27,6,-1,-2
12300,-8,43,8,-5,-3,-5,1,4
12305,0,-26,-15,3,-5,2,-1,-7
12310,1,9,9,-4,-4,-1,4,3
12315,0,-9,-7,3,14,3,2,-3
12320,23,-1,-3,-1,9,4,1,11
12325,-8,-10,-5,2,-2,-4,-2,0
12330,1,16,6,-3,8,2,1,-3
12335,-13,-26,-5,4,5,-4,-1,-2
12340,-3,-10,-7,-3,3,2,0,0
12345,14,21,16,-2,-19,-8,-5,2
12350,2,-22,-12,-3,-9,-3,3,6
12355,-1,25,3,-1,12,-5,-5,-12
12360,-7,-11,2,-3,4,5,0,0
12365,1,-72,-8,0,-1,-7,-1,8
12370,-6,25,0,0,-22,-3,-1,8
12375,-21,-8,5,2,27,8,-1,-23
12380,-7,10,-11,1,-19,6,2,3
12385,5,19,19,-3,19,4,3,1
12390,18,-5,-16,-1,-10,-1,0,1
12395,4,-4,-5,-2,1,-9,-3,0
12400,-18,0,-3,5,2,0,1,-1
12405,-8,-1,14,4,-28,-2,-2,-1
12410,15,12,1,-7,22,0,0,3
12415,-3,-10,21,1,4,8,3,0
12420,15,23,-10,-4,-4,-2,0,-2
12425,-19,-15,-2,-2,-7,-3,-1,3
12430,-10,-13,-22,-3,-7,-2,1,-3
12435,7,-7,3,-1,-3,1,-5,-14
12440,5,-3,12,-3,6,-1,-1,9
12445,-6,24,4,3,-8,-1,-2,-7
12450,8,-27,-3,4,2,0,-3,-6
12455,-7,-6,-11,-12,-1,0,-3,3
12460,-6,-10,-15,3,18,-2,1,1
12465,12,27,-20,-1,-21,-1,-1,1
12470,-31,-9,24,-3,19,1,-1,-7
12475,15,-2,-22,-7,-18,-5,-2,0
12480,12,-7,6,2,-16,-1,-2,-5
12485,-3,-22,-14,-4,37,-2,-1,5
12490,-6,24,-8,4,-12,-7,-2,-12
12495,-20,-31,28,-1,-12,2,1,0
12500,12,6,11,1,16,11,4,0
12505,15,11,-16,0,0,-7,-4,14
12510,-11,-22,-9,-8,0,0,1,1
12515,12,23,8,1,-3,-1,-4,-3
12520,-12,-28,10,2,1,-6,-1,-2
12525,6,25,11,-3,-14,1,0,1
12530,-16,2,5,3,-14,-3,0,0
12535,14,7,-6,5,13,0,-1,5
12540,-20,-11,-15,-5,1,9,1,-7
12545,22,6,18,-1,-11,-5,-2,1
12550,-17,-14,-32,-3,12,-4,-2,7
12555,-5,17,9,3,-5,5,-1,-22
12560,13,23,8,4,-8,-12,-2,-2
12565,-20,-12,2,-8,14,8,0,-8
12570,18,-9,-19,-5,-12,0,-1,6
12575,-10,5,-1,-1,7,1,4,15
12580,4,1,-11,5,-37,-9,-2,-5
12585,-9,12,1,-1,9,4,-4,-12
12590,4,-13,22,1,22,0,-1,-2
12595,8,3,-10,-9,-18,-1,1,12
12600,-13,8,1,-5,5,-5,-3,-4
12605,11,-6,-20,2,-23,-8,-3,-5
12610,-5,-1,-10,-3,-14,0,2,10
12615,11,-11,-9,0,26,0,-4,-22
12620,-4,7,-1,2,22,0,-2,7
12625,0,16,26,4,-4,-2,2,-3
12630,9,11,-13,5,-1,-2,-1,-3
12635,-4,-16,-9,1,-16,-5,-2,7
12640,-1,26,3,-8,-3,3,2,3
12645,-12,-36,-10,2,15,3,3,3
12650,-14,-4,16,-4,7,-1,-13,-35
12655,10,7,4,0,-2,-3,3,11
12660,-1,-23,-12,3,-49,-19,-10,-5
12665,-3,12,-6,-5,51,16,6,9
12670,3,-9,-1,-5,5,6,0,1
12675,5,35,15,5,-21,-11,-2,-4
12680,-6,-24,-15,-14,38,2,-4,-4
12685,-9,17,5,-7,-43,-5,0,3
12690,18,36,8,4,-7,-2,2,-3
12695,-4,-26,6,1,14,6,0,-4
12700,7,-27,-3,2,3,-3,-1,7
12705,-12,-6,10,1,-16,-8,-2,-10
12710,-6,-6,-19,-7,14,2,0,1
12715,-3,47,19,-2,-21,-1,0,9
12720,-2,-72,2,4,14,10,4,-4
12725,-13,-10,-33,-2,-7,-7,-4,9
12730,6,-27,9,-3,-21,-6,-2,-5
12735,3,10,0,2,8,4,0,-5
12740,-3,-21,-6,-1,21,15,3,2
12745,-4,-9,2,7,25,-3,-1,-7
12750,-1,-10,3,-3,-35,-1,0,8
12755,-8,-13,-5,2,12,10,6,19
12760,-13,34,-5,-1,4,-6,-4,-21
12765,21,-1,7,-5,-13,-5,-4,-3
12770,-5,19,21,14,-5,-5,-4,8
12775,4,-31,-3,-12,29,1,-3,-10
12780,2,39,7,8,2,6,3,7
12785,-1,1,-16,-5,-1,-1,-1,-3
12790,8,55,28,4,2,0,1,5
12795,-16,-59,-31,-10,-27,-6,-4,0
12800,-7,4,12,5,8,5,3,3
12805,3,-18,0,1,66,-6,-1,9
12810,-1,20,11,-8,-8,14,8,-2
12815,6,23,14,6,-13,-7,-7,-17
12820,-12,2,-33,-13,-23,-7,-5,-6
12825,-2,9,13,6,-12,6,4,-1
12830,2,-35,-3,0,-11,-9,-6,1
12835,2,22,6,6,43,5,5,14
12840,5,-5,-15,-10,-8,-4,-6,-4
12845,-5,6,17,-5,-19,0,-1,-9
12850,-1,-10,-9,-3,0,1,0,-1
12855,-13,14,5,4,-17,-2,-1,-10
12860,16,59,11,8,7,-6,-1,10
12865,-4,-8,-1,-7,-15,-8,0,4
12870,1,21,-5,3,14,9,-1,-11
12875,5,-8,-28,-7,4,-1,2,-2
12880,5,9,11,10,13,-5,0,0
12885,-4,25,0,-11,-32,0,-5,-12
12890,-4,-16,4,2,3,-3,-1,11
12895,-3,8,2,4,-15,-14,-5,7
12900,11,-22,-27,-12,38,20,4,-8
12905,0,-46,-16,2,0,3,-2,-6
12910,-11,-12,-9,-7,-48,-9,-1,-2
12915,-2,-1,3,-2,19,4,2,3
12920,-6,9,9,3,-12,-9,-3,3
12925,-2,18,-2,4,-7,-3,0,11
12930,4,0,4,0,-12,-9,1,-10
12935,11,-10,-3,4,48,17,2,-4
12940,-5,-7,-8,-8,-36,-3,-2,-1
12945,-17,11,4,0,1,1,-3,-7
12950,6,27,4,-3,8,-2,1,9
12955,-4,-5,21,1,-24,-9,1,1
12960,3,-33,-15,0,3,0,-1,-1
12965,0,44,0,9,-2,-6,1,15
12970,-6,-36,-23,-8,-6,-13,-6,-21
12975,2,-7,-9,-5,-6,25,6,6
12980,4,16,14,-1,-21,-10,-5,7
12985,-7,-59,-5,1,0,0,-2,-1
12990,6,8,-9,4,6,0,-1,-4
12995,-9,11,-6,-5,-12,-5,-2,-3
13000,-6,-2,12,4,15,2,2,1
13005,1,-2,-4,0,-15,0,-1,-2
13010,-1,7,6,2,13,7,1,7
13015,36,25,0,8,-28,-20,-4,-6
13020,-15,-42,-1,-10,35,22,3,-2
13025,5,22,-16,0,7,8,-2,-13
13030,-9,-6,-7,-2,21,4,-3,-1
13035,-11,4,-11,-4,-21,-13,-2,7
13040,4,10,8,4,-21,-15,-3,3
13045,10,-5,1,4,6,4,2,-2
13050,-8,-16,4,-10,-22,-1,-2,0
13055,-34,-14,-4,7,30,-6,0,5
13060,18,45,17,-1,-10,8,6,1
13065,21,-15,-7,-2,13,14,2,0
13070,2,30,12,4,8,-5,-4,-9
13075,-2,-28,-24,-8,-17,-7,-7,-12
13080,-20,-16,-4,0,-2,-6,-1,3
13085,2,22,15,3,-6,-9,-1,-1
13090,16,2,-1,1,5,-1,2,7
13095,-17,4,10,-6,1,10,1,5
13100,-20,-13,-3,-2,10,-7,2,2
13105,46,53,10,6,-24,-1,-6,-21
13110,-44,-42,4,4,26,9,2,-3
13115,19,6,26,-1,16,-6,-5,-4
13120,-3,10,3,-4,-29,-3,-4,-4
13125,-17,-5,-13,-2,14,-6,0,6
13130,1,10,2,-5,-21,0,-2,0
13135,-9,-15,-7,6,20,4,0,-1
13140,18,13,5,1,-12,0,3,15
13145,2,-3,17,-1,4,4,-1,-19
13150,-2,-33,-48,-6,-5,-4,-3,10
13155,-4,-9,-8,-6,-18,-5,-4,-18
13160,5,-1,0,4,1,-7,-6,-7
13165,-15,-7,-7,-4,8,-2,0,4
13170,5,16,6,6,-1,-6,0,2
13175,-9,-12,9,-3,27,20,13,18
13180,37,-17,-3,-1,5,5,-2,-7
13185,-19,-2,-1,-1,-7,-8,-4,-4
13190,24,1,0,-8,-12,0,-2,-2
13195,-11,0,1,-1,-11,-4,0,3
13200,-16,-12,0,5,10,3,1,4
13205,-3,25,1,-5,-38,-17,1,16
13210,20,0,15,6,73,38,2,-29
13215,-2,-17,-25,-6,-40,-11,-7,6
13220,-7,33,-15,-1,2,-5,-3,-10
13225,-14,-50,-7,-3,1,-7,-4,5
13230,-6,25,10,3,-4,7,8,10
13235,7,1,13,0,-4,-2,-2,5
13240,25,18,-4,-3,-20,-3,-3,-2
13245,-7,-22,2,-3,28,17,4,-2
13250,0,6,7,8,-3,-17,-6,-4
13255,-30,-1,-8,-8,11,11,3,-5
13260,18,-2,9,-1,-38,-21,-4,11
13265,12,-28,-7,-4,21,5,3,5
13270,-26,-7,7,3,-5,-6,5,6
13275,17,11,2,4,-18,-10,-6,-11
13280,-22,-58,-15,-1,2,7,2,-3
13285,-4,27,8,1,25,0,-6,-12
13290,8,19,-28,-8,-5,-6,-3,9
13295,-3,18,2,-1,-12,-3,2,0
13300,11,7,9,-1,-10,-2,3,8
13305,11,22,-13,-2,13,-5,-7,-6
13310,-5,-14,8,2,-21,-4,-4,-6
13315,18,23,-3,-6,1,-3,-2,-6
13320,-24,-17,-11,-3,7,1,-4,0
13325,-11,-16,-16,-5,1,-1,2,-2
13330,16,16,-3,-7,-5,-1,-3,-4
13335,-6,0,-6,3,11,-1,-1,-7
13340,7,10,12,4,-4,-15,0,17
13345,-39,11,8,-9,-29,17,-1,-28
13350,13,-25,2,-6,18,-4,-5,-3
13355,3,22,4,1,-7,4,2,8
13360,-20,-49,-4,2,34,-3,-3,-12
13365,16,47,10,5,-5,-4,-1,5
13370,3,16,11,1,-17,1,3,3
13375,-3,-12,3,0,2,3,-2,-3
13380,-3,10,-13,-3,0,-5,-4,-6
13385,-5,-15,2,-6,-4,2,4,18
13390,-7,-16,-10,-1,-2,3,-3,-14
13395,13,4,-8,-1,-11,-8,-3,12
13400,-1,0,-6,2,-10,3,-1,-5
13405,10,-14,-1,-4,18,-8,-3,-4
13410,-10,-21,-28,1,-14,-2,-3,-3
13415,-9,-2,-3,6,30,6,1,-2
13420,6,34,10,-13,-24,2,4,9
13425,3,-40,15,10,-20,-8,-4,2
13430,8,-6,-17,-2,26,1,2,10
13435,-8,-8,-11,-3,-6,-1,2,3
13440,0,9,-6,1,15,1,-3,-21
13445,-6,28,10,0,3,-4,1,-1
13450,2,-19,11,3,10,7,1,9
13455,-5,-18,-8,-4,-7,1,-3,-7
13460,5,-6,6,4,28,5,1,10
13465,-2,-9,-15,-3,-31,-7,-1,-1
13470,6,22,14,-1,-9,3,-2,-15
13475,1,-26,-1,-5,21,2,-1,2
13480,-23,5,8,-2,-20,-4,-2,-3
13485,9,-13,-2,3,30,4,-3,1
13490,-6,1,-28,4,-1,-9,2,11
13495,12,29,13,0,-3,1,-4,-8
13500,0,-2,-9,-12,-3,3,-1,-13
13505,-4,10,-5,1,-10,-5,0,10
13510,1,10,22,-6,1,0,2,9
13515,-15,3,6,-3,-8,-10,-4,-9
13520,5,-7,-8,5,31,0,-4,-4
13525,0,9,11,5,-29,14,5,-2
13530,-2,-15,4,3,24,2,0,6
13535,25,53,7,-6,7,7,0,-3
13540,-14,-51,-19,-9,-2,-4,-3,-4
13545,-5,27,-4,-7,-20,-11,-4,-2
13550,13,-34,6,9,1,-2,-3,-9
13555,-8,-9,-25,3,-4,4,2,-1
13560,10,29,13,8,10,1,1,1
13565,6,12,3,-13,-3,1,-2,13
13570,-19,-3,-5,-7,-24,-8,0,-3
13575,0,17,11,0,9,-11,-6,-20
13580,-1,-35,3,5,-14,15,5,4
13585,-8,-35,-7,2,20,-1,-1,-2
13590,-6,23,16,1,-15,-1,0,7
13595,7,-15,-5,-4,-13,1,1,-2
13600,-2,-49,-2,4,3,-7,-5,-8
13605,-19,29,7,-10,18,5,1,-1
13610,21,-21,-14,1,-7,11,2,-8
13615,-23,-9,-1,-2,-11,-2,4,12
13620,19,54,13,4,41,-3,-2,0
13625,0,-25,-24,7,-44,-8,-1,0
13630,-10,3,18,-10,11,2,0,1
13635,-1,3,2,9,53,5,0,7
13640,-10,-6,-14,-18,-48,-5,-1,2
13645,8,-27,-7,3,-9,0,-2,-23
13650,-2,47,14,0,10,-6,-2,1
13655,-18,-23,-4,-5,-16,-6,-1,6
13660,14,0,-6,4,4,-1,-1,3
13665,5,4,15,0,5,-4,-1,-6
13670,-17,4,-14,-7,-21,0,-3,-19
13675,22,3,7,1,-7,-3,-2,2
13680,-11,-37,-4,1,9,4,1,7
13685,5,27,-3,-1,-10,-9,-7,0
13690,-18,-3,15,-3,37,4,4,10
13695,15,-7,-8,-3,-20,7,1,-8
13700,-6,4,7,4,1,-7,-2,-3
13705,3,12,-25,0,-1,8,1,5
13710,-18,-22,-8,0,-5,-8,-4,4
13715,20,37,9,-7,18,-4,0,1
13720,-1,-35,5,-5,-11,7,-1,-18
13725,-11,-2,11,2,-10,-8,-2,-1
13730,12,-6,-16,0,9,-2,-5,-5
13735,-8,-7,-2,-2,-22,-7,1,6
13740,-15,28,-8,1,-5,-5,-3,-2
13745,17,-8,9,-3,24,4,0,1
13750,-10,9,-16,-7,-19,-2,0,-4
13755,-15,-32,12,3,4,2,0,4
13760,-2,21,0,3,-7,-4,-3,-14
13765,4,-16,-2,-7,16,3,-1,3
13770,12,12,6,4,-10,-4,2,14
13775,3,-1,-12,-3,21,-8,-5,-14
13780,-14,16,-1,-1,-21,4,2,12
13785,0,-19,1,-2,-6,-5,-1,-12
13790,8,-11,-9,-4,22,0,0,-4
13795,-8,2,12,4,-19,-8,-1,4
13800,-4,-5,-20,-6,-20,5,2,2
13805,-1,0,3,13,56,12,5,9
13810,-4,-4,2,-2,-42,-8,2,12
13815,16,-1,-11,-1,0,6,-3,-15
13820,3,26,30,0,8,-6,-6,-8
13825,-21,-54,-10,1,14,10,1,3
13830,7,8,-1,-2,-15,-10,3,15
13835,-3,-7,-8,2,3,3,-4,-8
13840,6,9,10,6,9,-2,1,-5
13845,5,31,-8,-9,2,1,-1,1
13850,7,0,3,-2,6,-5,-3,6
13855,-20,-18,-3,-2,-23,2,3,-1
13860,11,8,-5,1,1,-8,-5,-5
13865,-22,33,11,5,10,4,2,1
13870,22,-29,-21,-7,-19,-9,-7,-10
13875,9,25,8,-2,-2,0,2,10
13880,-24,-17,-25,-3,-12,-9,-2,3
13885,7,-20,-2,0,-20,-6,-7,-15
13890,-4,3,10,10,22,8,6,12
13895,3,52,14,-3,6,10,0,-10
13900,10,4,1,-5,-11,-4,-1,5
13905,1,11,-5,-1,-4,1,0,7
13910,-9,-14,17,0,-7,2,-1,-11
13915,-14,-57,-15,-6,30,-8,-7,-5
13920,1,17,-2,5,11,4,5,1
13925,16,17,6,-2,-15,-10,-4,-1
13930,5,-4,16,4,3,8,-1,-4
13935,-8,-14,-30,-2,-34,-9,-4,-4
13940,-20,-4,15,-3,33,7,2,5
13945,16,-13,-4,-10,-12,1,-1,-9
13950,-16,16,14,2,-15,-4,-4,-13
13955,11,-3,-4,0,19,5,1,4
13960,6,-6,-11,3,27,-4,-3,11
13965,-13,-11,-1,0,-52,-11,0,-6
13970,4,3,-19,-9,39,13,0,-5
13975,7,52,14,-7,-14,3,-1,0
13980,5,-14,1,-1,18,2,-1,-1
13985,-9,-5,-1,1,-5,-5,-3,-3
13990,-20,-7,-18,2,-1,-4,-1,3
13995,12,-5,3,7,-17,-18,-2,-11
14000,6,13,8,-4,0,8,-1,-8
14005,1,-43,-14,-5,-14,-4,1,9
14010,13,14,-9,-7,-3,3,-2,-3
14015,-10,-19,-2,1,-4,-5,1,13
14020,-13,0,17,0,-43,-8,-2,1
14025,13,9,-14,0,37,4,-1,-11
14030,-12,3,1,-5,1,-1,1,1
14035,8,-18,18,0,10,1,-1,12
14040,-10,16,-22,0,-2,3,2,-13
14045,11,14,18,-3,-12,-11,-3,6
14050,-14,6,0,3,16,11,-1,-9
14055,17,-10,-9,2,17,16,4,3
14060,-10,-4,6,12,-5,-3,-2,1
14065,5,24,3,-5,7,3,4,14
14070,15,-38,16,6,-11,-8,-4,-7
14075,-16,10,-25,1,-23,-7,-2,1
14080,0,15,26,0,-10,11,4,1
14085,-10,-7,-14,-4,27,5,-1,1
14090,15,3,-11,3,-11,-16,-4,0
14095,-5,-10,17,0,-2,13,3,-13
14100,-15,9,1,-1,29,-8,-1,4
14105,11,38,-2,1,-7,1,-1,-9
14110,-4,-8,-9,-7,-20,6,5,4
14115,-21,-41,-7,1,-2,-9,-2,3
14120,16,-1,-6,-2,-4,-10,-7,-5
14125,-12,21,-4,0,-7,5,0,6
14130,17,23,4,4,10,-4,-3,-2
14135,-6,9,-2,-7,-2,-4,-2,0
14140,6,-10,-16,-4,-24,-1,4,5
14145,-8,25,12,8,11,-7,-5,5
14150,0,-10,-19,-10,19,13,2,3
14155,-9,-4,-4,6,-21,-5,-5,-26
14160,10,9,2,-14,4,-7,-1,9
14165,-10,-39,8,4,-10,-1,0,-7
14170,21,7,23,2,-11,-1,-2,-1
14175,-6,-29,-18,0,48,-12,-7,14
14180,-13,-17,-8,-1,15,16,3,-15
14185,14,-3,1,-9,-48,1,1,6
14190,-8,19,15,0,-3,-9,-4,-5
14195,-10,-13,-23,-4,-5,-5,2,5
14200,17,10,2,6,6,2,0,3
14205,-1,-6,-5,-1,1,-4,2,6
14210,-32,-5,-9,3,-19,3,-1,-17
14215,14,-47,5,-3,-3,-4,-5,1
14220,0,-34,-23,-1,20,-15,-6,-12
14225,-13,-4,4,3,15,19,7,-1
14230,6,2,5,-4,-1,-10,-7,4
14235,-5,17,4,-1,-11,2,2,0
14240,-11,6,-5,-4,-15,-3,-1,-3
14245,18,-7,6,4,17,0,1,2
14250,0,-34,-15,-2,-5,-4,-2,1
14255,-8,38,46,-2,-6,6,1,-1
14260,1,15,-10,5,0,-7,-4,1
14265,-10,-23,-12,-7,-13,10,3,10
14270,0,19,-1,-1,-23,-12,-3,1
14275,7,-7,-4,3,35,15,-1,-31
14280,-1,-57,-16,-1,-11,1,-4,0
14285,-16,-1,6,1,-11,-15,-4,-3
14290,4,7,15,-7,32,0,-3,2
14295,3,48,-24,3,-13,7,7,12
14300,9,12,11,-4,-4,-7,-5,-6
14305,-6,-28,-7,0,13,0,-4,-10
14310,-11,7,-11,0,-15,6,2,2
14315,14,22,21,1,-18,-8,-4,-1
14320,-10,-3,0,-8,15,4,3,2
14325,6,-11,-1,0,6,1,3,5
14330,6,-4,13,7,21,-3,-1,-2
14335,-24,-5,-1,-11,-24,2,0,-5
14340,19,-14,-1,1,-23,-2,0,10
14345,-17,-2,-1,-2,16,-6,-4,1
14350,-2,8,-50,1,-3,-2,-1,-6
14355,-11,-77,4,-3,-14,-4,-5,-3
14360,-6,9,3,-7,28,-2,1,-6
14365,9,64,27,6,-6,-3,-4,-12
14370,6,-73,-23,0,-9,-4,-2,2
14375,11,54,10,-3,3,8,3,19
14380,-25,-2,4,3,-22,-6,-2,0
14385,18,-4,-8,-6,-6,4,2,0
14390,-19,21,12,5,30,2,-4,-12
14395,-16,-33,-21,-4,-12,-2,-1,-6
14400,19,2,27,-1,-8,9,5,12
14405,8,19,-12,3,23,3,-1,-1
14410,-3,4,-13,1,-8,-5,0,9
14415,10,-3,-10,1,4,0,1,5
14420,-9,39,-5,-6,0,5,-3,-13
14425,-8,-21,2,3,-19,-15,-5,-2
14430,-15,38,6,-4,6,5,1,-2
14435,26,-56,2,4,0,4,0,4
14440,2,9,2,4,12,-5,-1,-1
14445,-7,-14,-12,3,1,-6,-4,-9
14450,-3,16,20,-6,-24,0,0,7
14455,1,35,3,1,6,-1,2,3
14460,1,-20,-7,5,5,-1,-1,-4
14465,-13,-26,2,-4,18,8,1,0
14470,33,46,17,3,10,9,2,-11
14475,0,-10,-6,-2,-10,-14,-5,0
14480,7,36,-14,6,-5,6,-1,-3
14485,-19,-41,17,-11,-8,3,2,3
14490,4,3,4,0,-1,-7,-5,-6
14495,0,24,4,-2,-5,6,-1,-14
14500,15,25,5,9,11,-9,-2,4
14505,2,-5,-11,-4,-22,18,7,16
14510,-21,-20,2,2,43,6,0,-7
14515,13,12,-3,-5,-17,-4,-3,5
14520,-35,-8,23,-1,-34,-9,-2,-9
14525,33,17,-8,3,52,6,-1,-3
14530,14,-13,-8,4,-21,8,4,-2
14535,-16,15,0,1,16,-1,-1,2
14540,-9,-73,-8,-15,-12,-5,-2,5
14545,3,-14,-2,4,-15,-13,-4,-1
14550,-9,23,4,1,-11,-1,-1,-6
14555,-8,-6,-5,-3,42,2,-3,-4
14560,13,3,-9,-4,-1,5,-3,-10
14565,-6,-8,-10,-2,-10,-5,-1,-2
14570,4,-17,3,2,-19,-6,1,5
14575,-25,4,4,1,-25,-10,-1,7
14580,19,20,12,-6,14,12,4,4
14585,-11,-9,-28,0,-5,2,-6,-11
14590,6,21,16,-10,-7,-6,-2,7
14595,-2,1,3,5,-6,-5,-3,-4
14600,-17,-28,-2,1,-4,-2,1,3
14605,4,5,8,1,11,-9,-2,7
14610,4,18,5,0,-28,6,4,-8
14615,-5,-17,-18,-2,17,0,-3,1
14620,3,16,-1,-1,-5,-7,-3,-6
14625,-22,10,-4,2,10,5,0,1
14630,23,-20,-5,-9,20,9,4,18
14635,7,14,2,6,-3,-1,1,-16
14640,-3,-5,22,5,6,0,-2,1
14645,-6,19,-27,-8,-38,-12,-7,-10
14650,-41,-5,1,-4,20,-8,-3,3
14655,19,20,2,-7,-15,2,-1,-10
14660,9,-72,-19,-5,11,-1,2,4
14665,-2,27,14,6,7,-2,-5,-13
14670,-14,-3,-7,-4,-29,2,0,-7
14675,5,-4,10,-4,-12,-7,0,26
14680,-13,22,-3,5,41,13,-1,-28
14685,9,-8,9,-2,-6,-1,4,8
14690,-9,-31,-25,5,5,-1,-3,-11
14695,4,12,8,-1,-18,-8,-1,0
14700,3,-34,0,0,4,6,1,13
14705,5,19,-4,-1,-16,0,0,-2
14710,5,3,6,-6,24,1,0,3
14715,-25,-19,-9,3,3,-1,2,-3
14720,20,47,-4,-2,-5,-1,-3,3
14725,13,-49,20,2,-32,-2,3,10
14730,7,-2,-31,-5,3,-1,4,3
14735,-2,-3,5,-6,-22,-2,-5,-10
14740,-13,5,-12,-4,28,-7,0,0
14745,-4,-5,5,4,3,1,2,10
14750,-5,35,17,2,-26,-11,-6,-13
14755,7,5,12,4,39,6,4,-3
14760,-21,-25,-10,-4,-41,7,3,1
14765,24,-17,-13,-4,1,1,0,-2
14770,8,-14,-1,3,11,-1,-2,9
14775,-6,7,-6,6,3,-5,-1,-9
14780,-12,7,10,-2,-9,-6,-5,-3
14785,-3,41,-3,-3,-7,-3,-2,-1
14790,-16,-25,6,2,16,-1,0,7
14795,22,0,-22,-4,7,16,4,-7
14800,6,16,6,4,-4,-6,0,1
14805,-15,12,5,3,24,1,-3,-3
14810,-2,-10,1,-6,-33,-10,-3,6
14815,-2,17,5,-8,1,-5,-1,4
14820,13,-9,-16,3,14,8,-1,-15
14825,-6,31,-11,-5,-4,-6,-3,-4
14830,2,-9,23,3,-2,0,-1,-1
14835,3,-24,-24,1,-9,-5,0,14
14840,-5,17,-2,1,4,-1,0,3
14845,-8,36,14,-3,0,7,2,-11
14850,12,-29,-10,1,-7,-1,-4,-4
14855,4,1,-4,-4,15,0,-2,1
14860,-4,6,4,6,-13,-7,0,7
14865,10,-13,-2,-9,1,5,1,-2
14870,-22,30,13,10,33,11,4,-14
14875,10,-14,-2,-5,-5,0,-2,2
14880,0,18,2,-4,-6,-8,-4,-7
14885,-11,-37,-23,3,-12,-8,-1,1
14890,0,15,-10,-9,-5,2,-1,-3
14895,-21,-5,2,3,30,3,3,4
14900,-1,-11,-4,-2,-19,-5,-4,-6
14905,17,21,15,1,-13,8,1,2
14910,-4,-16,10,4,28,1,0,0
14915,10,-19,-23,0,-8,-3,-3,3
14920,-10,2,5,-4,-5,3,5,4
14925,20,41,-6,-2,-5,-6,-6,-14
14930,-11,-32,-9,3,-21,2,-3,4
14935,14,12,13,-1,25,4,2,-5
14940,-3,11,-11,-6,-14,-6,1,14
14945,-15,-26,0,-3,0,-10,-4,-9
14950,2,9,-4,-4,-4,8,1,2
14955,-6,0,2,1,-5,-6,1,2
14960,-4,-11,6,0,-5,4,3,-1
14965,6,-1,4,4,22,-9,-3,5
14970,5,23,9,-3,-80,-1,4,5
14975,-6,-12,-22,3,60,7,-2,-10
14980,10,-19,-3,-3,-3,-1,-4,-3
14985,-27,-7,11,3,4,3,-2,-5
14990,13,-2,-10,-6,-9,-9,-4,0
14995,-18,12,15,0,-18,4,0,4
15000,21,22,3,1,-15,-8,-1,1
15005,-12,-42,-14,-4,12,5,1,-2
15010,9,4,-7,-5,4,-1,-3,-1
15015,-21,-25,14,-5,-12,-2,0,-3
15020,6,33,-4,-1,10,1,-4,-4
15025,-10,-70,12,5,-5,-3,-1,3
15030,-7,13,-11,-6,9,-2,-1,-1
15035,18,13,3,-2,-8,-7,-3,-7
15040,3,-35,6,3,-1,5,-1,2
15045,1,8,-21,1,12,7,3,2
15050,-26,23,13,7,3,-5,1,-3
15055,29,-18,-8,2,-37,-10,-10,-4
15060,-3,8,1,-7,15,11,1,1
15065,3,3,-4,1,29,11,4,-2
15070,0,-32,-1,-4,-4,-6,-2,-3
15075,-25,38,10,8,-12,-5,-1,1
15080,15,-7,-4,-5,-14,-11,-5,-9
15085,-9,-2,6,-7,-18,-6,-3,-2
15090,-19,-12,13,0,11,1,-3,-6
15095,28,17,-18,1,1,-1,1,14
15100,-16,-66,-18,-5,6,5,-3,-12
15105,-11,15,8,2,-9,-3,0,0
15110,18,34,-12,2,8,-11,-6,-1
15115,-28,-16,13,-7,17,0,0,-3
15120,30,23,-10,4,8,1,5,8
15125,8,-4,16,-8,-15,5,-1,-1
15130,1,15,-15,-1,4,-4,-2,-2
15135,-11,-18,-19,-4,-11,-3,-1,3
15140,-18,20,2,6,-22,-3,-3,-8
15145,5,2,0,-1,17,-7,-3,-1
15150,4,-11,0,-2,-12,1,-3,-1
15155,-7,29,25,1,-7,7,4,7
15160,-44,-81,-13,-6,6,2,-1,8
15165,42,23,1,-1,-21,-11,-5,-18
15170,-12,-8,11,2,28,1,-3,-2
15175,9,1,-1,1,-5,12,4,-2
15180,-4,30,12,1,-31,-11,-1,8
15185,-1,19,-33,-8,-5,-8,-3,11
15190,20,-30,-11,-4,40,12,8,12
15195,-5,3,-7,-3,-8,-1,-3,-18
15200,-6,13,8,4,-40,-10,-3,-7
15205,-15,23,10,-2,38,4,0,8
15210,18,-32,3,-2,-28,-13,-3,10
15215,-12,-26,-2,2,11,12,3,-13
15220,-8,40,-13,-4,3,4,1,5
15225,7,-58,2,2,-5,-7,-3,1
15230,16,23,7,2,9,8,3,0
15235,-18,-9,9,-2,0,-13,-6,-10
15240,5,8,4,-1,-1,-2,-1,2
15245,8,-7,0,3,12,3,0,-6
15250,-11,29,-3,-3,-4,13,6,7
15255,-3,-22,0,1,6,-5,-6,-3
15260,5,21,5,-4,10,-1,-1,-4
15265,-19,-4,-10,-3,-17,1,3,1
15270,3,5,8,3,-8,-10,-4,-1
15275,-13,-47,-8,-2,10,-1,-2,-6
15280,19,13,-3,-3,28,9,0,-3
15285,-12,7,11,8,-37,-3,1,3
15290,0,-7,-1,-5,35,0,-3,-13
15295,10,34,-6,7,7,5,1,7
15300,-1,-29,8,-13,-48,-4,-3,2
15305,-3,8,-12,-7,42,15,0,-6
15310,-11,-4,-1,2,-32,-16,-7,-7
15315,-10,22,-1,-1,7,3,3,9
15320,32,-8,3,2,22,4,2,1
15325,-12,13,3,1,-17,-6,-2,5
15330,6,6,-23,-4,-17,-2,-3,-9
15335,-2,-3,8,-5,1,-8,-5,-7
15340,-17,14,-4,5,1,-1,-2,1
15345,-13,-47,2,-2,-9,-1,-1,-7
15350,8,-22,6,1,13,-4,3,15
15355,14,50,3,-2,-25,0,-2,-6
15360,-7,-29,9,3,-3,-5,-2,-4
15365,14,42,18,1,9,5,2,9
15370,-12,-39,-3,7,4,6,2,3
15375,1,-20,-19,-10,-33,-1,-4,-15
15380,-22,13,3,-3,27,5,1,-4
15385,16,-32,-2,3,10,-6,-3,-2
15390,14,57,14,0,-12,-3,-2,3
15395,-7,-3,-21,-3,-29,0,3,12
15400,12,2,-4,-1,31,7,0,-8
15405,-26,-10,-13,-8,-26,-5,-3,1
15410,0,-11,-3,0,20,9,4,3
15415,21,19,28,4,1,-6,-2,0
15420,-11,-10,2,1,-6,3,2,-5
15425,7,9,0,-3,18,0,4,17
15430,-19,-6,-26,5,-22,4,1,-7
15435,4,-18,7,-6,12,-11,-7,5
15440,-4,-30,-15,-5,-40,-14,-2,-1
15445,19,30,23,8,33,13,0,-1
15450,7,16,10,-5,-10,-2,-2,-10
15455,-7,-30,-19,2,21,2,3,4
15460,-2,21,10,1,-9,-11,-4,5
15465,-15,18,2,1,0,-1,1,1
15470,4,-7,-5,-10,-8,-4,-6,-5
15475,4,-19,4,1,10,6,1,0
15480,7,-1,3,-2,10,-2,-2,1
15485,-22,-24,-7,-5,-45,-9,-4,-17
15490,1,20,8,-2,30,3,-1,1
15495,-6,-6,-8,4,20,-6,0,3
15500,9,13,1,5,-8,4,-1,-7
15505,-9,-19,-2,-3,8,11,5,5
15510,0,-19,-38,-3,-4,-11,-8,-22
15515,-6,30,0,4,-7,5,3,3
15520,-3,3,0,-3,-16,-6,-4,1
15525,14,-20,-7,-7,21,8,-2,-6
15530,-3,14,18,0,-3,2,4,6
15535,-3,-1,2,2,6,-3,-1,3
15540,14,22,-26,-4,0,10,1,1
15545,-10,-14,5,7,-23,-17,-6,-6
15550,2,-41,5,2,-15,-4,-1,3
15555,11,25,6,-11,1,8,2,-4
15560,5,1,10,5,7,-1,1,4
15565,6,20,-11,-7,1,1,-1,8
15570,-22,34,0,6,18,2,-2,-14
15575,14,-6,-8,-3,-18,2,-1,7
15580,-12,-21,2,-4,-6,-6,0,0
15585,-11,7,12,-1,9,-3,0,4
15590,2,-54,-19,-4,-4,2,-1,4
15595,-4,-14,1,10,-35,-9,-1,-5
15600,-7,-7,-17,-3,49,21,2,-3
15605,4,4,-3,1,-3,-3,-5,-6
15610,-14,11,14,-3,-20,-5,2,6
15615,18,36,3,-1,9,-4,-5,2
15620,15,-37,-6,0,-10,1,-4,2
15625,-8,-1,-8,-3,15,0,3,3
15630,-1,-3,7,1,-18,-3,-4,-2
15635,-28,-24,-2,-7,-4,-9,-4,-15
15640,4,60,9,2,22,4,2,7
15645,5,-5,7,0,-4,3,-1,4
15650,1,-4,-5,-6,-9,-2,-1,-16
15655,-17,-5,16,9,13,-2,-1,-10
15660,-3,3,-7,-3,-10,-9,0,5
15665,2,-8,-16,-3,-12,-9,-4,-7
15670,10,11,9,7,27,6,2,2
15675,-9,-10,-10,-6,0,6,2,4
15680,-2,-1,0,0,-22,-4,-3,-16
15685,9,21,5,0,2,4,1,4
15690,-4,-9,-17,-3,-7,-6,-2,3
15695,-7,-16,-1,2,29,0,-1,0
15700,-20,-24,2,0,-9,-7,0,1
15705,32,25,-4,4,16,9,0,-9
15710,-17,22,-1,-8,-10,-4,-4,1
15715,10,2,-2,0,-4,0,3,3
15720,-9,-13,-15,4,10,-5,-2,0
15725,-16,-12,27,-8,-35,-11,-4,-14
15730,7,1,-4,-3,16,1,-2,3
15735,5,15,12,5,-3,-8,0,7
15740,11,34,6,1,2,6,-3,-10
15745,2,-14,-2,-7,-6,-7,-2,2
15750,-15,1,-7,0,-27,1,0,-9
15755,7,-2,-13,-2,28,8,0,3
15760,-18,9,8,2,13,-8,-2,1
15765,8,9,-11,-2,-13,-7,-2,-1
15770,-8,-45,-4,1,-21,-1,0,2
15775,16,0,11,0,18,2,1,1
15780,24,-6,11,0,-2,5,2,10
15785,-22,-3,-2,1,-9,3,-3,-12
15790,0,2,1,-4,5,-9,0,12
15795,-9,-5,-3,-1,2,3,-2,-10
15800,11,-28,14,-8,-5,-4,0,5
15805,10,-3,21,9,24,-1,1,10
15810,-10,-22,-9,-1,4,0,-5,-16
15815,-7,-7,-16,-6,-22,2,2,7
15820,-9,21,9,3,-24,-1,2,6
15825,16,-18,-15,-5,5,-1,-5,-7
15830,-28,16,5,2,31,-7,-1,-6
15835,23,7,-4,-3,-19,6,0,6
15840,-6,3,-2,-3,0,0,2,3
15845,-8,-6,-16,-3,-14,-8,-3,-3
15850,6,4,4,2,13,-4,-2,0
15855,2,-9,-16,-6,-16,-5,-1,-4
15860,-12,5,8,5,6,8,-1,-7
15865,-5,-7,-16,2,8,-3,-1,7
15870,10,6,16,0,-18,6,5,4
15875,-9,20,1,2,16,-11,-8,-12
15880,10,-34,-16,0,16,4,3,0
15885,-11,9,-15,-9,-6,1,-2,-7
15890,15,-10,0,-3,-12,-1,-3,2
15895,-17,11,1,-8,-27,-8,-1,7
15900,-4,10,-11,4,24,-2,-2,-10
15905,7,-22,10,3,-28,-3,0,6
15910,16,7,17,0,17,11,4,15
15915,-8,21,-4,-3,-17,1,2,1
15920,9,-14,-25,-7,13,-11,-9,-15
15925,-4,3,6,6,0,5,5,-5
15930,4,0,-2,0,-7,-3,1,8
15935,-5,-1,36,7,-5,-5,-1,6
15940,3,-8,-13,-9,-20,1,1,-2
15945,1,17,2,4,9,1,-2,-7
15950,3,-31,-9,8,37,-7,-7,-13
15955,-4,-13,-12,-9,-8,11,3,-4
15960,-5,-8,10,-3,-20,-2,1,3
15965,0,15,2,-3,-1,0,-1,1
15970,-36,6,-6,0,20,1,-3,-1
15975,36,3,-7,3,0,-9,-2,-4
15980,-2,1,8,2,7,6,-1,-5
15985,-6,24,4,0,10,1,0,5
15990,-9,-3,10,-2,-20,3,2,10
15995,11,5,0,2,0,4,2,-7
16000,-6,6,-6,-2,10,-2,-7,-14
16005,4,7,10,3,0,-5,-1,4
16010,5,-10,-21,-10,-19,1,2,0
16015,-6,3,7,4,2,-5,-3,3
16020,1,-12,-28,-2,-20,-6,5,13
16025,-6,-1,4,-1,15,0,-7,-16
16030,20,20,1,1,-11,-8,-3,8
16035,1,-19,-24,-3,35,12,2,-3
16040,-7,14,15,3,-20,0,-3,1
16045,-18,5,-2,-4,22,3,1,6
16050,34,-1,-2,-8,-14,-2,0,-18
16055,-10,-3,7,4,-16,-11,-4,-5
16060,-3,-6,9,0,19,4,4,6
16065,-1,8,0,3,-10,-4,-1,2
16070,-9,-7,-5,-3,13,-1,-3,-4
16075,3,-18,-21,-1,-8,-7,-5,-10
16080,-3,-4,22,-1,7,7,3,4
16085,8,-13,-2,-4,-32,1,-1,2
16090,-6,-18,-23,0,7,-2,0,4
16095,-7,61,22,-6,29,-4,-4,-11
16100,-14,-20,3,2,9,-2,-2,4
16105,1,-24,-25,-4,-21,-6,2,17
16110,9,14,19,3,3,-2,-7,-29
16115,-7,29,1,0,-30,-3,2,10
16120,-5,-16,-10,5,16,-3,-4,-1
16125,-4,16,16,1,18,3,3,-5
16130,11,-18,2,2,-12,-2,0,0
16135,-9,-15,3,-7,-8,-3,-1,0
16140,0,18,3,-3,-15,-8,-1,-1
16145,-1,-36,-9,4,6,13,3,12
16150,-9,22,-13,3,-21,-8,-3,-14
16155,-11,-65,-11,-4,24,10,-4,-12
16160,-1,14,10,4,19,0,-1,12
16165,11,3,-6,0,-18,-3,-4,-23
16170,-2,19,9,-1,14,7,6,19
16175,4,-2,15,1,-14,1,1,5
16180,-4,-28,-19,-3,-6,-13,-5,-13
16185,-12,8,4,5,5,-1,4,11
16190,7,21,12,-6,17,7,-3,-15
16195,13,9,-3,4,-14,-3,1,5
16200,-12,10,6,-6,-3,0,-1,-11
16205,-5,-46,6,1,-6,1,-3,-2
16210,-3,-21,-24,1,-44,-15,-3,-1
16215,-8,11,8,1,34,12,-1,-1
16220,21,25,11,4,4,-4,-1,1
16225,-2,10,-5,-13,-10,-2,-2,-6
16230,-3,-9,15,0,-25,-3,2,8
16235,-17,-25,-29,0,12,3,1,2
16240,19,38,2,1,-9,-3,-1,-4
16245,-2,-51,-4,-4,13,-3,-2,-15
16250,5,5,9,-1,9,8,4,12
16255,-32,0,-2,2,-16,-15,-3,-5
16260,27,35,-9,3,-15,-2,-4,-2
16265,1,-11,-4,-4,25,17,7,18
16270,-9,4,1,0,7,3,-2,-19
16275,3,-22,-17,2,13,-6,-2,0
16280,-25,-19,-20,-11,-4,8,1,2
16285,9,20,0,3,-3,-18,-9,-12
16290,-8,12,17,6,8,5,2,12
16295,14,-26,4,-8,-29,-4,0,4
16300,-14,-27,-9,-3,12,3,-4,-23
16305,18,30,-3,-9,10,-9,-2,4
16310,-24,-5,-2,-2,1,11,3,-2
16315,20,28,12,18,-10,-11,-2,3
16320,20,-9,1,2,-16,-1,1,9
16325,0,-9,-8,1,-9,-4,0,1
16330,-8,-11,-8,-4,12,-9,-3,3
16335,1,12,-5,-16,6,15,-1,-15
16340,-10,7,11,-5,-61,-9,-1,7
16345,0,-19,5,9,76,14,1,-4
16350,-6,-10,3,0,2,3,4,16
16355,17,-31,-21,-1,2,0,-1,-10
16360,-10,-9,-7,-1,7,0,-2,-3
16365,-10,49,7,2,-34,-10,-3,-4
16370,10,-6,4,1,14,0,-3,10
16375,13,15,2,-1,7,6,2,3
16380,5,-41,-2,0,13,-5,0,4
16385,-4,14,-6,-1,-55,-5,2,6
16390,-9,-33,-5,7,58,-6,-8,-25
16395,-6,27,15,-3,-19,10,5,9
16400,-8,21,-4,-1,24,-1,0,13
16405,0,-33,-3,-3,-14,-6,-2,-11
16410,25,55,9,4,-45,-7,-3,-5
16415,-4,-1,-7,3,41,0,-2,-2
16420,-6,3,7,-3,20,8,2,2
16425,-14,-13,-26,1,-4,1,1,4
16430,8,10,2,0,-16,0,1,8
16435,26,1,-2,3,-10,-4,-2,3
16440,3,1,-31,0,-12,5,-1,-8
16445,-2,15,8,-2,13,-1,-5,-5
16450,-15,-2,-11,-11,0,-1,1,-5
16455,-13,20,10,0,-21,-7,1,11
16460,5,-9,2,-3,15,4,-1,-10
16465,13,-2,-7,-3,-2,2,-2,-19
16470,-6,9,-1,0,-9,-2,0,-2
16475,-18,-51,-13,1,27,-6,-4,-3
16480,-17,10,-1,-14,-18,2,2,8
16485,-7,0,0,7,5,-7,-2,-3
16490,-1,-16,9,2,-21,4,4,2
16495,15,22,-17,-7,13,-1,-3,-6
16500,-6,-18,9,5,19,5,0,-3
16505,0,14,6,-6,-13,0,-1,8
16510,-9,-14,-3,-3,-15,-6,-1,1
16515,-1,-2,3,-2,-38,-5,1,6
16520,4,11,-7,1,16,-2,-3,-14
16525,-10,-2,0,-6,-23,-3,-7,-2
16530,22,-4,-4,6,31,0,1,-2
16535,-13,0,1,-3,-6,2,-1,-3
16540,4,2,18,1,8,5,1,5
16545,3,4,7,2,-7,-1,3,12
16550,-15,-21,-15,-7,-1,-4,-5,-6
16555,-4,-14,14,-2,-17,-8,-5,-6
16560,24,6,0,10,18,-6,4,15
16565,-10,-6,10,-11,7,14,1,-11
16570,-1,32,-9,4,30,-3,0,-6
16575,-9,-19,-1,-7,-13,10,2,-2
16580,-13,-7,11,3,-22,-21,-6,-1
16585,18,-4,-2,-6,-15,6,0,10
16590,1,2,7,7,13,12,7,11
16595,5,10,-7,-10,-1,1,-5,-13
16600,1,10,3,6,0,0,-1,-10
16605,-8,-4,3,-2,-22,-12,-3,-3
16610,-5,-6,-15,-5,13,-1,-3,-1
16615,-7,-5,5,5,-5,-5,1,5
16620,5,8,-1,1,-5,-2,-3,11
16625,7,20,20,-5,15,9,3,-8
16630,13,40,-25,-7,-19,-8,-7,-9
16635,1,-34,-11,5,12,0,1,8
16640,-12,28,17,-1,-9,3,0,-9
16645,-12,-16,-8,7,25,-8,1,7
16650,11,22,5,0,-4,-3,0,5
16655,-13,2,7,-6,14,10,4,-1
16660,32,6,-3,-3,-22,-7,-7,2
16665,-17,-13,10,7,-8,1,-2,-9
16670,2,-32,-12,-2,6,5,-1,-10
16675,-2,15,11,5,-7,-9,-6,2
16680,-21,-22,1,-7,10,1,3,9
16685,15,9,-28,-4,1,-10,-4,-3
16690,14,18,19,-2,7,6,0,-2
16695,2,-39,-35,8,11,5,3,3
16700,-15,-8,11,-7,-19,-6,-3,-6
16705,15,7,-7,2,-21,-10,0,3
16710,-13,-33,7,-6,-16,-6,-3,-3
16715,7,59,3,2,27,4,2,7
16720,0,-4,-2,-2,-12,4,-1,-7
16725,1,-19,-14,-4,10,1,-3,-10
16730,-14,-7,10,3,-35,-11,-4,5
16735,9,24,12,6,-15,-7,-1,-2
16740,-9,13,-2,-14,15,12,1,-5
16745,-13,4,-14,2,-8,-4,4,4
16750,26,13,-21,-2,8,2,-4,-2
16755,-20,-52,-4,-2,-12,-11,-4,-8
16760,12,0,-13,0,-1,-9,-5,2
16765,0,11,28,2,-2,-1,0,11
16770,-12,-25,-3,-3,-27,1,1,1
16775,11,-8,-13,-7,46,-5,-6,-29
16780,-3,-7,12,2,-20,4,0,-4
16785,-4,20,6,-3,26,7,2,6
16790,-16,-49,-25,-5,-22,-7,-2,10
16795,12,-21,7,-9,9,-2,0,9
16800,-7,3,-11,3,8,3,0,-8
16805,-12,-3,6,9,3,-9,-5,7
16810,6,20,18,-6,-9,12,6,-7
16815,12,-16,-26,-1,-16,-6,-4,6
16820,-3,16,-5,3,13,2,1,-4
16825,3,-4,0,-2,-3,-8,-2,-4
16830,-22,3,7,5,-5,-4,1,4
16835,18,13,25,1,-22,7,6,15
16840,3,10,-27,-5,45,6,-2,-13
16845,7,4,-6,0,-23,2,-4,-10
16850,-2,3,5,6,9,-15,-6,-3
16855,-16,30,22,2,3,12,2,-7
16860,2,-27,-8,-10,-10,2,2,13
16865,-12,-3,-3,4,-40,-4,-2,-15
16870,12,18,-8,-1,35,11,3,1
16875,2,3,-34,-1,-22,-8,-3,13
16880,10,-16,6,-2,-12,-10,-5,-5
16885,-4,-10,14,-3,13,3,-6,-18
16890,-2,27,2,3,6,-5,-1,0
16895,-14,-55,-5,0,27,11,2,4
16900,-8,-15,2,-1,-21,-2,-2,3
16905,35,-10,-21,3,13,4,3,6
16910,10,20,-5,-4,-19,-7,-5,0
16915,-11,15,18,5,1,-15,-5,-15
16920,-3,-1,5,4,8,17,8,7
16925,-13,-23,-8,-5,9,-1,1,4
16930,-13,-5,-7,3,9,-7,-5,-7
16935,-5,26,6,-14,-31,2,0,5
16940,9,-57,8,2,-12,-10,0,1
16945,4,23,3,-2,8,6,-2,-8
16950,-14,1,4,0,-3,5,6,0
16955,8,8,12,7,-7,-5,-1,8
16960,-3,1,5,2,-12,-8,-6,-16
16965,-8,9,-3,-2,37,6,-3,-2
16970,14,-30,4,-4,-3,2,4,7
16975,-9,20,-4,6,0,-2,-3,-7
16980,-1,-30,3,1,-3,-4,2,12
16985,11,18,8,5,3,0,2,6
16990,-13,17,12,-11,2,5,-4,-11
16995,-7,-11,-19,-3,10,-1,1,-3
17000,6,0,-9,-2,-7,-14,-3,8
17005,-8,-7,2,-2,-26,-3,-1,-4
17010,11,-10,-1,-3,29,12,5,5
17015,-2,-12,8,1,7,-8,-1,-1
17020,-7,40,-2,-1,-5,6,-3,-9
17025,-2,-21,10,-4,-12,1,2,14
17030,-6,-22,-6,-3,-4,-10,-9,-18
17035,-1,-7,-15,0,-4,-1,2,5
17040,5,17,-1,4,28,7,-2,-9
17045,7,21,-2,-5,-7,0,3,9
17050,-8,-29,-1,0,-18,-6,0,5
17055,0,16,9,0,-5,-3,-4,-1
17060,0,15,4,0,35,7,3,-10
17065,-10,-37,-11,0,-32,-5,-3,0
17070,6,8,-5,2,70,2,0,11
17075,11,52,11,-9,-64,-4,-2,3
17080,-7,2,8,-3,-31,-6,-4,-14
17085,-8,1,-5,-1,46,7,-2,-5
17090,8,23,19,-8,-55,-3,1,4
17095,-43,13,-28,4,28,-6,-4,-11
17100,13,-49,-51,4,-11,-8,0,3
17105,2,-30,14,-8,27,15,3,1
17110,1,2,-15,4,-11,-1,5,6
17115,20,34,8,-3,8,4,-2,2
17120,-10,-63,7,4,10,-4,1,-2
17125,-19,30,-1,3,-28,-6,-3,-10
17130,21,-4,-6,1,31,9,1,4
17135,-12,-16,1,-9,-10,2,-1,-3
17140,5,17,11,-11,-35,-5,2,15
17145,3,7,-12,2,12,-5,-2,-2
17150,-17,-8,6,-5,-11,-9,-3,-5
17155,28,-16,13,8,-3,4,3,3
17160,0,16,-39,-2,22,0,-7,-4
17165,-5,-21,5,-6,-20,4,5,7
17170,9,18,6,-5,-4,-4,-5,1
17175,-22,-15,6,2,14,-11,-2,-18
17180,5,32,20,-5,9,1,0,13
17185,-2,-31,2,6,6,10,1,-5
17190,-4,-32,-15,-2,-33,-7,0,4
17195,-10,-16,-12,0,16,-3,-2,-7
17200,13,13,-5,-4,14,11,3,2
17205,1,-4,-11,-3,2,-14,-2,-1
17210,-12,-25,2,-2,-7,1,-4,0
17215,-8,8,13,-1,-11,2,-2,-5
17220,23,10,7,4,-10,-5,-1,2
17225,-3,11,-18,-2,15,3,3,5
17230,11,-4,-22,-1,15,-2,-2,-5
17235,-16,11,11,-4,-29,-7,-4,-12
17240,-24,-31,9,2,30,19,6,16
17245,10,64,16,-7,-9,-11,-6,-10
17250,-5,6,-20,4,4,-2,5,-2
17255,3,-27,-18,-6,0,6,-4,-2
17260,1,26,19,0,-15,-9,-3,-5
17265,1,-39,-19,0,-27,-5,-1,8
17270,-10,20,12,7,23,2,1,0
17275,5,-59,6,7,7,-2,-5,-9
17280,-6,7,-12,1,-24,5,2,-1
17285,14,10,7,-3,-2,-7,-5,-2
17290,-5,-3,2,1,11,6,1,2
17295,2,12,-2,3,27,9,6,8
17300,-14,0,4,-1,-25,-11,-4,-2
17305,-2,-12,0,-1,-12,-1,1,4
17310,9,4,-8,-4,24,-5,-2,-8
17315,-15,-4,21,5,27,4,3,6
17320,2,23,-6,-17,-43,-7,-4,-16
17325,-12,5,2,-2,-11,-9,-2,5
17330,17,14,9,6,39,4,-1,2
17335,5,-29,1,-9,-30,-3,-2,-1
17340,8,56,10,3,10,-6,-5,-7
17345,2,-41,-1,8,0,-2,3,2
17350,-9,9,14,0,-23,-1,-1,-1
17355,-1,2,-10,-2,-6,1,1,8
17360,18,11,6,1,19,2,1,9
17365,-2,14,-7,-4,35,23,-1,-12
17370,-7,2,27,-1,-18,-10,-7,-7
17375,-4,-6,-8,3,17,0,1,14
17380,-2,-15,-18,-2,-14,-1,0,-16
17385,8,5,-6,0,-4,-1,-3,-9
17390,-11,-6,5,0,-7,0,-1,5
17395,14,26,7,-1,-26,-4,-1,-2
17400,-3,-43,-10,4,53,-10,-2,8
17405,-13,-21,-12,-8,-40,-4,0,7
17410,-14,7,-30,4,12,4,0,-11
17415,21,17,5,-3,-13,9,1,-4
17420,-14,-10,-3,8,-1,-1,-1,-1
17425,13,18,2,-3,-17,-8,0,7
17430,-4,-12,-4,-1,6,-5,-3,-9
17435,-10,-1,-3,1,-12,-4,0,5
17440,-5,4,-1,-4,6,4,-1,-4
17445,-6,19,24,3,-2,-7,-5,-7
17450,15,-20,-1,-2,-21,3,0,5
17455,2,23,-1,-2,10,2,-3,-8
17460,-7,-6,5,-2,-4,4,4,2
17465,3,5,-10,5,12,-1,-1,-6
17470,-12,-16,-24,-4,-10,-5,0,-5
17475,15,-15,4,-1,-22,-9,-2,4
17480,-12,11,9,-5,6,2,0,5
17485,6,-8,-21,3,28,0,0,-2
17490,-14,-1,13,-3,-13,0,-1,-2
17495,12,-11,-22,-12,-24,-5,0,8
17500,8,23,15,5,22,-3,-2,-3
17505,-2,9,11,-2,-9,3,2,-1
17510,-8,-9,-9,2,-3,-1,-2,-7
17515,-5,-12,6,-2,5,4,1,0
17520,-12,9,-1,2,-18,-3,-2,-5
17525,7,12,3,-2,9,-1,-2,0
17530,14,-33,3,2,-32,-10,-4,10
17535,-9,-9,-2,-5,37,12,2,-6
17540,15,5,-1,-4,-5,-3,-1,1
17545,-12,8,-2,5,21,1,0,-8
17550,-37,-46,0,-6,-25,0,0,0
17555,52,20,3,4,1,-5,3,11
17560,-15,-33,-10,-5,-20,2,0,6
17565,1,11,2,-2,21,-3,-5,-7
17570,9,16,12,1,-13,4,-3,-12
17575,-16,1,-25,-1,30,-4,-3,-9
17580,-4,-5,-3,-2,-14,8,-1,-6
17585,9,-21,3,-3,-22,-7,2,15
17590,-7,6,8,0,-3,0,0,5
17595,-13,23,-4,6,24,8,-4,-21
17600,10,-52,-17,1,-18,-1,3,6
17605,-3,-15,-4,1,0,-9,-4,0
17610,1,17,-1,-6,29,10,0,-1
17615,-2,-11,10,-1,-19,-6,-1,4
17620,-23,5,-4,-2,8,1,-1,0
17625,19,-8,2,4,-19,2,-1,1
17630,-1,26,-3,-5,34,2,3,-3
17635,-7,-17,-14,-2,-33,-4,-3,-4
17640,3,28,12,6,17,-3,-3,0
17645,-2,-16,-5,-7,3,3,2,-6
17650,12,24,4,3,-12,-4,-1,13
17655,-12,27,16,-4,-2,-3,3,10
17660,-2,-27,-19,2,-14,-4,-3,-11
17665,-21,-10,9,2,24,-2,-1,8
17670,32,13,-9,-2,8,1,2,-2
17675,-15,-20,5,2,7,0,-3,-8
17680,21,2,2,-6,-20,4,1,3
17685,-33,18,5,0,9,2,-3,-7
17690,27,-14,-5,2,-6,3,-1,-13
17695,-13,11,8,4,-2,-11,-4,0
17700,9,3,0,-1,5,1,0,7
17705,-12,-9,-8,-9,14,10,2,3
17710,6,16,-3,3,-14,-7,-2,0
17715,-7,1,8,-5,-6,0,-1,-1
17720,-8,-5,4,2,-1,-7,-4,1
17725,10,22,2,-1,2,-3,0,-5
17730,-16,-23,1,8,-20,-8,0,4
17735,10,-5,-13,-1,53,15,4,3
17740,-8,9,2,-10,-23,-2,-1,0
17745,17,-8,-1,0,-5,-3,-2,-4
17750,15,29,17,-7,-19,-8,1,-1
17755,-13,-19,-21,-1,-12,4,-3,-15
17760,3,-2,5,1,20,0,-1,-7
17765,-26,18,-1,2,-5,-1,-3,2
17770,10,-7,-13,1,3,-3,-3,-4
17775,9,-9,4,-4,0,0,3,16
17780,-7,9,-4,-1,7,0,1,0
17785,-4,-6,-17,2,-49,-10,-1,7
17790,-24,11,7,-7,24,9,1,-11
17795,10,-11,-1,-2,-2,4,4,16
17800,8,19,4,1,14,-5,-3,-4
17805,-8,-27,27,3,-13,5,-3,-25
17810,-17,-20,-7,5,-10,5,0,4
17815,5,35,4,1,24,-6,-3,4
17820,-20,-39,-2,-5,-17,2,-2,-14
17825,16,-4,3,-3,-7,-3,-2,-2
17830,-1,-8,1,-4,12,0,-1,7
17835,3,10,11,1,-37,-8,-2,-14
17840,-6,1,-4,3,35,2,1,11
17845,-13,-19,-9,1,9,-5,-1,1
17850,18,-1,8,3,-3,-2,-5,-2
17855,18,16,0,-5,4,20,7,7
17860,-5,45,-1,-1,4,-6,-3,-11
17865,-15,-28,-6,-4,-3,-2,-1,-2
17870,13,-15,-11,2,11,-3,-1,1
17875,-24,-17,1,-1,-11,-12,-3,7
17880,48,2,-18,-2,18,12,-2,-17
17885,12,42,-6,3,19,6,2,4
17890,2,-4,3,1,-6,-6,1,18
17895,-18,-25,-14,-9,-8,-10,-10,-27
17900,-27,-27,-21,-1,-27,-2,4,13
17905,33,33,18,0,27,6,4,4
17910,0,19,-9,5,10,6,-4,-9
17915,-9,-7,19,-3,-38,-10,-1,2
17920,6,-15,-1,8,6,1,1,16
17925,2,9,-13,-14,6,-6,-5,-10
17930,-13,4,5,8,-21,-2,5,-5
17935,-1,-30,11,-3,-2,0,0,6
17940,-15,22,7,-2,-25,-12,-1,7
17945,-3,-21,-14,1,38,4,-1,-4
17950,-7,25,9,-14,-15,7,1,-11
17955,10,-1,4,15,-2,-11,-5,-5
17960,-16,-7,10,-11,2,7,2,2
17965,12,-8,-6,-10,-29,1,1,6
17970,-7,30,-15,2,20,5,6,12
17975,4,-33,12,1,-3,-2,-4,-10
17980,7,5,2,-2,-19,-9,-5,-9
17985,-6,25,15,4,-23,-3,2,12
17990,-15,-15,-16,-9,17,8,2,-10
17995,5,40,-5,-1,10,1,-1,6
18000,20,7,15,9,15,-5,-2,4
18005,-36,-40,-18,-4,-17,1,2,-4
18010,22,26,5,1,8,7,1,6
18015,6,32,22,5,-2,-1,2,1
18020,-13,-43,-12,-6,19,0,-4,-5
18025,11,48,-11,2,-5,-8,-3,5
18030,-6,-40,-10,-2,14,3,0,-1
18035,-8,-7,-17,-11,-19,6,1,3
18040,1,32,9,-3,12,-5,1,-1
18045,-5,16,7,3,-12,-10,-5,-12
18050,-18,-77,-13,-4,-21,-2,-4,-4
18055,5,16,-3,11,13,-7,2,6
18060,12,0,13,-7,-9,8,2,-2
18065,-17,-20,1,-5,-10,5,0,-4
18070,13,17,9,1,4,-17,-4,2
18075,2,-3,20,-3,-38,5,0,-3
18080,5,-1,-3,7,45,9,3,-2
18085,-5,-11,5,1,10,-5,-3,-6
18090,-14,7,3,-3,-20,-2,0,1
18095,13,-38,-16,-1,21,-9,-5,4
18100,-16,46,15,-8,-18,8,3,7
18105,3,-33,-11,0,-5,4,-1,-18
18110,11,-8,6,1,6,-11,-5,-3
18115,-8,5,-7,-8,21,1,1,4
18120,0,5,-3,1,-30,-8,-2,6
18125,12,16,1,6,6,10,5,5
18130,-7,-17,3,-6,3,-1,-3,-12
18135,7,37,-5,6,10,1,0,-3
18140,-19,-47,-5,3,-5,-6,-3,-3
18145,3,42,9,-2,-6,-7,-2,13
18150,-12,-54,-13,8,23,4,0,-1
18155,3,4,-9,-5,-28,-3,-1,-2
18160,-17,-24,-9,2,12,2,-3,-14
18165,27,3,-43,-7,-38,-12,0,21
18170,-23,33,8,-12,29,3,-1,-13
18175,-6,-14,-21,3,2,10,-1,-1
18180,26,17,21,7,-25,-3,-1,6
18185,9,-22,10,-1,35,3,-1,-14
18190,-4,27,23,2,-26,-3,-2,5
18195,-7,-35,-30,-8,-10,-1,-2,-7
18200,-23,-8,-12,-2,22,-1,3,10
18205,-19,19,20,2,0,0,-4,-10
18210,42,-36,-9,4,-19,-3,5,13
18215,18,36,13,0,18,2,0,1
18220,1,1,-14,-3,-18,-12,-4,-14
18225,-13,3,15,2,7,6,4,17
18230,-14,-15,-24,-2,-36,-7,-1,21
18235,3,22,2,-17,54,10,-1,-31
18240,1,10,15,3,1,-2,0,-4
18245,4,-31,-22,9,-4,0,-1,-1
18250,-7,73,12,1,27,0,-3,-2
18255,-17,-69,-6,2,-25,-4,0,16
18260,10,14,14,-8,-10,-2,-2,-2
18265,-14,-18,-11,0,8,0,-4,-18
18270,15,3,3,-6,-22,-6,-4,-4
18275,18,46,-2,1,-3,-9,-2,12
18280,-15,-31,7,-1,9,6,-4,-10
18285,-11,-10,6,8,-6,-8,-2,5
18290,7,9,-3,-5,-22,4,-1,-2
18295,-2,9,-4,1,26,7,3,8
18300,-1,3,-4,-5,-34,-9,-2,-6
18305,-3,-43,0,6,30,11,2,-2
18310,7,26,14,-3,-7,-6,-3,-4
18315,-33,-32,-30,-4,-28,-5,-4,-18
18320,9,-5,-1,3,14,-4,-1,11
18325,16,11,-1,-5,-15,0,5,9
18330,-8,17,28,1,27,1,1,-16
18335,14,-16,14,9,-10,1,-5,-6
18340,-27,-16,-12,-6,1,2,1,1
18345,14,7,-19,-14,-7,-2,0,9
18350,6,12,18,-2,-18,1,-3,-7
18355,2,8,15,1,9,0,2,13
18360,-4,-20,-12,7,20,2,-4,-16
18365,4,19,9,-1,-2,0,-1,6
18370,-15,-14,-1,7,-8,-3,3,4
18375,10,1,6,-3,-6,0,2,18
18380,9,5,-3,-5,16,14,1,-12
18385,9,19,9,-3,-22,-3,-1,-2
18390,-6,-77,-19,5,23,-6,-3,1
18395,-18,37,-9,1,-35,-10,-4,-17
18400,9,4,15,1,40,12,3,17
18405,-6,-4,-7,5,16,-9,-2,-4
18410,-1,6,-18,-10,-31,6,3,4
18415,-3,-5,16,1,17,-2,-5,-17
18420,10,15,-8,-5,-24,-8,-2,3
18425,-4,-1,8,-3,8,4,2,1
18430,7,20,3,2,0,-6,-3,-1
18435,-16,-57,-23,-5,11,2,2,-2
18440,7,19,-7,2,-22,-18,-5,2
18445,-10,-4,14,-5,-3,5,3,-3
18450,6,-14,-17,-2,-1,-1,-3,4
18455,1,43,1,1,-20,-12,-2,7
18460,-7,-67,-11,-10,11,2,0,-13
18465,17,17,-1,2,2,5,0,-5
18470,2,11,-6,-5,3,5,-1,-3
18475,-10,5,2,1,-1,0,-1,-3
18480,-9,-2,11,0,-11,-10,-3,8
18485,-11,-16,-17,-1,5,-1,-3,0
18490,9,16,-3,0,6,-1,0,0
18495,-4,17,4,0,-39,-9,0,-1
18500,7,-40,-6,1,50,14,3,5
18505,0,8,-2,-2,-22,-5,-7,-9
18510,1,-5,-4,2,7,0,0,-4
18515,3,9,8,1,5,5,1,0
18520,-3,18,2,0,-15,-5,1,15
18525,-22,14,10,-1,2,-4,2,-10
18530,2,-62,-7,8,17,-9,-8,-12
18535,6,-12,-6,-18,-26,10,6,8
18540,-8,37,-9,2,14,5,-1,-6
18545,8,-5,6,-2,12,0,2,10
18550,-18,21,10,-2,-22,-4,2,1
18555,-7,-16,4,6,26,-1,-4,-12
18560,16,6,-15,4,-19,6,2,9
18565,-2,-4,-2,-2,-5,-10,-5,-8
18570,6,3,9,2,17,-2,-2,-7
18575,-5,2,-5,3,13,10,-1,3
18580,-5,3,3,-3,-35,-5,1,0
18585,-7,7,4,2,10,0,0,3
18590,15,-8,-6,-2,-8,-1,-1,-7
18595,7,-3,5,4,10,-5,-3,1
18600,-6,20,2,-2,13,0,-3,-4
18605,-1,21,11,-11,-12,3,3,1
18610,-25,-64,-13,1,8,4,-1,4
18615,10,18,13,2,7,-4,-3,1
18620,0,0,-7,-6,-24,-3,-1,-10
18625,5,-19,-11,1,6,-2,-4,4
18630,-10,23,-13,-3,-3,-2,-3,-7
18635,2,-2,2,-5,9,-5,-1,-1
18640,-7,-39,-5,6,-12,5,2,1
18645,-2,0,-6,-7,-9,-2,-4,-13
18650,21,21,-1,3,13,0,4,19
18655,7,-14,-4,-1,-10,2,-3,-15
18660,3,20,2,2,3,-9,-2,1
18665,-28,-21,-1,8,6,11,1,8
18670,8,28,16,-2,4,13,1,-2
18675,-6,-64,-12,-3,-5,-6,-3,-9
18680,-9,44,-9,0,2,2,3,10
18685,3,-6,18,4,-2,-13,-8,-26
18690,-4,2,-3,-12,-23,5,3,1
18695,8,19,27,3,-4,3,0,2
18700,-15,-12,-14,-1,-16,-7,-5,-9
18705,-12,-28,-6,9,17,-13,-3,6
18710,22,38,19,-9,17,16,3,4
18715,2,21,-19,5,-1,13,3,-2
18720,8,-8,13,1,12,-4,-3,4
18725,7,24,1,-5,-7,-5,-1,-1
18730,-27,-8,-5,0,-13,-4,0,-1
18735,-5,-12,-15,-3,-2,-5,-3,2
18740,13,13,-2,-1,-5,-7,-2,-1
18745,13,-18,-7,6,-13,0,2,21
18750,-32,21,6,-7,28,14,0,-35
18755,-7,7,-5,-5,-10,-4,-1,5
18760,4,-1,6,-5,17,2,-1,-1
18765,3,-33,-11,-1,-19,-3,0,2
18770,15,-22,15,-1,-7,-16,-8,-9
18775,8,20,-27,2,13,6,-1,-6
18780,-14,4,22,3,-36,2,2,0
18785,-16,2,-7,-10,34,7,1,0
18790,9,-18,-9,3,-16,-11,3,26
18795,-4,-7,19,-3,8,-6,-4,-1
18800,-16,8,-2,-4,-42,-6,-7,-30
18805,-8,8,-4,5,42,3,-2,4
18810,20,-21,-12,-3,-13,3,1,-7
18815,4,1,-1,1,11,1,0,2
18820,14,2,-7,-5,23,2,1,14
18825,3,4,22,-3,-18,-12,-6,-9
18830,-11,-4,-12,2,-16,8,1,-3
18835,-5,-5,16,1,-6,-4,1,3
18840,-5,-32,-27,2,43,-3,-3,-4
18845,-17,25,19,-4,-21,-5,-2,3
18850,20,9,-3,7,26,4,4,8
18855,-15,-3,9,-9,-35,1,-2,-12
18860,6,9,1,4,2,-4,-1,7
18865,4,15,3,-5,-7,6,1,-3
18870,-15,-28,-5,0,12,3,-1,-8
18875,12,7,11,3,10,-1,6,18
18880,-14,-2,-3,0,-41,-12,-5,-15
18885,22,-47,7,5,28,10,3,6
18890,-5,1,-2,-17,-15,3,-4,-11
18895,-8,11,-22,-1,3,-9,-1,2
18900,0,-16,-10,4,4,2,1,0
18905,10,10,12,-6,-17,-2,2,-4
18910,-24,38,13,18,0,-9,-5,7
18915,10,-47,27,-13,17,4,0,-5
18920,13,22,1,-4,-21,-1,-1,-11
18925,-21,-27,-25,-3,19,-7,-4,-11
18930,3,-13,-6,2,-12,-2,3,16
18935,-3,15,-11,-2,-23,-5,-6,-14
18940,-1,1,18,3,30,17,4,-2
18945,13,-10,-20,-3,-15,-6,-3,-2
18950,-14,-6,-1,4,-10,-13,-2,7
18955,-7,5,6,-5,33,3,-5,-2
18960,-8,-24,-11,-3,2,2,0,-10
18965,18,23,-11,2,-9,2,2,3
18970,-4,2,3,-5,-21,-6,-1,3
18975,-13,23,11,12,16,1,3,8
18980,4,-19,-10,-3,-1,-10,-4,6
18985,19,4,-1,1,-26,2,-1,-13
18990,5,-3,-11,3,31,2,-2,0
18995,-12,-23,8,1,-27,0,3,-8
19000,7,3,-6,0,15,8,1,8
19005,-1,13,-1,5,22,4,1,1
19010,7,4,-11,-2,-6,-4,-1,1
19015,6,9,-9,-6,-17,-4,-3,1
19020,-3,-25,12,-6,-2,-7,-2,8
19025,-6,2,-5,1,-18,-6,0,0
19030,-10,16,-13,5,25,-4,-5,-10
19035,10,7,2,-1,19,11,5,16
19040,17,18,-6,-5,-35,-7,1,9
19045,-5,20,3,-2,24,16,-1,-21
19050,-6,-7,15,2,-20,-12,-1,3
19055,-3,2,-8,1,1,-4,-3,-5
19060,-30,3,-3,3,2,7,0,7
19065,24,17,-3,-8,-23,-15,-6,-22
19070,-2,8,-1,-1,14,13,5,2
19075,-10,-22,5,8,17,-10,-2,-3
19080,3,5,-6,-5,-12,-5,-2,0
19085,-9,1,10,2,19,13,1,3
19090,-4,-1,-12,-3,-30,-9,-3,-6
19095,12,-13,6,2,-26,-4,-3,3
19100,-37,5,-19,-3,38,11,1,-10
19105,34,-64,-17,-5,-19,-14,2,23
19110,11,9,20,7,21,2,-2,-12
19115,-4,11,-22,-10,-27,0,-3,-2
19120,3,-4,18,1,-9,-5,0,0
19125,-21,8,-13,2,1,0,-1,13
19130,-21,-52,12,-6,-14,5,1,1
19135,34,33,-40,-2,18,-6,-5,-15
19140,8,8,12,4,14,7,0,-2
19145,-4,1,-21,-11,-8,-3,-4,5
19150,-13,0,6,-1,-4,-2,2,6
19155,-18,-4,-2,2,-5,-4,-1,-1
19160,13,-5,12,-8,-16,3,1,-1
19165,13,20,16,8,44,8,-3,-2
19170,3,-13,-26,-10,-34,-6,-3,-13
19175,-10,2,-2,9,34,2,-2,1
19180,29,4,-15,-7,-3,11,4,6
19185,-48,11,20,7,0,-9,-5,-10
19190,-2,1,-3,-4,14,-2,-1,-2
19195,25,0,12,-5,-12,7,1,-8
19200,-8,-8,-3,-1,-40,-19,-4,6
19205,7,-11,-9,-2,19,9,2,3
19210,1,26,14,1,10,7,2,2
19215,-16,-17,6,-1,-10,-5,-1,0
19220,17,10,0,4,-4,-7,-2,7
19225,-37,-43,-18,-12,-19,-4,-2,-4
19230,12,16,0,-2,2,-2,-5,-11
19235,27,13,5,4,4,4,2,8
19240,4,4,11,-3,18,3,-1,-9
19245,9,16,9,1,-10,-6,1,7
19250,-10,17,-20,2,-3,-5,2,18
19255,-40,-62,24,-7,0,7,-2,-13
19260,15,4,-3,4,10,2,-3,-7
19265,-7,-5,1,1,-2,-6,-4,-9
19270,17,6,0,2,8,6,2,5
19275,2,13,7,7,-14,-8,0,9
19280,-5,15,3,-1,3,0,3,7
19285,-12,-28,-15,-9,-35,5,-1,-1
19290,-27,29,23,0,35,1,-2,-16
19295,8,-15,-19,-2,15,-2,-3,-9
19300,12,3,3,9,-12,-13,-4,-5
19305,6,-2,6,-3,-3,7,6,16
19310,-10,-12,-5,-4,-13,-1,-5,-7
19315,-2,48,1,-3,8,0,-1,5
19320,-9,-73,1,-1,2,-6,-3,3
19325,17,28,9,6,0,3,2,-8
19330,-9,8,2,2,3,-2,-1,11
19335,-9,-19,-10,-3,-12,-2,-2,-17
19340,9,11,-12,3,1,-8,-6,-3
19345,7,20,2,-1,5,3,3,7
19350,13,-4,-11,-6,14,0,-2,5
19355,-26,0,-12,1,-2,7,2,0
19360,-6,2,-2,-7,16,-11,-4,-9
19365,5,-9,4,2,-3,0,2,6
19370,10,-17,-8,3,-11,-4,-5,-17
19375,3,0,-8,-6,-3,1,1,6
19380,-17,6,0,-1,-8,0,-1,-5
19385,-6,14,-1,2,2,-6,-1,0
19390,2,-66,10,-6,-1,-3,-1,18
19395,8,20,3,1,-7,-6,-2,-12
19400,-7,-4,-10,-3,-1,7,-1,-12
19405,6,11,-11,0,-6,-2,1,2
19410,13,8,16,2,-16,-3,1,0
19415,-26,5,-6,-5,-7,-7,-1,-6
19420,16,2,17,-3,28,13,-1,3
19425,-1,-8,-7,0,-7,-4,-1,5
19430,-5,17,-3,0,6,-1,0,-5
19435,4,-21,5,1,15,7,2,12
19440,7,33,6,-3,-21,-2,3,-2
19445,-3,-25,8,2,3,-5,-7,-8
19450,-6,0,-14,4,-40,-11,-1,0
19455,-9,3,-5,-6,8,13,1,9
19460,10,-5,-23,-4,6,4,3,10
19465,8,11,7,3,19,1,-4,-17
19470,-3,-19,-5,5,-11,0,-1,0
19475,1,10,0,2,-6,-4,0,5
19480,-33,-14,1,4,-16,-4,1,7
19485,19,6,6,-6,-22,-4,-3,0
19490,23,24,-3,-4,41,8,-1,-5
19495,8,-29,3,-7,11,9,6,10
19500,-20,1,11,-4,-10,1,-5,-18
19505,-18,-2,-6,4,-16,-4,0,-2
19510,-10,13,-3,-4,9,-2,1,6
19515,21,-17,-4,-2,-1,-8,-3,5
19520,-5,-11,2,1,-6,-5,-4,-8
19525,-13,-7,7,3,16,2,-3,-15
19530,2,-21,-27,-3,-15,-3,-1,-4
19535,-15,17,27,5,4,6,2,5
19540,19,12,-9,0,0,-5,-3,-6
19545,-5,-5,-6,-7,-5,0,1,-3
19550,-2,-11,5,4,-13,-5,1,10
19555,-48,23,5,0,17,-3,-7,-17
19560,39,-28,-1,-1,1,1,-2,6
19565,-1,-23,-2,1,-14,-5,-1,9
19570,-10,8,3,-6,3,5,-1,-12
19575,16,9,-6,-3,-4,-7,1,9
19580,-23,3,15,1,-5,0,2,-18
19585,0,0,-10,-3,2,2,0,9
19590,3,-11,-2,-14,-32,-6,-5,-4
19595,0,5,-35,3,26,-1,-1,-4
19600,-8,-6,8,1,20,5,0,8
19605,-14,-11,6,10,-6,-10,-1,7
19610,25,30,-9,-13,-21,6,0,-11
19615,9,-17,-12,-4,0,3,-3,-6
19620,-10,25,0,8,15,0,-2,-3
19625,-18,11,-9,-8,-16,0,1,4
19630,9,-14,0,4,4,0,-1,8
19635,6,5,7,5,-3,-2,1,-1
19640,8,-16,-18,-3,1,0,3,1
19645,4,0,0,-2,0,-2,-2,-2
19650,-11,8,6,4,8,2,-2,-7
19655,20,-13,8,0,11,5,1,-2
19660,-17,-1,-2,-2,-9,-5,0,15
19665,6,9,-6,-4,7,3,0,-5
19670,-46,17,13,4,3,-1,-2,-1
19675,47,8,-2,2,-27,-10,-1,-2
19680,-16,1,7,-5,9,8,3,5
19685,15,-1,-8,-4,13,4,0,0
19690,-13,-1,11,5,36,2,2,7
19695,-8,24,-8,-7,-54,-8,-1,5
19700,6,5,5,7,22,-2,-4,-10
19705,8,26,13,-10,-17,-3,0,-6
19710,-7,-46,-11,-1,-3,0,-2,2
19715,-24,-1,7,2,21,6,1,-5
19720,2,-10,-17,-4,2,-9,-3,-3
19725,6,6,-5,6,-2,0,1,5
19730,1,9,6,-9,-12,-2,-1,-7
19735,-1,-12,0,-2,-9,-9,-5,4
19740,-5,-1,-4,0,-13,-1,-2,-6
19745,-22,-11,1,5,20,-3,-6,-14
19750,30,4,-5,-1,3,15,7,6
19755,-23,-41,-9,-2,-2,-5,-4,3
19760,19,15,23,2,-5,-2,3,6
19765,-12,-3,-1,-4,-4,-1,2,-5
19770,14,3,4,2,-1,-11,-6,-16
19775,7,14,2,3,-20,10,4,11
19780,-35,-7,1,-2,15,-4,-5,-9
19785,11,-13,2,-2,-1,1,4,16
19790,0,14,17,4,-7,-4,-3,-2
19795,7,6,-18,0,1,0,2,-5
19800,-23,5,4,-7,-28,1,1,6
19805,14,1,-16,7,-5,-5,-3,-11
19810,-7,-26,-15,-8,26,8,-2,4
19815,12,5,11,-2,-3,-1,3,-1
19820,-9,-7,-7,7,-6,-7,-4,-7
19825,27,38,10,-16,-19,5,0,8
19830,-5,-7,7,5,-8,-4,-2,-11
19835,-12,-12,-29,-6,-26,-11,-8,-7
19840,1,-36,4,0,23,9,3,-3
19845,-20,-65,-23,-2,29,2,-4,-2
19850,13,66,11,-2,-7,-8,-2,-2
19855,-19,7,19,-1,8,-6,-5,1
19860,43,6,-11,-8,-20,5,3,0
19865,-10,11,10,1,2,-8,-6,1
19870,-7,-38,-26,0,5,14,6,15
19875,17,11,18,1,17,-1,-3,-11
19880,10,34,-2,2,-19,-6,-4,2
19885,-13,-39,-2,-5,16,6,1,-4
19890,-16,-32,-10,-2,-13,-8,-4,6
19895,-7,13,-4,-1,9,5,0,-7
19900,-3,-24,12,-5,4,-1,0,-2
19905,5,36,7,-2,-5,4,0,2
19910,-25,-19,-13,3,3,-21,-3,8
19915,25,-12,13,0,-14,0,-2,-14
19920,6,-3,-28,-2,57,8,-4,-2
19925,-8,-8,-11,1,-13,2,1,-15
19930,3,5,-1,1,-1,-6,1,8
19935,0,1,6,1,-11,-11,-4,2
19940,-27,-1,-16,-13,-43,1,1,-4
19945,36,35,12,3,-1,-7,-2,10
19950,4,-48,1,3,4,7,1,-16
19955,12,7,10,3,7,-4,0,6
19960,-21,6,-18,-3,-2,4,-1,-9
19965,-8,-8,-3,2,0,5,4,7
19970,10,35,14,-3,-1,6,-3,-7
19975,-15,10,6,-6,-10,-5,-3,1
19980,-15,-25,-10,7,27,-5,2,14
19985,30,3,-10,-7,-6,-6,-5,-11
19990,9,29,0,0,11,5,0,-7
19995,-15,-22,-6,0,18,0,1,-1
20000,-3,30,17,2,-17,1,1,11
20005,-17,-8,-5,0,-8,1,-1,0
20010,1,22,1,-2,18,-3,-3,0
20015,1,-32,-19,-3,-4,6,2,3
20020,17,-13,0,-7,-17,-5,-3,-12
20025,-5,7,6,8,14,-5,-2,1
20030,-6,27,-12,-11,-19,-9,-7,-10
20035,-13,9,0,-3,9,8,1,6
20040,-8,7,3,7,0,4,3,1
20045,5,-11,-6,3,-21,-3,-3,-9
20050,9,13,3,-6,-12,-7,-2,3
20055,-2,-36,-19,1,44,22,6,-2
20060,7,27,12,-4,-33,-11,-5,6
20065,-7,-6,-1,5,37,0,0,4
20070,-2,4,8,-2,-25,2,-1,-3
20075,-9,-2,8,0,-32,-6,-3,-16
20080,18,-3,3,5,30,-5,-2,7
20085,-44,18,-15,-7,-21,9,0,-7
20090,53,-82,-2,-5,4,-2,4,17
20095,-17,30,9,2,-3,-6,-2,7
20100,13,5,-12,-2,-25,-9,-5,-19
20105,-7,-17,13,4,6,-7,-5,-7
20110,-12,23,6,-10,-3,6,1,0
20115,-9,13,10,-4,-47,-6,-1,2
20120,30,-13,8,2,69,13,12,30
20125,5,-1,-11,0,12,-4,-8,-22
20130,-16,9,0,5,7,1,-1,-13
20135,2,-9,-1,-4,-17,-5,-2,0
20140,-12,-6,-9,-4,-19,-8,-4,-3
20145,0,5,2,-6,-9,-5,0,12
20150,-4,-10,-6,12,25,5,0,0
20155,-5,6,8,0,22,7,2,-8
20160,13,-21,7,2,1,7,0,-5
20165,0,6,7,-1,-15,-1,0,6
20170,-4,-5,1,-1,-8,-8,-7,-12
20175,0,8,-3,2,11,-3,1,3
20180,-6,-6,3,2,-17,-6,-3,-2
20185,9,1,-22,-3,0,2,0,4
20190,-46,-26,2,-2,-12,4,0,-4
20195,41,-15,-20,-2,-2,4,0,3
20200,-7,13,1,-4,-14,-3,-1,-3
20205,-6,10,18,6,31,-2,1,0
20210,6,-6,-13,-2,-12,-1,0,2
20215,-11,-8,-9,-4,10,-2,-3,-3
20220,7,-2,-23,-2,-8,-6,-4,-1
20225,0,-40,7,-4,-26,-3,1,-2
20230,-9,4,-14,2,25,8,3,-6
20235,-13,4,10,4,15,-4,-2,6
20240,23,-3,-9,-3,-5,0,-4,-9
20245,-5,0,3,-4,-4,-1,3,17
20250,13,2,-1,-2,-30,-11,-6,2
20255,-18,-3,-4,-6,33,1,-1,-2
20260,0,8,10,10,14,-6,0,-1
20265,1,-6,2,-7,-12,18,3,-4
20270,-3,-2,-14,3,-14,-11,-2,6
20275,12,3,3,-2,18,8,0,1
20280,-19,25,-8,-2,-22,-4,-3,-6
20285,13,-30,16,1,13,-3,0,-1
20290,-10,10,16,-2,-15,-6,-3,-10
20295,8,13,-3,0,-21,-9,-3,1
20300,-29,-13,13,2,15,7,1,-9
20305,5,-34,-12,-1,-7,0,1,6
20310,-5,3,5,0,32,9,-1,-11
20315,11,1,-9,1,-10,-6,-2,1
20320,-9,5,6,0,-10,4,0,4
20325,-3,34,2,-5,2,-5,-3,-4
20330,13,-11,0,0,0,3,4,13
20335,9,11,3,2,11,-1,-1,-9
20340,-17,-9,-15,0,-7,-3,0,3
20345,-5,-5,-21,-3,-18,-9,-6,-2
20350,-13,-13,10,-3,24,5,8,11
20355,25,44,-2,6,-10,1,-3,-11
20360,6,28,9,-14,-16,-2,-1,0
20365,-23,-8,0,3,11,0,-4,-17
20370,10,8,-9,3,-11,-3,0,13
20375,4,-27,-9,1,16,-2,0,-5
20380,-11,7,37,0,-14,-2,-2,1
20385,-9,16,-13,0,25,-7,-1,6
20390,20,13,15,0,-18,13,7,7
20395,-10,-10,-5,-9,-13,-3,-4,-8
20400,10,-7,-3,-1,20,3,2,3
20405,-4,-27,-9,1,-26,-3,-1,-4
20410,-6,3,-4,-2,20,-2,-3,-9
20415,1,17,5,4,-9,-6,1,20
20420,9,-14,-10,4,-6,4,1,-12
20425,-6,1,-1,-6,17,11,-1,-6
20430,2,29,-1,-2,-9,-12,-4,-3
20435,-12,-27,-6,4,-13,-11,-2,-1
20440,12,8,1,-7,-12,0,1,14
20445,-32,15,6,0,9,9,0,-8
20450,36,-9,4,3,25,6,-1,-2
20455,-27,-6,-30,-8,0,5,0,-4
20460,8,-7,-4,5,-5,-10,-4,0
20465,-3,13,8,-4,-18,-9,-1,-2
20470,10,5,16,-1,4,4,1,8
20475,-7,1,-12,-1,-17,-2,1,-3
20480,-22,-18,-15,1,17,-1,-4,-13
20485,23,5,15,4,-1,2,0,2
20490,-20,-49,-8,-4,10,-3,-1,4
20495,14,9,7,-5,-7,3,3,8
20500,-2,23,8,1,-7,1,-3,-15
20505,6,13,-3,2,18,0,-1,-1
20510,-24,-2,-5,2,-31,-8,-2,-2
20515,16,-2,14,-1,13,9,1,0
20520,-11,-39,-18,-12,-6,-6,-1,6
20525,21,11,-23,-9,-6,-4,-7,-6
20530,-12,3,-14,2,3,-4,0,0
20535,16,-8,1,-3,-21,-5,-2,-1
20540,-12,-14,19,6,16,0,2,6
20545,16,10,-6,0,7,-3,1,9
20550,-7,38,-1,2,-2,7,2,-11
20555,-12,-34,-8,-1,7,0,-1,4
20560,14,17,30,1,-11,-1,-3,-2
20565,-5,-24,-1,1,1,-3,0,5
20570,-4,18,-7,-4,-2,-7,-7,-17
20575,-23,19,9,10,9,-1,1,-5
20580,19,10,2,-1,27,17,5,4
20585,-6,0,6,1,-3,-1,-2,-4
20590,4,-13,-46,-12,-16,-8,-4,5
20595,-12,-1,8,1,-1,-4,-4,0
20600,-14,-24,-9,2,-9,3,2,-4
20605,22,28,25,15,22,5,2,2
20610,12,17,16,-8,-46,-6,2,11
20615,14,-5,1,-3,34,16,0,3
20620,-15,2,2,-2,0,-6,-2,-6
20625,1,4,11,4,-3,-3,0,0
20630,-10,2,15,2,-10,-2,-3,-11
20635,0,-1,-7,-2,-10,-12,-2,5
20640,0,13,2,-3,1,11,3,-2
20645,0,-12,-7,-6,-9,5,2,12
20650,-30,-2,1,6,31,3,-3,-15
20655,14,-34,7,-4,-17,2,1,-5
20660,-2,34,-9,7,2,-12,-3,5
20665,-30,-31,-5,-12,-42,5,1,2
20670,48,17,-5,0,39,14,-1,9
20675,-20,-17,-5,-1,5,3,0,-7
20680,11,3,8,6,-4,-12,-5,-1
20685,-7,14,-9,-5,-9,4,2,5
20690,-4,-11,20,-5,7,-5,-2,-3
20695,-2,16,-2,3,13,-1,-2,-10
20700,10,-1,-13,-10,-7,-3,-2,1
20705,-4,-7,-16,-3,-5,-7,-3,-5
20710,-16,-41,-16,3,5,-3,0,6
20715,4,16,2,-7,-9,0,-5,-10
20720,-30,-24,2,-2,0,-5,-2,2
20725,30,46,10,1,10,3,-2,-6
20730,4,-23,-10,-2,-11,0,3,9
20735,-13,-13,-24,-7,-21,-13,-5,5
20740,-30,-59,-9,2,12,1,1,-5
20745,0,10,8,-4,10,1,-5,-9
20750,31,13,7,0,20,0,2,8
20755,-5,6,-2,-1,-5,-1,-1,2
20760,-3,-10,-11,1,-13,-6,-4,-3
20765,-6,-13,1,8,28,-5,-2,0
20770,-11,15,-1,-15,-35,8,1,-13
20775,9,6,-12,-1,-14,-6,-2,-1
20780,11,-5,3,-3,-2,2,-1,3
20785,-7,-18,-7,-2,6,-4,-4,-8
20790,4,10,6,7,13,-3,-7,2
20795,-34,-16,-18,-6,-18,-5,1,1
20800,40,29,4,4,-21,2,2,-7
20805,15,-56,-21,-3,18,-1,-4,6
20810,-14,3,9,2,18,3,-1,-13
20815,5,-7,14,0,-1,0,-1,8
20820,-7,23,16,0,25,1,-2,-2
20825,2,9,-6,-1,-49,-11,-1,2
20830,-8,-13,-10,2,31,12,3,-5
20835,6,1,9,6,-20,-12,-4,-1
20840,20,2,5,-6,21,8,1,-4
20845,-19,38,21,0,-2,-4,2,3
20850,8,-24,-13,-8,-38,5,1,6
20855,7,-19,8,2,9,-5,-1,-1
20860,-7,-24,-10,2,7,-5,2,12
20865,-11,-28,5,1,2,3,-2,-20
20870,6,-9,-15,-2,-17,-17,-5,-5
20875,-2,43,34,-2,26,17,1,1
20880,8,-25,-34,-3,-12,-3,-2,3
20885,-14,8,4,-2,-12,-5,-2,14
20890,13,0,28,8,-41,-10,2,-6
20895,6,-6,4,-2,66,20,4,-4
20900,-18,14,5,-3,-23,-11,-5,-3
20905,0,21,27,2,8,12,5,1
20910,-14,11,-11,-4,-15,-11,-4,16
20915,27,-1,-2,15,-1,0,2,-11
20920,-5,0,7,-2,-9,5,0,-1
20925,12,-6,-11,-6,-10,5,1,-2
20930,-17,4,6,1,2,-3,-1,-4
20935,-2,3,-7,6,-37,-16,-4,5
20940,-1,3,-9,-3,31,9,-2,-11
20945,4,-15,14,3,11,1,1,5
20950,-6,-8,-22,1,-7,-3,-3,-2
20955,8,11,15,-15,-26,-5,-2,-1
20960,11,-6,-31,2,-2,-4,3,4
20965,-4,2,2,-2,-3,-3,-4,-10
20970,0,10,8,-2,5,0,0,2
20975,-21,17,1,-1,-3,-6,-1,8
20980,22,-17,-7,-1,-10,-5,-1,6
20985,-13,-14,-7,-4,4,-1,1,-5
20990,17,45,16,6,8,-3,-3,-7
20995,-23,-16,-10,-3,-11,-4,-3,8
21000,-7,31,21,-11,33,1,-4,-13
21005,15,4,-2,1,-20,-1,-1,-7
21010,-13,-9,-1,1,10,-4,-1,-1
21015,11,-5,-12,-2,9,8,3,8
21020,-14,-6,-14,0,0,-6,-2,-4
21025,4,-1,3,7,18,-10,0,13
21030,-24,-1,-2,-12,-7,5,-1,-7
21035,21,3,12,1,35,9,3,-7
21040,-10,-2,-5,-3,-22,-6,-6,0
21045,-3,15,-4,-3,-23,-6,-2,-3
21050,6,-14,-5,2,-3,-15,-5,8
21055,-17,33,-21,3,17,14,6,-3
21060,20,-45,-19,2,1,11,0,0
21065,10,-1,8,1,1,3,1,-6
21070,-13,-13,9,-6,-17,-2,0,4
21075,-20,-12,-5,3,4,-7,-4,-8
21080,13,21,10,1,5,2,6,12
21085,0,22,-8,1,-18,-2,-4,0
21090,11,-34,7,6,50,18,2,10
21095,10,-24,-5,6,2,-9,-6,-19
21100,-20,15,-5,-8,-23,5,0,-8
21105,6,6,-4,-3,10,-1,3,6
21110,4,4,-22,-2,-13,-2,0,1
21115,3,5,-1,6,-23,-5,-1,3
21120,-11,-8,23,-6,8,-12,-4,-4
21125,-3,7,-29,-7,29,13,0,1
21130,1,0,0,-1,2,9,1,-1
21135,3,-3,5,-6,-20,-4,-4,-6
21140,-4,15,-9,5,-27,-7,-2,0
21145,-13,-15,1,1,4,-7,-3,-3
21150,6,-3,13,-2,-2,3,1,0
21155,2,-4,-2,-1,17,4,-2,0
21160,-11,10,11,0,-30,-4,-1,0
21165,29,23,7,2,20,1,0,6
