time,emg1,emg2,emg3,emg4,emg5,emg6,emg7,emg8,hand,pose,orientation,testPerson
0,-14,-4,-10,-19,-7,-28,4,-3,1,1,45,BueBaby!
5,7,-2,7,8,17,16,-6,-11
10,-11,-3,4,21,-6,12,3,-4
15,-18,0,-13,-29,23,4,-6,-49
20,11,1,31,-35,-20,17,-1,79
25,3,-4,-31,11,18,-3,5,-49
30,18,1,-17,-14,9,0,4,61
35,-22,-1,13,-11,-25,-45,-5,-56
40,-24,-7,4,8,21,-4,-2,-56
45,33,7,-6,-46,6,-12,-7,47
50,-12,-6,-1,33,-52,-29,-3,56
55,-16,-9,5,5,24,39,4,-22
60,11,4,-1,-16,2,-12,4,-31
65,1,4,-3,-19,-36,-18,-2,6
70,14,-1,-6,49,36,37,9,-35
75,-7,-4,-2,-23,-22,-17,-4,4
80,-4,-2,-34,-44,-41,-32,-7,33
85,-9,4,39,48,14,-12,2,-47
90,-3,-4,1,-52,4,77,0,-4
95,26,3,13,7,3,-28,3,56
100,19,7,0,63,8,21,7,-21
105,-14,-6,-1,49,1,1,2,37
110,3,6,10,-7,6,-15,-4,-50
115,-20,-8,7,-12,2,28,-5,-1
120,6,-3,0,-9,-5,-34,-1,25
125,-32,-4,-6,7,25,16,-1,-60
130,-13,0,17,-27,-45,-17,-7,75
135,24,0,-16,38,25,33,0,-31
140,-19,-5,-10,-8,-13,-37,-3,-32
145,-18,-5,-19,-81,-11,11,-5,30
150,39,8,-3,-17,18,29,6,-4
155,-21,-6,0,27,3,-34,6,19
160,8,7,11,-2,3,33,4,-6
165,10,0,-4,21,-19,-53,-2,18
170,27,1,-10,4,14,31,3,-3
175,-11,1,1,-34,-41,18,-4,1
180,-10,-5,-4,29,22,47,3,-49
185,-23,1,19,-20,10,17,3,0
190,8,2,-2,-5,8,-28,-1,23
195,11,0,-2,36,-12,-24,6,-52
200,-18,-11,6,-25,-12,46,-14,-18
205,43,10,5,36,30,-42,11,91
210,-2,-2,-3,-78,-39,39,-7,28
215,-17,1,11,81,2,-37,-2,-77
220,-36,3,-20,-51,-2,6,-2,52
225,-1,-7,21,-24,7,16,-8,-3
230,-33,-12,-8,86,24,61,10,-118
235,67,25,39,-24,8,-14,-11,115
240,-29,-6,18,58,32,26,17,-81
245,-54,-21,-5,107,-37,-35,-23,49
250,52,12,-9,16,12,-73,1,43
255,-44,-13,-31,-61,-33,20,-1,-88
260,10,-4,5,5,22,-34,-13,94
265,41,10,-15,-59,-24,40,18,-40
270,-60,-23,5,84,33,-2,-5,-81
275,25,10,-6,-11,7,22,-8,79
280,-15,-5,9,-56,-25,-63,-13,17
285,23,10,-6,-4,-19,64,22,-10
290,23,2,-12,15,19,32,-2,1
295,-28,-7,-5,-38,-26,-50,4,-6
300,37,1,11,22,10,10,-4,3
305,-19,-6,-10,3,1,16,7,-33
310,12,0,1,-25,1,-36,-14,-18
315,-27,-19,16,68,-3,11,1,-13
320,-2,15,-2,-51,-32,45,-14,21
325,54,15,11,78,-33,-5,17,24
330,0,-9,-26,55,34,22,-1,29
335,-70,-22,-13,-80,-3,-11,-14,-81
340,62,1,-21,6,-21,-29,10,51
345,-33,3,26,6,73,27,-15,-43
350,-24,-11,0,-45,-43,-39,11,-2
355,2,5,-10,-50,-3,-15,1,32
360,-18,4,7,39,-27,-24,3,-117
365,51,5,-14,-7,27,12,-6,91
370,6,-6,-21,-17,-28,70,18,-45
375,4,-3,-8,-16,10,31,-10,22
380,3,2,-6,-24,46,-19,11,66
385,-10,-11,-5,-46,-54,-81,-20,-86
390,-12,11,30,-19,-17,4,-3,52
395,0,-3,-11,-3,31,-14,5,-23
400,-10,-9,10,44,12,85,7,-27
405,7,-8,-27,-91,-58,-85,-13,-8
410,37,25,22,61,25,21,7,37
415,-33,0,11,55,31,39,7,-107
420,42,2,-27,35,26,-10,-2,119
425,-31,-16,-10,-55,-25,2,0,-43
430,-23,1,-18,-42,-28,-64,-11,-46
435,26,14,-12,13,25,-47,15,5
440,-16,-16,3,0,-25,-33,-24,-19
445,40,33,8,40,33,44,5,67
450,-29,-32,-17,-54,-41,-61,-14,-43
455,-11,1,21,12,12,28,-3,8
460,40,12,10,28,2,5,15,44
465,-24,-8,11,19,29,47,9,-38
470,-10,8,9,-19,11,5,-1,-2
475,-50,-27,-26,10,-55,-53,0,-61
480,82,26,14,-3,44,56,5,39
485,-10,-1,-14,10,16,50,2,3
490,-58,-14,9,6,-25,1,-22,-21
495,80,12,6,-1,19,55,3,106
500,22,6,-5,-8,-44,31,14,-15
505,-3,4,13,39,17,11,-7,-18
510,-24,-5,3,-31,3,-5,7,-17
515,-33,-6,-10,-4,-8,24,-9,19
520,2,4,-23,8,15,-18,3,-20
525,-1,-7,25,-39,-47,-41,-2,9
530,36,8,16,62,36,27,3,53
535,10,5,-3,-21,-23,-19,6,-5
540,-37,-10,3,-8,-23,-3,2,-41
545,-35,-13,-8,26,38,3,-6,40
550,55,21,5,1,-13,2,5,9
555,2,0,7,-29,12,-9,-7,38
560,-28,-7,-6,-28,12,31,5,-43
565,21,0,-23,-1,-22,-20,-13,-79
570,30,16,50,14,-43,-42,6,82
575,15,-3,-10,14,16,55,9,-26
580,-35,-8,-4,-5,-66,32,-14,-30
585,-10,-5,10,2,33,36,1,18
590,10,-2,-11,-21,22,47,-2,45
595,8,6,-6,-6,-16,35,2,-7
600,-41,-11,10,-47,-22,-9,3,-33
605,-14,-10,-2,37,39,-24,-25,-6
610,9,-15,-64,-43,-28,21,16,-28
615,29,5,12,-11,14,-12,-4,36
620,14,7,-4,6,19,-25,-2,-10
625,-33,-4,0,-34,-16,-8,9,-32
630,-57,-1,6,-40,37,-33,-13,-111
635,40,5,-4,14,-31,-82,-8,118
640,-38,-17,-18,-11,24,33,7,-20
645,61,17,6,5,-15,-40,12,36
650,-20,-6,21,1,-2,-17,-6,-33
655,-6,-3,4,55,12,23,2,-38
660,1,1,2,16,8,-19,-12,-32
665,-17,-4,12,40,-9,16,0,33
670,35,11,-23,-10,-2,-51,4,54
675,-26,-7,-3,-49,-19,47,-2,-45
680,-8,-3,0,1,-13,-38,4,15
685,3,1,1,13,-1,-14,3,-48
690,-12,-5,7,-19,-12,22,-7,3
695,-14,-1,19,-12,-7,-27,-9,26
700,45,17,-11,21,11,-8,16,60
705,-17,-6,2,-47,-34,-15,6,-33
710,-30,-12,15,26,1,-19,-14,-1
715,11,-7,-15,-12,1,-24,-2,10
720,-18,0,24,25,6,8,-18,-14
725,0,-1,1,30,23,-12,0,-1
730,-17,-7,5,-19,0,5,4,-52
735,20,11,6,-28,18,34,-3,42
740,-8,-4,-21,13,1,-37,12,-84
745,20,6,-9,-1,-5,-35,-6,53
750,-6,-4,-5,13,9,46,-6,-27
755,-4,2,9,-4,-20,24,9,30
760,-34,-15,-9,-42,-4,-58,-21,-81
765,16,11,9,11,-2,26,6,46
770,-9,-4,1,32,53,28,5,-14
775,-5,1,4,-24,-33,-13,3,-10
780,-8,-4,20,-21,-25,-11,-12,-17
785,-32,-14,-8,-11,-5,-3,-4,-53
790,52,15,10,-14,23,14,7,93
795,2,0,1,54,20,25,-4,1
800,-4,-1,-1,-5,10,19,-1,15
805,-21,-6,-13,-25,-17,24,-2,-71
810,0,-3,16,50,-11,8,8,43
815,39,9,-18,-33,52,-73,-8,1
820,25,10,16,29,-7,63,16,35
825,-7,2,23,-37,11,-4,-7,6
830,-15,-5,-32,25,-21,-17,-2,-9
835,-38,-15,40,11,-11,-22,-9,-94
840,55,9,-10,19,37,-15,8,115
845,14,3,-10,-11,2,3,10,-11
850,15,1,9,6,-6,1,-2,15
855,-6,5,-7,-8,7,4,3,-66
860,3,-3,0,-2,-5,-47,-14,21
865,-10,-7,1,23,4,41,-7,-7
870,-10,3,-14,-5,-12,-35,1,-54
875,12,-2,6,37,32,34,-2,27
880,-23,-11,-13,-20,-14,34,7,-56
885,51,7,-20,19,19,14,3,117
890,-15,-4,16,-27,-27,-38,-22,-18
895,-19,-7,-6,13,-9,17,3,-22
900,-19,-2,10,-4,20,26,-10,-23
905,13,-6,-10,-1,27,-14,11,27
910,3,5,-2,5,8,13,9,-36
915,-18,0,-9,-18,-25,-13,-1,31
920,10,14,22,37,-11,-6,-8,-11
925,-22,-3,30,47,15,40,0,-7
930,-7,-4,-8,31,59,-23,-4,34
935,40,2,6,-8,-30,16,2,16
940,-26,-9,-9,-5,-16,0,3,-40
945,3,-3,-7,-25,-18,-2,-3,22
950,-18,-2,-10,-35,-16,24,-5,-22
955,-4,3,-5,-9,31,24,-2,-6
960,-15,-7,-4,-8,-7,-21,3,15
965,-27,-11,-9,23,-6,-28,-5,-35
970,43,7,8,-5,-17,-4,8,23
975,9,9,-7,9,15,43,3,45
980,18,7,-5,-25,-25,-10,-4,8
985,-31,-5,-32,-45,-3,-9,-7,-51
990,-9,-2,-5,44,7,16,5,-14
995,0,-6,0,-11,5,-21,1,13
1000,19,0,12,34,30,-23,-3,19
1005,-16,-4,-3,-35,-44,5,3,-27
1010,6,12,38,-52,-6,20,-9,12
1015,-8,-5,26,85,-10,-4,7,-37
1020,5,2,-14,16,28,-11,4,36
1025,1,-1,-5,-21,-14,-11,-2,-25
1030,-17,-9,-11,-37,-13,0,1,-10
1035,1,4,10,33,-6,-8,-7,14
1040,-30,-12,7,-10,-15,-2,-6,7
1045,85,23,-4,37,22,16,16,52
1050,-17,-5,-10,-27,-11,-4,-4,-18
1055,1,-2,-13,-66,-22,-15,-7,-7
1060,-15,-7,-12,3,18,36,2,-25
1065,-23,-2,3,-42,3,3,-1,-9
1070,12,1,-18,-30,-15,-7,0,40
1075,-12,-2,-44,78,28,8,10,-34
1080,6,-1,5,-15,-7,10,2,34
1085,20,-1,-9,6,-6,-22,-7,1
1090,-8,1,8,15,-4,-28,0,-4
1095,-3,-9,-8,-62,-13,13,-6,-12
1100,-7,-5,-12,28,14,3,1,-4
1105,3,3,7,10,-8,-9,2,-30
1110,8,-10,-32,8,18,17,3,-16
1115,-2,1,1,-17,-12,-4,3,66
1120,19,4,-3,-42,-30,-10,-9,-6
1125,-6,9,16,13,19,7,-6,9
1130,-19,-9,-4,3,-3,-20,-3,-9
1135,11,-1,-10,-28,2,15,3,-32
1140,11,-4,-7,-22,-1,-33,-2,22
1145,3,0,0,19,0,11,9,30
1150,2,9,-1,7,5,-3,-6,-15
1155,-12,0,34,-23,7,0,-9,12
1160,-5,-6,-19,-3,-11,-33,9,-29
1165,-15,-7,12,-3,-16,-4,-7,-24
1170,-1,-4,1,43,19,23,6,31
1175,13,2,-8,-67,-4,-10,-8,-13
1180,6,12,10,19,4,4,6,7
1185,-10,-5,2,-2,0,-1,-7,2
1190,6,2,4,-7,10,18,-4,6
1195,-27,-6,-29,-4,-14,-28,-3,-40
1200,24,2,-8,-3,-10,19,3,58
1205,-9,-3,-22,-4,3,-8,6,-33
1210,-24,-9,11,-10,-2,26,-7,10
1215,49,15,-7,59,12,-25,8,-3
1220,-28,-8,-2,-14,-5,17,-7,-26
1225,-1,-1,3,-21,-18,9,-1,-3
1230,9,5,5,23,16,-3,2,-1
1235,-31,-3,30,-9,-19,-1,-4,-16
1240,9,-4,-17,6,-10,4,-6,11
1245,-33,-14,3,2,7,-12,-7,27
1250,21,10,1,11,-15,-14,5,-25
1255,8,1,3,8,12,-1,13,19
1260,19,6,26,27,6,9,-16,-14
1265,-6,-1,-24,-5,-13,-16,-2,-7
1270,-11,-4,-5,-13,3,-22,-7,-33
1275,4,-1,-8,18,1,38,5,32
1280,-41,-15,0,-36,-14,6,-2,-62
1285,37,9,9,24,24,16,9,85
1290,-7,4,10,-51,-19,-47,-14,0
1295,4,-8,-15,12,-2,12,5,-21
1300,-25,0,3,-11,17,-20,-2,-18
1305,-10,-10,11,-39,-5,10,-5,0
1310,35,6,6,-4,-7,9,5,16
1315,-8,-5,-6,-13,-13,-2,-14,8
1320,-2,4,-1,29,5,3,10,-17
1325,-15,0,41,-15,2,-20,-14,-36
1330,0,-3,-17,72,-4,-11,9,16
1335,8,-6,-1,-41,5,-3,-7,-14
1340,8,-1,-18,24,1,-3,5,33
1345,5,4,-2,-2,11,13,0,-9
1350,-27,-8,-8,-57,-13,3,-5,-29
1355,-13,-3,15,82,5,-11,3,18
1360,-12,1,27,-28,-10,-17,-19,-25
1365,26,3,-30,15,29,23,5,18
1370,7,-4,13,38,-9,30,6,13
1375,-18,0,-6,-40,-3,8,-10,-5
1380,7,1,-3,12,0,-4,5,-23
1385,4,-3,-4,0,-18,-5,2,-25
1390,-23,-5,-9,-27,-9,39,-1,5
1395,20,8,20,52,-5,-20,-3,24
1400,1,0,-6,72,30,15,5,31
1405,8,0,-11,-47,-11,12,4,-30
1410,4,-3,-18,-22,3,-14,-3,20
1415,-3,-3,0,16,-4,-3,3,17
1420,-7,4,-5,-37,-11,-6,-7,-2
1425,-24,-10,8,7,-7,-20,-5,-38
1430,66,18,21,-4,0,17,1,63
1435,-20,-11,-6,-37,-13,-3,-1,-26
1440,15,1,6,31,0,11,-3,18
1445,-10,-1,-11,-23,-11,-21,0,-60
1450,-7,-1,-8,-9,-7,-3,3,-17
1455,-2,-3,-5,-22,18,25,0,31
1460,-5,-10,-11,3,-21,-15,2,30
1465,10,3,6,15,-1,-7,-13,14
1470,6,3,-5,-9,4,-2,7,-25
1475,-4,-11,-16,-29,-10,-49,-19,0
1480,-31,-4,-1,-26,-1,12,11,-74
1485,16,7,13,6,17,7,-3,56
1490,-16,-10,6,62,8,-5,-10,-12
1495,-3,4,3,-5,-2,21,7,-44
1500,-5,-1,-4,-47,-18,-28,-4,-24
1505,6,-4,-4,11,5,-1,-4,89
1510,-10,3,4,-14,14,28,4,-37
1515,-22,-5,13,28,9,0,-5,-15
1520,39,10,19,14,-7,-47,-1,57
1525,12,3,-25,-2,-8,18,11,-24
1530,-25,-9,16,-30,-15,-9,-10,15
1535,-7,-2,-30,-44,1,8,2,-65
1540,21,1,0,1,24,25,-2,45
1545,13,11,32,15,12,8,18,11
1550,-4,-4,-10,6,-15,-38,-18,-15
1555,17,8,4,-7,-10,-5,-2,20
1560,-40,-16,-10,0,-4,18,-6,-64
1565,-1,-5,7,21,-8,11,-3,-6
1570,10,-4,-22,-10,37,35,0,44
1575,-10,-4,0,-20,-20,-64,0,-32
1580,23,6,-15,-19,7,36,5,28
1585,-30,-9,7,10,-23,-13,-8,-1
1590,-3,1,-7,-13,-6,-1,8,-32
1595,-10,-1,-5,-26,3,16,-3,23
1600,17,7,11,-27,-6,0,-9,25
1605,-40,-10,-18,-5,-5,-26,6,-55
1610,20,3,15,5,5,2,-3,29
1615,0,-7,-19,1,-18,9,-5,-3
1620,4,-2,9,43,-4,-11,3,-8
1625,7,6,5,4,-7,-9,-3,-7
1630,-27,-12,5,-29,2,6,-2,16
1635,40,16,19,59,18,4,9,-13
1640,-34,-9,-2,-26,10,7,-1,-2
1645,19,5,1,27,-13,-32,-7,-1
1650,-21,-9,10,5,-11,-11,-2,-28
1655,-2,-3,-5,-29,4,24,10,-3
1660,-10,-5,1,43,-2,-22,-15,9
1665,10,-7,-21,11,12,-3,-5,18
1670,21,6,-12,13,9,11,14,7
1675,14,6,-11,-39,-9,-11,-7,15
1680,-12,2,20,-6,-1,4,5,15
1685,-3,2,-4,4,22,22,-2,5
1690,-18,-4,-6,8,-28,-15,-7,-37
1695,-5,-5,6,25,2,-9,-2,18
1700,-26,-4,-4,-83,-28,-19,-4,-34
1705,37,7,-5,55,25,-28,-10,26
1710,22,4,12,27,18,7,5,5
1715,-23,-5,-8,21,-9,-27,3,0
1720,-5,2,-5,0,8,19,1,-29
1725,-3,-4,-1,-43,-27,4,-3,47
1730,-4,-3,-37,-55,-9,-24,-4,-30
1735,4,4,21,43,22,21,1,28
1740,10,-2,2,-2,-8,-38,-9,-29
1745,-18,-8,-19,-1,-2,37,12,-24
1750,17,7,-3,-10,-2,-7,0,22
1755,-10,-6,-6,-63,-7,2,-8,2
1760,3,-2,-33,-42,5,6,4,-7
1765,-14,-2,24,11,-19,-32,-5,-18
1770,35,0,9,79,17,25,2,28
1775,3,5,0,-6,-2,-7,0,-16
1780,15,5,4,-18,-2,6,-3,36
1785,-8,-1,-16,5,17,11,9,-10
1790,-14,-2,3,-6,-7,4,4,-40
1795,-8,0,1,2,-28,2,-8,-11
1800,22,2,14,38,2,-10,-2,27
1805,-24,-8,-27,-53,-6,0,-1,-44
1810,-2,-8,7,6,-1,-3,-1,30
1815,24,8,9,6,11,11,12,20
1820,16,5,9,-19,7,22,1,-5
1825,3,-3,-5,-4,-19,-2,-3,13
1830,-29,2,16,50,10,-10,-6,-30
1835,-11,-9,4,29,-13,-4,-5,6
1840,6,-2,-12,16,3,20,2,-19
1845,8,2,-3,2,4,13,2,5
1850,0,4,-8,-37,-12,-21,-6,12
1855,-3,1,1,-11,-9,6,-2,-5
1860,-24,-3,-18,25,17,22,1,-43
1865,26,-4,-9,-8,-16,-39,-7,62
1870,1,1,-6,25,3,6,5,-14
1875,-3,-6,-15,20,19,12,0,14
1880,16,-2,-4,-15,-17,-21,0,1
1885,1,5,3,0,10,31,-2,-9
1890,-10,-4,-8,-18,-5,-8,-1,-13
1895,-6,2,12,10,13,12,5,3
1900,-16,-9,-8,-4,-11,-34,-5,-5
1905,-2,1,9,-14,-9,4,2,-8
1910,1,-4,-27,-9,7,10,-2,10
1915,8,7,20,19,4,-5,-1,12
1920,7,6,7,-8,3,2,4,43
1925,5,3,5,1,10,-2,0,-7
1930,-6,2,0,-20,-7,-2,0,10
1935,-21,-8,11,-6,0,11,-2,-31
1940,-9,-5,-14,-32,-25,-11,-6,-1
1945,17,8,17,97,26,-8,2,-13
1950,2,1,-1,-11,-6,-7,7,-11
1955,26,7,3,-2,18,10,5,18
1960,-7,1,14,2,-10,9,-1,0
1965,-32,-8,-2,-2,4,8,-4,-63
1970,14,6,9,21,3,0,-1,52
1975,-5,-6,-15,-10,-10,-4,-5,-9
1980,1,3,2,2,7,5,4,3
1985,-17,-2,11,-43,-17,6,-7,-26
1990,-6,-9,-26,-21,11,-6,-4,1
1995,3,-1,-3,-25,-3,1,-4,32
2000,4,-4,-26,-5,12,10,3,-22
2005,-21,-5,-16,-51,-8,-8,2,8
2010,-9,2,26,-13,9,-5,-8,-52
2015,6,2,-9,33,-14,-9,-1,61
2020,12,2,-5,3,5,-5,1,-29
2025,1,-2,-1,-15,-5,-22,4,10
2030,-7,-3,0,-18,0,33,-1,-6
2035,-23,-10,-3,-18,-15,-27,-8,-48
2040,-10,0,14,24,3,0,1,8
2045,23,9,26,24,20,18,-2,64
2050,12,4,-6,15,-40,-29,-1,-2
2055,4,-1,26,32,17,20,4,-2
2060,15,-2,7,65,-8,-5,5,12
2065,-16,-6,-1,-14,-9,0,-8,-53
2070,-16,-9,-21,-7,14,0,-2,50
2075,15,5,-7,-20,-5,-3,0,-10
2080,-2,-1,3,-12,-16,-21,-8,-6
2085,1,-2,-6,7,6,9,-1,20
2090,-3,0,-5,-14,-3,22,3,-55
2095,-8,-5,4,-8,-2,-5,-2,22
2100,-8,-1,-2,-7,0,4,3,0
2105,-14,-4,-19,1,5,15,4,1
2110,-9,-6,3,-23,1,-22,-7,-12
2115,72,24,5,29,-6,18,6,42
2120,-15,-7,11,-40,-11,-15,-8,6
2125,10,-1,-1,17,2,31,6,10
2130,-9,-4,-4,12,9,-6,1,-30
2135,-17,-6,-11,-31,-3,-2,-3,-30
2140,5,5,2,5,4,9,2,21
2145,-9,1,-5,-18,-13,-12,-3,-21
2150,-2,-3,12,-3,-19,-4,-6,19
2155,-16,-1,-30,-2,33,-5,1,-13
2160,32,-4,-28,-2,-39,-29,8,6
2165,-22,-5,2,-19,1,5,-3,-84
2170,56,13,3,14,-2,-2,9,72
2175,-20,-6,9,-11,-8,-7,-8,1
2180,-16,-3,-2,-6,8,10,-4,-9
2185,1,2,0,-8,-9,-8,-2,-13
2190,-24,-7,-1,3,-10,-2,-5,11
2195,1,0,0,-16,-3,-6,3,-19
2200,-21,-12,11,-16,7,14,-12,-26
2205,42,9,-6,45,-3,-25,4,20
2210,-8,-3,-3,19,18,23,4,-3
2215,-13,-10,-4,-17,-11,-32,-2,4
2220,1,4,14,-6,-3,10,3,-8
2225,-14,-7,1,-12,-1,6,-8,8
2230,-13,1,4,2,-2,-6,-4,-45
2235,26,5,-7,0,-2,15,10,19
2240,-1,5,9,18,-4,9,-10,12
2245,-15,-6,-8,-36,-7,-12,-12,26
2250,38,8,-9,17,34,22,18,3
2255,-4,-8,-13,-12,-14,-36,1,-33
2260,-17,-5,-5,39,15,6,3,18
2265,34,8,5,-10,0,-27,-3,14
2270,-12,0,7,-6,-17,-21,-3,25
2275,1,1,-8,9,7,6,-7,-8
2280,4,6,3,-11,7,6,10,-6
2285,-31,-7,-9,-1,-5,-4,-6,-32
2290,2,-5,7,-2,-19,-8,-9,5
2295,17,1,-3,15,8,14,3,15
2300,5,-5,-15,-34,-9,-3,3,18
2305,-4,1,-4,21,26,53,5,-7
2310,-17,-5,-14,-6,-29,-60,-13,-7
2315,-17,-5,-3,4,3,23,-3,-32
2320,5,-3,-7,-3,0,-9,-1,8
2325,-19,-7,5,-35,-8,2,-1,-17
2330,-5,3,-3,-9,4,-13,-4,5
2335,23,5,21,29,-8,-1,1,20
2340,22,10,-10,-12,22,5,4,-16
2345,13,3,-2,29,-3,-1,5,6
2350,-4,-3,6,9,6,22,-1,-21
2355,-30,-7,-3,-38,-5,-7,-9,-7
2360,1,3,8,38,11,6,3,-3
2365,0,0,6,-15,-8,5,1,24
2370,-29,-8,-2,1,18,9,-1,-113
2375,-14,-2,-5,-63,-47,-9,-10,96
2380,57,11,-28,72,51,21,10,30
2385,-6,-6,-20,-15,-33,12,-9,-14
2390,18,5,1,21,3,-3,7,-2
2395,-45,-11,3,20,12,15,0,-62
2400,-35,-6,7,-22,-16,-7,-13,-79
2405,13,-1,2,23,-2,-13,2,105
2410,10,-3,-13,-13,10,25,-2,12
2415,37,6,-1,-20,-7,-5,0,-5
2420,-16,-2,-17,-27,-23,-17,-3,7
2425,8,3,-12,97,50,-8,0,-20
2430,-24,-8,32,-35,-31,7,-5,3
2435,11,-1,-13,29,22,-7,6,3
2440,-16,-11,6,-24,-5,1,-11,-11
2445,-1,3,14,-41,-16,10,-3,0
2450,17,7,11,7,-2,-29,-3,31
2455,-16,-4,-14,-10,8,2,-5,-84
2460,10,-2,9,18,13,6,2,70
2465,-22,-2,32,-5,-4,26,-1,17
2470,21,2,-6,-19,-9,-4,2,4
2475,-16,-8,-17,-2,11,-11,-2,-26
2480,-7,-2,-8,9,-5,-12,0,10
2485,1,-3,0,-43,20,-9,-2,-2
2490,-16,-1,4,31,12,36,4,-27
2495,7,1,-3,8,-11,-36,-6,12
2500,4,4,-6,-33,2,23,3,27
2505,9,1,-15,-15,-9,-56,4,-35
2510,9,0,2,-7,-2,19,-2,33
2515,14,5,2,0,4,8,3,2
2520,-24,-6,28,-5,13,4,-5,-32
2525,15,5,11,6,-19,-33,2,4
2530,-1,-3,-18,18,-1,-21,-1,13
2535,4,4,7,10,2,14,9,14
2540,2,-2,-6,-23,-9,1,-4,-5
2545,-18,-5,-6,-13,-4,-13,-5,-36
2550,-9,-4,0,-8,8,-4,-5,12
2555,23,6,13,46,11,23,-1,23
2560,-23,-7,3,-14,-17,-23,-2,-6
2565,22,5,-11,15,12,34,7,-6
2570,-7,-2,-6,3,-11,18,1,-1
2575,0,-5,-10,-23,-1,-13,-5,9
2580,0,0,-3,4,9,4,0,-19
2585,-4,-2,32,13,-3,13,1,19
2590,-12,-3,0,-9,-12,-14,-1,-38
2595,-16,-4,9,16,2,-2,-1,0
2600,6,-2,5,11,-3,-7,-2,23
2605,5,3,-9,-24,-1,9,-1,-1
2610,12,7,-2,-10,16,7,0,-3
2615,-29,-10,-2,-5,-7,2,1,-21
2620,5,-2,5,20,-13,-12,-3,-5
2625,-10,-4,-2,-78,-11,6,-6,-29
2630,-14,-7,6,98,18,15,2,34
2635,16,12,7,-1,-13,-48,-2,16
2640,18,7,-8,-12,-12,2,1,9
2645,-13,-4,1,6,9,8,0,5
2650,-1,0,5,-30,1,0,-6,-28
2655,-4,-3,5,10,9,9,-2,-2
2660,-9,-3,-7,22,-4,-2,-4,3
2665,-21,-6,-1,62,-2,2,-1,-21
2670,39,3,5,-37,-5,-29,1,49
2675,12,0,-18,14,5,17,1,-7
2680,-16,-8,3,-31,-4,-10,-4,4
2685,32,10,-6,10,1,3,3,-8
2690,-22,-2,-14,-41,-8,0,1,10
2695,-8,-2,14,15,0,8,-4,-9
2700,-13,-1,-5,0,26,16,1,-37
2705,-21,-9,-8,0,-64,-30,-3,2
2710,45,10,6,-5,-2,-12,1,54
2715,13,-2,-13,-30,-4,-10,-7,-24
2720,4,1,14,13,5,1,9,1
2725,-8,-8,0,-15,17,9,-3,-13
2730,-15,-1,-15,25,2,16,6,-24
2735,-10,-6,-1,-13,-5,-16,0,-7
2740,6,2,3,3,-6,3,-1,-1
2745,-29,-7,-8,-82,-14,-9,-7,-30
2750,60,13,-3,17,23,6,5,53
2755,-17,-1,24,30,-8,-11,-2,3
2760,29,5,-27,17,-14,-13,-1,16
2765,21,3,-11,26,20,-1,8,-2
2770,-29,-7,-9,-20,-9,-2,-8,-36
2775,-20,0,0,-9,7,22,-2,-8
2780,-7,-1,10,-8,-5,-11,-2,-9
2785,-2,-4,-6,9,-11,-11,-1,19
2790,-32,-8,3,9,10,12,-1,-90
2795,31,8,14,19,-12,-18,-2,103
2800,37,6,3,-26,-4,14,1,43
2805,13,5,-4,45,13,1,2,2
2810,-29,-14,-8,-3,9,26,-4,-19
2815,2,0,-3,-9,-29,-51,-1,-32
2820,-18,-5,-15,10,12,20,-1,-18
2825,7,1,0,2,9,-9,-1,-6
2830,6,-1,1,1,-14,-31,0,12
2835,-27,-2,3,-50,-6,25,-5,12
2840,11,1,41,-8,-4,-5,-3,12
2845,30,-3,-8,10,9,-8,6,36
2850,-22,-3,-1,-20,-9,11,1,-34
2855,8,-3,-4,-12,21,27,1,20
2860,-16,-8,-9,-22,0,-6,-4,-28
2865,-15,-2,-4,19,-10,10,-1,-10
2870,18,7,8,-29,8,-20,-5,19
2875,3,4,-12,38,34,26,5,8
2880,-7,0,-9,23,-21,-5,0,-18
2885,-16,-1,4,-8,-2,-26,-6,9
2890,17,4,-20,14,-6,4,3,-19
2895,-1,-5,0,11,10,6,-6,23
2900,-15,-5,-8,6,4,-4,-2,-5
2905,-8,0,10,-4,3,11,-1,-2
2910,-11,-2,4,-19,-24,-21,-7,-7
2915,2,4,-15,-7,10,24,1,-16
2920,-3,-3,8,26,9,4,1,-11
2925,0,0,0,-27,-8,2,-1,-2
2930,-36,-9,-10,14,28,9,6,-14
2935,51,17,42,51,-37,2,1,-4
2940,1,4,2,5,8,2,1,27
2945,10,-2,-18,-19,9,-12,0,9
2950,-13,-1,9,15,-1,25,-2,5
2955,-16,-7,1,9,11,-33,1,-34
2960,5,-1,-4,-12,0,25,-1,2
2965,0,5,7,-20,-29,-29,-5,4
2970,23,4,-27,10,-1,-28,4,23
2975,-17,-7,-15,-18,-2,6,-3,-28
2980,-11,-1,-4,17,10,9,4,0
2985,-3,-4,7,-25,0,-16,-7,-9
2990,6,4,30,1,13,17,-5,8
2995,-40,-16,-17,-10,-19,-44,-1,6
3000,34,7,-19,-64,10,-1,0,-1
3005,-5,-1,1,-7,3,24,0,9
3010,15,1,10,23,12,-7,-5,4
3015,-10,-1,6,-23,-20,4,2,-52
3020,-4,-11,-4,18,2,5,-4,-6
3025,5,2,0,0,2,0,0,26
3030,1,1,-7,15,1,0,-1,22
3035,-2,-3,-11,-26,-1,-27,2,-9
3040,-11,1,0,-11,-18,-19,-4,-11
3045,3,-2,-10,12,10,26,-1,-5
3050,-24,-6,3,-8,-8,-14,0,-35
3055,-7,-3,-3,-17,-14,31,-2,27
3060,31,9,-10,-20,-1,-4,-1,26
3065,6,-2,8,33,17,-12,6,-43
3070,-11,-4,3,-19,-21,-2,-8,9
3075,11,0,-8,15,18,24,1,7
3080,-4,1,7,-20,0,-14,-7,-8
3085,-25,-5,-2,-50,-20,35,0,-33
3090,1,0,-8,57,6,-73,-1,16
3095,37,14,26,15,20,44,2,40
3100,-20,-6,-12,8,-9,-15,-1,-33
3105,12,1,-1,-3,1,-2,-7,30
3110,-10,-2,8,-15,3,20,1,-12
3115,-12,-5,-2,-15,5,9,0,-27
3120,9,2,3,17,-15,-16,-1,14
3125,6,1,9,33,23,15,6,8
3130,6,1,-3,-27,-13,30,-2,-11
3135,-19,-5,-8,-12,-14,-17,-5,-32
3140,4,-2,4,9,6,8,-1,27
3145,0,5,1,6,-4,-20,3,3
3150,19,3,3,3,-4,6,3,4
3155,6,-5,-16,-15,-12,-5,-8,3
3160,-31,-7,10,13,11,-20,-2,-37
3165,9,3,1,-38,-8,24,-7,21
3170,-9,-6,-16,-30,-20,-6,5,4
3175,-2,0,2,1,-5,-29,-5,-63
3180,37,6,22,33,10,23,10,70
3185,0,-2,-20,7,-2,-2,0,-11
3190,-18,-5,5,-16,-18,-20,-3,18
3195,-17,-6,-9,6,18,7,0,-42
3200,7,7,-20,0,-7,3,5,32
3205,-10,0,3,29,14,-3,-3,-27
3210,6,-2,2,2,-14,14,-2,-2
3215,-8,-2,-4,2,5,-7,1,35
3220,-9,-3,-2,-26,-12,-41,-4,-5
3225,-8,3,11,47,-21,-6,-5,-53
3230,-4,-8,5,-11,2,-7,-10,53
3235,35,6,-23,-11,2,20,16,18
3240,-17,-3,3,-9,11,12,1,-23
3245,0,-2,4,1,3,-3,-2,16
3250,-25,-5,9,-4,-11,-10,-2,-21
3255,12,-5,1,-10,11,-5,-11,-3
3260,-15,-9,-11,17,-7,-16,4,12
3265,6,2,8,1,10,-6,-1,-4
3270,18,4,-6,-5,16,41,5,13
3275,-7,0,3,18,-15,-33,0,40
3280,-4,-2,-12,33,9,48,-2,-44
3285,-6,-6,-6,-1,2,-6,0,12
3290,-22,0,4,22,-2,-4,-4,-58
3295,30,0,-13,46,24,28,9,55
3300,10,2,0,-16,-3,10,-5,-14
3305,16,2,2,-15,-6,-6,3,25
3310,8,4,6,15,4,5,2,-14
3315,-39,-8,7,-9,-11,0,-8,-41
3320,-8,1,19,-20,-7,-2,-2,-34
3325,3,-8,-22,3,6,-8,-3,50
3330,-5,-1,-7,7,3,12,6,-15
3335,35,16,22,1,-11,-2,1,29
3340,-7,-10,-18,-25,-8,-39,0,-9
3345,-5,-4,16,-19,-14,14,-4,8
3350,1,-6,-1,-29,4,-5,-2,-21
3355,-10,-3,19,29,3,-1,-4,3
3360,-20,-2,-3,-6,-4,-2,2,-22
3365,2,5,11,18,-8,-7,-5,-7
3370,16,0,-9,-2,2,-15,1,24
3375,1,1,10,-1,-9,-11,0,-13
3380,9,2,-1,-22,-3,3,-6,10
3385,-16,-7,-14,24,23,33,11,-4
3390,13,4,-4,-16,-18,-53,-7,5
3395,-36,-10,-8,5,-2,3,-6,-22
3400,0,-1,0,-37,-1,-18,-4,18
3405,13,4,-10,18,-6,16,8,-26
3410,12,4,7,4,22,26,2,17
3415,-26,-13,-13,-23,-7,-4,-4,-19
3420,-7,4,-13,-36,11,4,0,-27
3425,45,10,-4,-14,-4,-37,4,54
3430,8,-1,-4,3,-7,20,-1,18
3435,-15,-5,0,-2,2,-29,1,-7
3440,-4,-6,7,-9,8,34,2,-6
3445,-2,2,7,16,-1,-27,-6,-12
3450,-16,-5,-14,-4,4,20,-2,-10
3455,18,6,-12,17,-5,2,8,0
3460,-8,-4,7,10,-2,-4,0,7
3465,9,6,10,8,9,8,-1,14
3470,2,-6,-9,-16,-5,-6,-3,-8
3475,1,7,15,-14,18,-13,-2,-3
3480,-1,-3,-3,17,-16,-2,0,0
3485,-27,-8,-10,-9,-15,-4,-8,-49
3490,-30,-5,5,-31,2,29,-2,37
3495,49,9,-9,18,12,13,7,17
3500,12,1,3,24,6,-9,3,9
3505,-7,-5,-11,-27,-1,5,-7,-14
3510,-10,-3,1,-5,-27,-17,-3,-35
3515,-22,-7,-10,-22,8,10,-3,-10
3520,16,4,5,21,-4,-7,-1,19
3525,-51,-18,-3,-13,-18,12,-3,-4
3530,75,21,16,5,36,-7,6,21
3535,8,3,-1,-5,-5,-3,-3,34
3540,-5,-3,0,25,-4,11,1,-16
3545,-13,-1,-1,-7,17,-9,4,-29
3550,-7,-4,-3,5,-7,16,-2,3
3555,0,-2,-10,-8,-15,-23,-3,1
3560,-5,-1,5,-4,0,0,-1,-15
3565,-1,-3,0,-8,-1,9,-3,9
3570,-30,-4,13,7,-17,-11,1,-43
3575,0,-5,-17,-50,25,15,-14,16
3580,29,7,-38,-5,15,9,17,33
3585,23,5,9,7,-2,-15,2,26
3590,4,1,5,35,7,-2,-4,-7
3595,-37,-4,9,-13,-9,0,-3,-44
3600,-17,-6,-6,-16,-8,1,-8,-6
3605,11,2,-11,1,3,-3,-1,13
3610,-9,0,-5,-14,1,1,2,-9
3615,-3,-2,6,3,-4,8,3,2
3620,-3,-2,9,13,-6,-5,-5,7
3625,-19,-4,20,12,3,9,2,-79
3630,5,-2,-21,-21,-3,1,-6,71
3635,6,1,-17,-40,-25,-66,4,-8
3640,43,8,37,13,18,15,1,24
3645,14,-1,-26,-7,-1,-2,3,-8
3650,-17,-6,-8,4,11,11,0,-25
3655,-8,-3,0,-4,-7,12,-1,-5
3660,-20,-2,-4,-17,-11,-4,-4,-15
3665,-16,-7,3,-23,-8,-4,-6,11
3670,-7,0,8,14,1,-5,1,-8
3675,35,15,7,25,-4,19,10,42
3680,-17,-3,5,24,8,-5,-8,-49
3685,19,3,-9,4,-3,18,7,18
3690,-2,-8,-11,-12,0,-13,-8,21
3695,13,2,16,26,7,15,4,-10
3700,-12,-5,-7,-1,-9,-14,-5,-6
3705,8,1,3,-19,-14,-11,-7,-2
3710,-12,-2,-16,13,10,0,3,4
3715,-14,-2,-5,-18,8,28,-11,-51
3720,1,-4,8,5,0,-34,5,41
3725,4,2,5,11,0,-1,-1,13
3730,-1,2,17,-8,-21,-13,-3,-17
3735,0,-6,-14,40,13,17,0,19
3740,-27,-5,-12,22,4,-7,2,-34
3745,-3,0,5,-22,0,-11,-4,-17
3750,35,8,5,0,-15,-2,2,45
3755,-12,-3,-5,-6,-5,-4,-2,-34
3760,-3,-3,-13,-30,-4,18,-1,8
3765,-10,-7,-6,34,16,-21,3,14
3770,6,0,2,-18,-13,1,-1,-41
3775,6,-4,-6,-15,-6,-14,-4,34
3780,9,4,1,-2,-16,3,0,-3
3785,-10,0,6,-22,-8,8,-5,26
3790,-2,-2,-4,31,4,-1,2,-16
3795,-28,-9,-9,-18,-12,-7,-7,22
3800,10,3,5,-37,11,12,-1,-12
3805,13,-2,1,16,23,9,0,11
3810,1,4,-5,-22,-5,-15,7,-52
3815,3,1,23,47,-9,-11,-4,13
3820,14,2,-2,8,4,-10,-3,17
3825,-9,-1,-9,-4,-1,9,-5,-6
3830,-19,-6,-4,-4,4,6,0,-13
3835,7,0,3,-6,-5,-9,1,-10
3840,-33,-7,-10,18,12,-1,-6,-65
3845,33,5,-8,30,-22,-5,6,84
3850,20,2,-1,3,1,1,0,3
3855,-5,-2,-3,-7,-5,2,-1,-14
3860,6,-2,5,10,-8,-3,-4,16
3865,-27,-4,-1,-6,4,14,-1,-32
3870,4,1,-4,0,9,2,-1,17
3875,6,0,5,16,5,1,2,4
3880,-10,-1,0,-19,-2,-2,-4,-3
3885,-25,-3,3,-21,-24,-8,-8,-28
3890,-8,-6,-19,7,19,-3,7,-11
3895,61,8,20,3,29,29,4,70
3900,3,1,6,25,-14,-48,-4,-14
3905,2,2,-1,-10,-4,-9,-1,-4
3910,-19,-4,-2,6,-6,5,-3,-16
3915,-25,-4,-8,-3,-2,11,1,-17
3920,3,1,-1,-6,-3,12,1,21
3925,6,2,7,-4,16,9,-1,-6
3930,-17,-6,9,20,-16,-25,-5,3
3935,-16,-9,-16,-13,8,22,1,-57
3940,7,4,20,-25,-15,5,-2,40
3945,26,11,-11,-1,2,-9,5,24
3950,38,9,10,13,34,22,1,14
3955,0,4,13,3,4,8,6,7
3960,-5,-14,-17,4,1,4,0,-13
3965,-17,-8,0,-3,5,9,-3,-27
3970,2,0,-1,-11,-7,2,0,14
3975,-18,-4,-4,-8,-7,-16,-1,3
3980,-7,2,-3,-5,1,5,-2,-29
3985,25,12,18,17,-5,-2,-2,12
3990,-7,0,-1,18,-1,-8,0,-5
3995,-3,-8,-9,30,-23,-12,-4,-6
4000,-15,-4,-24,-16,11,6,6,8
4005,3,-6,-8,8,11,-1,3,-14
4010,-11,-2,11,-13,-23,-19,-8,-13
4015,-21,-7,-3,-4,-6,-15,-1,-25
4020,26,11,14,3,-4,5,-2,34
4025,5,-2,-5,-2,14,10,-2,6
4030,-10,0,-4,-28,9,29,0,4
4035,12,4,5,-15,-12,-14,-2,8
4040,-11,-5,-2,15,19,26,-2,-31
4045,-8,-1,6,-6,-17,-33,0,-39
4050,13,-2,13,0,-16,7,2,51
4055,5,2,-14,-18,-17,-24,-5,-4
4060,5,-3,-2,0,-3,-1,1,11
4065,-13,2,0,-8,10,-2,0,-15
4070,-1,-4,-13,-15,-6,-18,-2,-6
4075,-2,1,24,-6,7,7,-3,-16
4080,-5,-3,-9,-9,-8,-12,-3,-4
4085,-16,-5,8,13,-15,-1,-1,14
4090,-29,-11,-14,-34,-8,-6,-2,-16
4095,55,24,4,32,25,11,3,60
4100,18,2,1,15,11,23,8,3
4105,-6,-2,6,0,-36,-23,-1,-14
4110,-14,-4,6,5,22,7,-3,-12
4115,-19,-6,-8,-2,3,7,1,-20
4120,-6,0,-1,2,-12,-11,-3,1
4125,12,2,1,9,0,5,-1,17
4130,-20,-5,-3,-12,0,9,-1,-32
4135,5,-3,-14,3,22,1,5,16
4140,20,0,5,26,-4,10,2,29
4145,-3,-3,-1,-29,-5,-5,-3,12
4150,12,9,3,48,7,-11,3,0
4155,-21,-8,2,-12,-6,2,-8,-33
4160,-28,-5,-2,8,-1,-4,-1,-16
4165,1,-1,3,-19,6,23,-2,2
4170,0,-1,-10,-25,-9,-25,-8,14
4175,-16,-7,-14,15,-1,-16,10,-42
4180,26,12,5,1,7,-9,-5,42
4185,-6,-5,-21,-4,-3,-24,3,-16
4190,18,5,11,14,14,8,1,-18
4195,-7,-5,4,-11,-12,5,-3,6
4200,-13,-5,-7,-15,-15,-12,-4,-14
4205,-3,-1,4,3,7,1,-1,5
4210,2,-1,-3,16,-4,1,2,1
4215,-6,-3,4,-5,-9,5,-3,-3
4220,-25,-2,13,-26,-16,-4,-5,-23
4225,29,3,-31,21,17,10,8,17
4230,16,2,5,-8,-1,-9,4,34
4235,8,-1,-6,-17,-14,-14,-9,3
4240,-12,-5,11,-2,2,1,0,-26
4245,-30,-11,-5,-1,-1,4,-5,-14
4250,4,-1,-1,1,-2,0,1,2
4255,2,2,-1,-2,2,-2,1,5
4260,-4,-2,-9,-3,-3,-9,-1,-7
4265,-9,0,7,4,-5,-2,-3,-32
4270,-4,6,-11,-17,-4,12,-2,47
4275,54,12,31,34,29,37,3,46
4280,11,-5,-31,-33,-31,-66,3,-24
4285,-9,-4,11,10,15,37,0,19
4290,-11,-9,-7,-22,-20,-23,-1,-25
4295,-26,-5,-6,-11,-4,-6,-5,-20
4300,-1,0,-3,11,8,15,-3,17
4305,1,4,-1,-22,-7,-11,0,-9
4310,-12,-1,6,4,-3,-5,-9,-1
4315,-15,-6,1,-14,-1,-2,1,5
4320,5,-5,12,14,-7,12,5,34
4325,31,16,-7,-4,-4,-11,-1,-22
4330,3,-5,13,12,23,35,1,-12
4335,1,-5,-22,-24,-8,-20,-1,-12
4340,-27,2,-1,-4,6,6,1,9
4345,3,-1,8,-16,3,10,0,11
4350,6,2,-1,24,-1,11,-3,-20
4355,-6,-2,-7,-16,-5,-5,2,19
4360,4,-3,-21,2,5,6,-3,-6
4365,-8,-3,9,23,8,8,-3,-18
4370,0,-6,2,-1,-8,-61,-3,-12
4375,-6,-2,-7,19,-8,5,3,1
4380,25,4,0,7,3,-22,-2,-8
4385,5,3,-4,-24,-15,-22,-5,23
4390,-2,0,12,-11,2,19,5,-18
4395,-27,-11,-22,3,-6,-23,0,-44
4400,31,9,11,-9,6,16,4,48
4405,-13,-4,-5,1,15,5,-3,-30
4410,4,3,-8,-5,0,16,6,48
4415,14,6,21,10,-11,18,-3,-11
4420,-5,-5,-15,1,11,20,-2,-27
4425,-24,-9,8,-9,-3,3,0,40
4430,47,12,-1,10,-5,-9,0,2
4435,-4,0,4,3,14,6,-2,2
4440,-11,-1,-1,-19,1,-3,-2,-33
4445,0,-4,-5,25,-16,0,1,29
4450,-11,-8,-24,-27,-4,3,-1,-15
4455,-12,-2,6,-3,-9,-12,-1,-16
4460,9,1,-12,-46,5,-5,-8,7
4465,17,8,6,24,7,41,14,5
4470,17,3,-13,-8,-31,-15,-3,42
4475,-4,-4,-12,-1,14,5,3,-24
4480,-24,-4,11,13,-25,-17,-3,-29
4485,-11,-3,24,25,9,7,-6,8
4490,19,3,-7,-1,-3,6,-1,-17
4495,-12,2,29,-37,-4,19,-5,2
4500,-16,-14,-31,-3,2,-29,-3,9
4505,12,6,-2,4,-1,-3,4,-27
4510,-11,0,23,44,9,9,-1,-13
4515,-12,-3,-7,4,-2,-4,1,10
4520,18,3,9,13,5,4,-2,35
4525,1,-4,-15,-11,-10,-15,-4,-20
4530,-20,-2,1,4,6,17,-3,-1
4535,-28,-7,5,-16,-2,-6,-1,-41
4540,2,3,14,18,-26,23,-6,11
4545,27,6,-23,15,20,-25,10,49
4550,-2,-7,-4,-17,9,12,-3,-41
4555,6,3,-6,9,0,-6,-5,18
4560,-2,2,12,17,16,50,6,-3
4565,-10,-5,5,-17,-10,-35,-10,-4
4570,-18,-3,6,-13,-6,-1,0,-23
4575,-9,-4,-23,-30,-8,-10,-3,-21
4580,51,18,14,19,15,1,6,76
4585,-11,-3,6,-26,-23,-4,-8,-41
4590,-2,-3,-19,50,27,5,6,11
4595,19,2,-4,7,-7,4,-2,-17
4600,-20,-3,3,-6,4,-7,-3,-31
4605,-9,-5,-1,-8,0,10,1,6
4610,-14,-2,7,-28,-19,-10,-6,-9
4615,7,9,15,-6,0,-6,-7,52
4620,8,-2,4,29,1,-31,3,-17
4625,-3,-6,-1,11,6,20,3,-17
4630,-7,-3,4,1,3,-18,-3,12
4635,-4,-3,-9,-5,13,18,1,3
4640,-25,-8,-2,-23,-21,-34,-3,-27
4645,7,3,2,4,2,7,-2,16
4650,-13,2,-6,-12,-8,-12,-1,14
4655,13,4,-2,3,-20,8,-8,10
4660,-4,-3,11,54,17,-50,0,-3
4665,-4,-6,-13,-10,1,9,3,-4
4670,11,-3,-6,-2,19,18,4,4
4675,5,2,7,2,-12,-16,-3,8
4680,-14,-6,-5,0,3,22,-4,-24
4685,-12,-6,0,-10,-5,0,-5,-12
4690,-17,2,3,-5,-8,-11,1,-22
4695,45,13,41,12,22,-13,-4,57
4700,1,-6,-26,-13,-42,8,10,-26
4705,-9,-3,-11,-16,1,-2,-3,-3
4710,-11,-8,-5,12,5,13,-2,-21
4715,-3,-1,-12,-21,-13,-45,-4,-15
4720,-2,0,0,16,13,21,-4,17
4725,2,-1,7,-1,-1,-9,-2,-14
4730,-19,-10,1,5,-11,0,-3,-11
4735,-5,9,11,38,-14,16,5,24
4740,13,6,-4,-61,25,-10,-2,-4
4745,1,0,-15,30,17,-2,5,-12
4750,19,2,14,-18,-4,-2,-2,18
4755,0,-8,-9,40,1,13,5,-17
4760,-14,-3,0,-36,-7,0,-8,-5
4765,-9,-2,7,12,1,4,-4,-7
4770,-5,-1,-22,-18,8,0,-5,-4
4775,-8,-5,1,-18,-6,-3,1,-14
4780,3,9,17,40,16,33,6,8
4785,26,4,2,-9,-11,-22,-9,-2
4790,7,4,13,22,-11,-9,0,22
4795,-13,-9,-27,-2,16,14,1,-10
4800,-13,-5,-3,-10,4,19,0,-22
4805,-10,-1,3,-1,8,-8,-1,5
4810,8,2,10,3,-3,-4,1,6
4815,-5,-1,13,-1,7,11,-2,-13
4820,-27,-8,-31,-30,-11,-16,-5,10
4825,47,5,-3,30,-24,-21,8,44
4830,17,3,-3,-10,-3,2,-3,7
4835,-8,-6,-11,-12,1,12,2,-8
4840,3,0,2,-3,-2,5,-4,3
4845,-19,-2,0,-12,7,14,-3,-3
4850,-12,-3,0,18,-7,-6,1,-28
4855,-17,-5,-32,-58,-17,-6,-3,24
4860,56,16,7,45,51,17,6,19
4865,-16,-5,-3,-16,-17,8,1,-16
4870,13,-1,1,19,-2,-31,-5,17
4875,-24,-5,0,12,4,-4,-4,-10
4880,-15,-7,2,-13,-19,0,-2,-18
4885,-3,0,0,-2,3,-5,-1,30
4890,-18,-9,-9,-53,10,15,0,-23
4895,69,25,-6,27,-8,-13,5,24
4900,-20,-8,-9,12,-11,-18,2,-3
4905,15,3,1,6,8,19,4,5
4910,-14,-6,-10,-29,-20,-24,-4,-12
4915,-4,-4,-3,-4,10,11,-2,5
4920,-5,0,9,12,-3,-3,-5,-3
4925,-7,3,-1,-10,1,-5,-2,-29
4930,12,4,5,24,11,29,6,40
4935,15,3,-1,5,18,-26,-2,-7
4940,-6,-6,1,-11,-20,15,-3,-33
4945,-9,-5,1,-10,-19,-15,-4,10
4950,2,0,1,11,0,-19,0,10
4955,-16,-2,17,-13,14,20,2,-19
4960,54,12,-14,8,0,-17,4,59
4965,-13,-4,-10,-14,9,13,-1,-21
4970,11,2,4,13,-6,8,2,16
4975,-21,-7,1,-8,-4,0,-2,-24
4980,-26,-4,11,-11,-8,-7,-4,-23
4985,-6,-4,-8,15,10,1,-4,28
4990,21,8,-3,-30,15,38,-5,17
4995,0,0,-10,-21,-9,-14,2,-16
5000,-8,-5,-4,27,2,16,1,-5
5005,-11,-5,-9,-8,-13,-35,-2,-11
5010,-33,-8,6,-20,-2,11,-8,-47
5015,9,-3,-7,-8,-7,0,1,63
5020,2,-3,-5,0,14,-9,-2,17
5025,21,14,10,-22,-16,20,2,-16
5030,-3,-2,-9,31,3,-19,1,21
5035,0,3,11,3,-5,-1,0,-23
5040,-18,-7,2,-3,-5,-26,-4,-10
5045,-10,-5,10,-2,-6,1,-3,10
5050,-9,3,-3,39,29,-5,4,-30
5055,46,11,12,9,-19,3,2,30
5060,-1,-3,-10,-27,-6,19,6,1
5065,-3,-2,0,8,4,4,-4,1
5070,-11,-3,-4,-22,-13,-6,-1,-17
5075,-24,-11,-8,10,-24,-20,-3,-46
5080,13,-1,-4,-2,11,18,-4,69
5085,32,17,4,-1,-3,-17,9,-19
5090,-6,-2,-3,6,-7,3,3,10
5095,2,-2,8,0,11,13,-1,3
5100,-12,-3,-2,-2,-14,-14,-2,-9
5105,-16,-7,-5,-6,21,19,-2,-17
5110,3,-2,16,22,-15,-14,-5,14
5115,-22,-3,7,-7,5,0,-3,-12
5120,67,11,-9,-16,-11,-8,5,20
5125,-3,-4,2,31,16,30,0,16
5130,6,1,0,-17,-5,-26,0,-13
5135,-10,-5,-3,26,8,8,-1,-3
5140,-28,-5,4,-6,-4,-3,-4,-23
5145,-20,-6,2,-2,-8,1,-2,-42
5150,32,5,-15,-31,-19,-22,-6,57
5155,9,-1,-22,10,4,4,9,-6
5160,-11,-4,1,-3,8,-4,-4,-31
5165,7,0,-4,1,-4,-12,0,6
5170,-21,-4,7,-10,8,16,-2,-21
5175,-8,-1,-10,-13,-3,-19,-6,-4
5180,-6,6,19,23,-3,18,1,-12
5185,-31,-12,-8,20,20,-19,-3,-2
5190,63,9,-4,18,11,-4,10,34
5195,4,3,9,-6,-4,-7,-3,17
5200,-19,-3,-4,7,11,12,-1,-20
5205,-13,-4,-2,-20,-31,-11,-4,-7
5210,-5,0,5,3,2,17,2,-2
5215,-8,-5,-7,8,0,-11,2,6
5220,-18,-1,3,-2,15,-7,-3,-12
5225,20,3,7,-6,-21,-4,0,32
5230,7,4,1,5,3,12,4,-18
5235,0,-4,2,-16,-10,18,-5,0
5240,-17,-4,3,-10,5,-49,-7,-22
5245,9,2,-11,-7,2,-15,-2,20
5250,-26,-6,12,3,-10,10,-2,-48
5255,18,4,2,-1,6,12,-5,37
5260,13,1,-1,15,27,7,4,11
5265,-3,-1,-3,7,-21,10,0,-10
5270,-10,-1,28,-21,-18,-54,-4,-15
5275,-11,-3,-12,-4,11,9,1,12
5280,-2,-1,3,-7,-4,14,2,-18
5285,8,3,12,7,-16,-3,-3,22
5290,-9,4,-8,23,11,20,-7,-20
5295,-7,-2,-14,-8,-2,12,-1,0
5300,34,9,12,-1,11,15,7,12
5305,-1,-2,4,-15,7,-18,0,-24
5310,19,2,-6,4,-4,15,0,21
5315,-10,-4,-2,25,5,-5,-4,-18
5320,-11,-4,-6,-12,-18,3,-1,-7
5325,17,7,-9,-27,14,7,-4,15
5330,7,-1,-6,24,14,25,3,26
5335,8,3,10,4,3,-11,3,-34
5340,-14,-10,-9,-17,-20,-2,-5,19
5345,2,-3,4,23,6,11,-2,6
5350,-21,-8,-18,-45,5,-18,-2,-27
5355,-4,2,10,1,-4,1,1,0
5360,-1,0,-9,10,-6,13,1,-2
5365,5,2,-3,4,26,30,-1,-11
5370,3,-2,17,17,-7,-24,-2,16
5375,-20,-10,-7,0,1,-26,-3,-8
5380,11,3,-13,-16,2,-5,-1,8
5385,-11,-2,0,-4,-9,-12,-2,-6
5390,12,2,-12,-24,-7,16,1,9
5395,-3,-3,6,10,11,-12,-2,-12
5400,-12,-5,23,38,-24,-21,-7,-13
5405,-11,-2,-10,-12,18,2,0,9
5410,17,2,-22,-6,-16,-1,6,-9
5415,0,1,-2,6,6,20,-1,17
5420,11,3,0,-4,-8,-15,3,-26
5425,-6,-8,-1,-5,-3,-3,-5,9
5430,-19,-1,21,5,-1,18,-5,-26
5435,4,2,-5,3,7,-19,5,13
5440,22,5,-3,-8,-5,10,-1,-16
5445,10,3,3,8,-4,3,2,23
5450,-8,-2,-12,6,0,-2,0,-5
5455,6,0,2,-6,-17,-11,-1,-11
5460,-35,-5,21,-30,-12,15,-9,-27
5465,19,-2,-25,11,0,-19,6,16
5470,10,1,-9,-11,6,5,3,25
5475,0,1,9,4,-13,8,-2,-16
5480,-3,-2,-8,-7,3,36,1,17
5485,-18,-4,6,-15,-5,-8,-7,-22
5490,-7,1,1,25,1,4,-4,1
5495,6,1,-8,10,9,20,7,3
5500,-13,-2,4,0,0,-7,-5,-35
5505,1,1,5,-2,10,12,0,19
5510,-25,-8,-10,-6,-2,-37,-3,16
5515,-3,3,6,-10,-7,-4,-4,-13
5520,8,-3,-20,-1,17,6,-2,16
5525,-10,-4,-4,7,-28,14,5,-20
5530,5,3,9,6,2,1,-2,1
5535,-1,-2,-8,-6,11,0,-2,-19
5540,-4,2,-3,7,-22,-15,5,43
5545,-1,1,10,2,10,-2,-3,-28
5550,7,-1,-1,-11,-3,7,-2,9
5555,-7,-2,-8,-12,-17,-40,-3,0
5560,-13,-1,1,9,25,-4,4,-27
5565,26,6,-1,6,-5,11,0,18
5570,-5,-1,-8,19,-3,-26,-1,-33
5575,10,2,9,-6,4,6,-4,51
5580,-10,-9,-7,-16,-7,7,-2,-4
5585,-15,-5,-13,-11,5,-40,-3,-41
5590,-1,0,14,14,2,12,-1,16
5595,5,3,-9,1,-8,-9,0,-25
5600,26,3,-1,-6,3,-3,6,45
5605,-9,0,2,3,-13,7,-2,-9
5610,-4,-2,-13,-14,-1,-1,-4,-8
5615,-7,-4,7,15,5,14,-1,9
5620,13,6,5,-12,-18,-40,-4,9
5625,-3,-2,-3,18,16,9,4,-8
5630,-9,-3,1,-10,16,-7,-2,27
5635,10,-1,18,3,-29,-8,-1,-5
5640,-10,-4,-15,-15,5,-9,-6,-9
5645,5,3,-10,-3,7,24,4,11
5650,-11,-1,-1,-12,-14,-12,3,-37
5655,16,0,3,0,15,12,1,20
5660,11,-1,5,20,-19,-22,-1,23
5665,-13,-5,-2,-18,-7,-2,-6,-17
5670,-13,0,4,36,26,17,2,-6
5675,11,3,-12,-44,-26,-6,0,2
5680,-5,-2,-2,32,11,18,3,5
5685,8,-1,1,-5,3,0,0,4
5690,1,-4,-1,-17,-12,7,-1,1
5695,-19,-1,5,0,5,-23,-7,-36
5700,11,1,2,-9,13,11,-2,29
5705,3,1,5,-1,-4,4,0,-8
5710,-7,-5,-2,-9,-12,8,3,21
5715,12,4,-7,3,18,11,-3,-25
5720,-11,-5,2,0,-8,3,1,7
5725,-4,-2,-7,-20,-4,-5,-8,-5
5730,9,6,-8,15,18,8,5,-17
5735,-5,-8,-4,-9,-24,10,1,27
5740,-4,0,1,-11,6,12,-2,-22
5745,10,0,2,3,-9,-3,0,33
5750,5,-1,-3,-11,4,14,-1,-5
5755,-17,-2,0,9,15,-1,-2,19
5760,5,-2,-12,3,5,2,1,12
5765,-7,-3,12,10,-26,-17,-2,-23
5770,8,0,-9,-46,0,3,-6,-7
5775,1,0,-11,-3,11,22,2,-1
5780,-7,2,2,6,-5,-9,-3,-6
5785,-11,-2,-6,-1,15,0,3,5
5790,17,1,19,4,-12,-11,-6,4
5795,-10,-7,-11,13,-7,-25,0,15
5800,11,3,-1,-7,2,12,1,-36
5805,-8,-3,-5,-36,17,9,-1,21
5810,4,0,-11,11,-5,-27,-2,-40
5815,1,3,-1,-16,-15,-26,-2,44
5820,5,1,7,11,-4,-1,2,3
5825,-8,-4,3,-5,0,0,-5,-12
5830,-6,-1,4,0,-8,-4,0,-5
5835,-14,-4,17,26,21,49,-4,-12
5840,-13,-7,-20,-1,-7,-53,-2,-10
5845,19,6,7,-18,-14,-3,3,1
5850,-9,-2,0,19,4,5,1,17
5855,-3,-2,13,-6,-11,-6,-8,-23
5860,-1,3,-7,2,8,20,6,14
5865,3,1,8,17,9,-7,1,-9
5870,-4,-9,-14,-6,0,17,-3,-15
5875,5,3,0,-11,-7,17,4,8
5880,-18,-3,7,-3,-5,12,-6,-14
5885,-3,-4,-14,-4,19,-8,0,9
5890,3,8,5,20,-17,19,5,-4
5895,13,-2,-2,5,9,-13,2,37
5900,1,-1,-3,-12,-3,1,-7,-18
5905,-21,-5,8,10,-7,6,2,-13
5910,11,2,1,-12,2,-3,-3,22
5915,6,-2,-4,-3,12,0,1,-23
5920,3,0,5,10,-10,3,-4,-7
5925,5,0,4,1,-13,-6,-1,2
5930,-9,-4,-9,5,18,26,1,14
5935,-11,0,0,-4,-6,-39,-1,-50
5940,6,-1,-8,-2,-3,4,1,35
5945,-6,-1,9,18,-9,-1,-4,-31
5950,0,0,1,-18,-9,-6,-1,4
5955,12,-1,-5,1,5,2,2,24
5960,-6,-5,0,-2,4,1,1,-29
5965,3,1,1,4,4,3,1,47
5970,9,0,-8,0,11,-18,0,-16
5975,6,0,-9,-11,-17,5,-3,18
5980,-6,-1,-1,-11,6,4,-3,-22
5985,1,1,1,11,10,14,-1,-10
5990,-10,-3,1,-20,-8,-53,-6,8
5995,-14,-3,22,10,-22,1,1,-12
6000,28,5,-1,17,2,-17,5,43
6005,-2,-1,-14,-30,-5,5,-2,-20
6010,-9,-1,0,2,-10,20,1,14
6015,-2,-1,10,-5,16,17,-5,-18
6020,5,0,1,11,-11,-26,-3,0
6025,-10,1,0,-33,5,6,0,-22
6030,-16,-7,4,31,-13,1,-2,-1
6035,24,4,-11,1,12,22,-1,19
6040,-10,-3,6,-1,-3,1,-1,-10
6045,3,-2,-1,11,-4,2,-1,-1
6050,-8,-3,-8,-17,6,20,0,-13
6055,-13,-3,-34,-18,9,-2,-4,-31
6060,0,-5,21,-4,-15,3,-5,29
6065,5,2,-3,1,10,-19,5,5
6070,-1,-2,8,2,2,6,2,4
6075,-15,-3,-8,-4,-13,-34,0,-16
6080,-11,0,-12,-47,1,0,-1,-20
6085,8,-1,5,64,0,-22,-6,15
6090,-5,-3,7,-9,-7,-14,0,-16
6095,21,0,-12,-13,-2,20,-1,25
6100,4,3,-4,5,6,1,3,-6
6105,-14,-6,10,-10,-9,16,-2,-20
6110,1,1,-15,-3,7,-33,-3,25
6115,-10,1,8,17,-5,-25,0,-18
6120,9,-2,-8,-8,5,11,0,7
6125,3,0,18,26,-10,8,-4,-3
6130,-13,-10,-24,-46,1,0,-1,-8
6135,-8,0,6,35,4,7,7,8
6140,18,7,8,7,9,13,-1,-2
6145,-4,-2,-19,-8,10,-19,3,1
6150,3,3,17,-8,-15,-33,-6,-8
6155,-23,-4,4,12,-3,20,-2,1
6160,2,0,-1,5,10,-15,2,31
6165,-4,-2,2,-4,-17,-5,-6,-35
6170,5,3,-3,-7,-6,-6,1,15
6175,16,6,-6,-8,18,-18,0,-5
6180,-30,-7,3,7,-21,8,-3,-41
6185,7,6,0,-12,15,17,3,35
6190,12,0,-7,35,8,1,0,34
6195,1,-4,-2,-4,-7,-2,-4,-13
6200,2,1,5,5,17,18,0,-3
6205,-3,-1,-2,-8,-11,-15,-2,-11
6210,-2,0,-7,-2,-6,-33,2,-9
6215,-5,-3,-6,-14,-6,12,-1,4
6220,7,5,-7,23,2,12,-3,5
6225,3,-2,-5,-25,-4,-7,-2,13
6230,2,3,10,-1,24,26,4,-24
6235,0,0,3,7,-9,-58,-4,23
6240,-12,-5,-2,-8,8,-5,-1,-38
6245,-3,0,-5,-6,3,0,0,38
6250,22,6,12,-1,-6,24,-1,5
6255,-2,-5,-9,-16,21,18,1,-22
6260,-3,1,30,16,-22,-42,-3,0
6265,3,-2,-17,4,20,1,1,-2
6270,-10,-5,-5,-9,-5,28,-3,0
6275,-1,0,-9,3,0,-9,1,-1
6280,5,0,-1,4,-4,16,-1,-27
6285,0,0,6,5,-2,6,-3,23
6290,19,3,-8,-8,-3,3,3,8
6295,8,3,1,-11,10,22,2,-28
6300,-11,-4,2,-3,-17,5,-5,33
6305,-11,-4,-1,7,-8,-46,-1,-18
6310,6,-1,2,30,3,1,0,-8
6315,21,4,9,0,-15,30,1,4
6320,1,-2,-12,-29,-14,5,0,6
6325,-9,-2,-4,-3,-1,2,1,-15
6330,-9,0,8,-6,2,-15,-8,22
6335,-18,-6,-4,20,1,-6,-1,-27
6340,-7,-6,-20,10,0,-13,1,18
6345,2,1,-9,-16,0,15,-2,-12
6350,-4,-2,7,-3,-5,1,-2,-1
6355,4,4,-1,-3,16,8,6,7
6360,-7,-4,-2,3,2,10,-3,-5
6365,11,-1,-7,1,-8,1,-2,6
6370,-11,2,-8,-13,21,19,1,-38
6375,1,-5,0,-4,-15,-38,-9,34
6380,-6,3,9,21,-21,12,4,-9
6385,4,-5,-14,-29,-4,-12,-1,4
6390,-7,-3,7,20,-3,15,-1,-9
6395,-2,0,8,-7,-6,-1,-2,-6
6400,-21,-7,-5,0,22,-1,-3,-10
6405,13,3,5,-26,-14,5,-4,42
6410,9,3,-2,22,6,-6,2,-1
6415,-25,-8,-3,1,-1,-8,2,-5
6420,13,5,0,-19,0,4,-4,-27
6425,-24,-2,9,-8,0,-8,-3,6
6430,15,-2,-8,3,-1,16,3,13
6435,-2,-3,-2,-9,-3,-29,-1,1
6440,-5,0,-3,2,10,-9,-4,-15
6445,-11,-3,6,10,-6,15,0,-6
6450,3,3,1,15,-10,-22,-4,5
6455,-13,1,28,-9,-4,-9,-5,3
6460,14,-1,-12,-4,4,-3,3,10
6465,20,4,11,17,2,4,3,-4
6470,-14,-7,0,-13,3,3,-1,-10
6475,7,6,0,24,-5,10,2,6
6480,-15,-2,-14,-48,17,-27,-7,-1
6485,25,3,2,29,17,32,8,19
6490,-17,-6,3,-6,-16,-5,-2,-19
6495,17,3,-4,18,12,32,-4,-3
6500,6,1,-2,-6,-13,1,7,8
6505,-17,-5,-9,-2,-6,-18,-4,3
6510,19,1,0,11,21,-7,-3,6
6515,-10,0,-2,-10,-11,4,-4,-13
6520,7,5,13,18,10,0,3,32
6525,12,0,-19,-3,1,12,-2,-12
6530,3,-1,0,15,3,20,2,-16
6535,-9,-2,-1,-25,-12,-37,-2,0
6540,-12,-3,-10,-12,-5,15,-3,-18
6545,0,1,-7,-2,-8,-2,0,2
6550,-7,-2,9,-7,-1,2,0,11
6555,7,-3,-8,6,2,14,-1,-30
6560,-6,-6,-14,-64,-22,-20,-4,26
6565,-1,1,10,28,6,14,-1,-10
6570,0,0,-21,-30,-32,4,4,-28
6575,-9,-5,-7,20,14,3,0,18
6580,-2,-5,7,-2,-4,-1,-3,18
6585,12,9,1,9,4,3,-2,-16
6590,-1,-2,-7,-2,5,-24,-2,13
6595,-13,-4,2,-15,-1,27,-1,-3
6600,8,0,6,26,-3,-1,0,-17
6605,-20,-9,3,-3,-4,-3,-4,6
6610,-2,2,7,20,-1,5,2,-15
6615,-2,3,20,-6,-23,10,0,-1
6620,13,3,3,32,22,-5,-2,41
6625,7,6,10,-2,33,28,5,-48
6630,7,-5,-15,-19,-3,-16,-4,29
6635,-5,-5,-1,-7,6,11,2,19
6640,-12,-5,-2,-4,-3,4,-1,-68
6645,-1,0,6,4,-15,-11,-5,27
6650,15,1,-13,-23,3,-33,-7,19
6655,1,2,-5,7,10,-6,2,-10
6660,-7,2,-7,-18,-5,16,2,-6
6665,-15,-8,-1,18,8,-36,-3,-33
6670,5,-3,5,-26,-30,-9,-2,26
6675,13,4,-7,17,18,3,-1,-4
6680,8,0,-2,18,-36,-11,2,7
6685,-5,-2,-3,-17,-21,-4,2,-14
6690,-13,0,7,9,11,19,-3,22
6695,23,5,7,0,11,-10,-1,-2
6700,4,-1,7,6,12,-4,-1,12
6705,-3,-4,-6,2,0,-11,-2,5
6710,-15,-4,1,-1,-9,4,0,-30
6715,-6,-1,-5,-2,-14,0,-1,-27
6720,-1,0,9,8,20,-16,-5,66
6725,10,-1,-5,10,-14,6,5,-11
6730,-3,1,-4,10,19,6,1,-18
6735,-7,-3,-11,-18,-3,6,2,17
6740,-8,-3,-2,-13,-1,-22,-5,-17
6745,-9,-2,-5,-34,-25,-18,-4,10
6750,3,0,11,40,13,21,-1,-22
6755,10,0,-6,8,-5,-18,2,9
6760,-4,-2,-6,0,-7,10,0,6
6765,-8,-4,-3,-18,14,-2,-1,8
6770,-1,-1,0,-6,-11,-11,-1,-12
6775,-18,-5,10,-10,3,3,-7,-13
6780,25,5,1,5,1,-26,4,32
6785,9,1,-5,-6,7,8,0,-38
6790,-3,0,0,5,4,13,-2,11
6795,-10,-5,-5,-29,-17,-31,-4,10
6800,-9,-3,1,17,21,19,-3,-36
6805,-9,2,-3,-6,-21,-9,2,36
6810,3,-3,-6,-9,9,-5,-6,-14
6815,1,3,3,32,6,20,3,1
6820,-7,-3,-1,-5,-12,-11,-4,-27
6825,8,1,16,10,3,7,-1,-8
6830,-28,-7,-11,-57,-1,-1,-4,-25
6835,21,-3,-23,-11,7,14,4,32
6840,25,8,8,15,-2,-10,0,-1
6845,-13,0,-4,6,7,-20,-2,-12
6850,7,2,18,2,-10,1,1,12
6855,-15,-2,-5,16,-2,-17,-1,-12
6860,-9,0,12,-29,-5,20,-2,-4
6865,1,-4,-19,45,13,-20,0,5
6870,-4,1,-3,13,-15,2,6,-37
6875,18,1,1,-26,-5,-39,-8,47
6880,0,0,5,18,-13,6,3,-11
6885,-13,-5,-5,-17,-4,9,-2,7
6890,1,-2,-5,12,10,2,4,19
6895,1,3,6,6,-4,18,1,-45
6900,-1,-3,-9,-18,-4,-5,-5,13
6905,16,4,7,-10,-11,9,-3,0
6910,-4,-3,2,10,16,5,-1,9
6915,-8,-3,7,-9,-6,21,0,-12
6920,-21,-5,-22,-28,-9,-19,-3,1
6925,23,9,1,21,21,38,3,-31
6930,22,7,0,4,-18,-26,2,36
6935,-14,-5,2,-28,6,14,-5,-2
6940,-2,-2,-3,13,3,-16,0,-10
6945,-3,-4,7,-2,0,11,3,9
6950,-10,-1,-6,-7,21,11,-5,2
6955,5,-2,-9,-26,-15,-5,3,-26
6960,-1,0,10,22,7,25,0,10
6965,-5,-5,1,-15,3,-18,-3,-26
6970,7,0,5,-14,-4,6,-4,40
6975,-16,-3,-8,12,4,-6,0,-13
6980,-4,-1,13,25,3,9,-2,-11
6985,-1,-2,-6,9,0,-37,2,10
6990,-6,-3,0,11,0,-5,-4,-32
6995,7,2,-6,4,-9,-6,0,7
7000,4,0,-8,-25,8,23,-2,7
7005,0,3,16,25,-2,-12,-3,16
7010,-4,-4,-2,-18,-10,-5,1,-34
7015,1,-4,-15,5,-1,-17,-3,-4
7020,-1,-1,-3,-37,13,1,-2,12
7025,-9,-5,5,-32,-7,22,-1,-18
7030,-3,0,-17,5,-10,-29,2,6
7035,23,2,16,52,6,9,1,34
7040,-15,-3,-18,2,12,15,4,-32
7045,22,4,3,-14,-4,-8,-3,33
7050,1,0,6,4,-2,5,0,14
7055,-11,-6,-12,-5,-5,-2,-1,-18
7060,-12,0,4,4,0,7,-1,2
7065,14,1,-12,7,-7,-26,0,-20
7070,4,-1,9,-14,4,4,-4,16
7075,10,4,6,19,1,16,3,-10
7080,5,0,4,15,8,-8,-4,1
7085,-18,-5,-10,-22,-6,-4,0,21
7090,0,-2,1,17,-8,2,-3,-13
7095,-8,-4,9,-41,8,-12,-2,27
7100,8,4,-10,6,-11,22,3,-2
7105,1,-1,-1,15,20,-29,-2,4
7110,-9,-4,1,7,-3,9,4,-12
7115,-4,-1,0,-8,-5,8,-3,9
7120,-1,-4,-6,-8,-15,-14,-5,-6
7125,-15,-9,-5,5,5,49,-5,2
7130,2,8,-5,1,-7,-56,-2,-7
7135,5,0,-3,11,-15,16,-3,-4
7140,14,-3,-5,-1,12,-5,4,6
7145,-3,-2,16,-20,-10,20,-4,-6
7150,-2,-6,-19,-32,5,4,1,-4
7155,-22,-3,-2,26,-3,2,1,-22
7160,20,6,16,24,-2,-34,-1,41
7165,-2,2,-6,-13,15,53,1,9
7170,5,-2,4,-21,-14,-44,-1,-9
7175,3,-1,-4,-21,13,4,-1,-12
7180,-1,-3,-3,21,-8,2,1,10
7185,-7,-3,6,4,-11,9,-2,-4
7190,-7,5,-5,5,6,16,-3,8
7195,-2,1,15,3,7,8,-4,-7
7200,1,0,-2,19,-8,-22,-1,-22
7205,5,-1,-2,-1,8,9,2,3
7210,9,-6,-14,-29,-22,-1,-4,10
7215,-12,0,4,7,2,-12,-1,8
7220,0,1,-12,-18,-4,3,-3,-15
7225,-13,-4,-4,6,1,-22,-3,2
7230,-5,-2,16,23,-9,30,2,8
7235,7,7,-3,-10,-9,11,5,7
7240,-2,-2,-2,-1,15,-6,-6,4
7245,-3,1,-13,-12,1,-11,1,-16
7250,-8,-7,6,-3,-13,8,-2,-31
7255,-9,-4,-3,3,-5,12,-3,29
7260,2,2,-3,-23,2,0,3,-35
7265,21,7,10,29,14,-2,2,19
7270,-15,-4,-1,-13,3,3,-2,4
7275,8,-5,-3,21,12,2,2,-32
7280,-8,1,-3,-20,-2,8,-2,20
7285,-16,-5,-10,-8,-24,-32,-3,-20
7290,34,8,3,6,10,17,2,22
7295,1,-2,-4,-1,2,-21,0,8
7300,-7,-3,6,19,13,12,-3,-15
7305,3,-3,-9,-11,-13,7,0,-6
7310,-5,0,-1,13,8,-8,0,6
7315,-10,-4,0,-12,-19,-23,1,23
7320,13,1,8,4,-8,-1,1,8
7325,6,3,3,0,-1,25,-2,1
7330,-16,-7,1,-5,-6,4,-3,5
7335,1,-2,-17,-52,-5,0,-5,-25
7340,-8,-1,1,-4,3,23,2,-18
7345,1,-11,-13,0,-18,-33,-1,26
7350,8,13,0,-4,14,13,3,-5
7355,-4,1,9,15,-24,-6,-2,-5
7360,-4,-2,-12,-13,2,4,-3,-3
7365,-3,-1,6,-13,0,-2,0,-23
7370,-1,-5,-2,10,1,10,-2,14
7375,-1,0,5,-2,6,-11,-3,-14
7380,-3,-5,-2,-12,-10,-4,1,-2
7385,-6,-2,15,26,6,14,0,23
7390,6,3,-2,7,17,-10,-4,0
7395,3,1,11,11,-12,-19,-1,-13
7400,1,-3,-5,8,-8,-5,0,-3
7405,-13,1,0,2,17,0,-2,-24
7410,12,-1,5,7,-6,3,1,23
7415,4,8,-10,-4,-5,5,-4,-18
7420,-12,-3,-5,-5,-7,-11,-1,-13
7425,0,2,12,-1,-3,11,2,6
7430,-1,-1,-7,-4,-17,-43,-5,-18
7435,-2,-2,6,-7,18,18,-2,8
7440,-11,-3,3,42,2,15,-2,-11
7445,8,2,-3,-23,-4,-15,-3,6
7450,-6,-12,-16,-10,2,17,0,-1
7455,14,2,-8,2,-3,-17,5,8
7460,2,5,6,-1,-7,-1,0,4
7465,6,0,2,7,10,-2,-3,-8
7470,-7,0,26,23,9,0,-2,-6
7475,-14,-7,-15,-9,11,10,2,-30
7480,11,-1,-5,1,-15,-28,-4,6
7485,-12,3,-1,-7,5,-16,-5,34
7490,3,0,2,0,1,7,2,10
7495,4,1,1,15,4,1,0,10
7500,-9,0,17,-53,-5,-7,-6,-7
7505,5,-2,-16,44,-14,3,6,-13
7510,-10,0,-1,5,2,3,2,-2
7515,7,-2,-7,-4,-13,-69,-6,14
7520,-3,0,4,-2,7,9,0,7
7525,-8,-3,12,-26,-12,-19,-8,-8
7530,-8,-5,-12,7,4,22,1,-6
7535,0,0,4,29,16,25,2,-1
7540,6,0,0,2,1,-3,-1,13
7545,2,1,-1,-10,-13,-7,0,1
7550,-9,-6,20,16,3,7,-3,-20
7555,-7,4,-7,-24,-2,-2,-1,24
7560,6,-2,-9,-9,12,0,1,-8
7565,-4,-1,-10,24,3,4,2,-35
7570,11,-2,-16,-17,8,8,1,25
7575,2,-3,4,4,3,4,-3,4
7580,-7,-2,-2,0,-15,-28,0,-16
7585,9,1,1,-12,-3,24,-1,20
7590,-17,-3,-19,-35,-14,-12,-5,-34
7595,7,1,11,63,24,22,2,5
7600,28,5,-4,14,10,-3,3,18
7605,-10,-7,-2,-14,-5,1,-4,-10
7610,0,4,0,2,-10,-12,3,-2
7615,-18,-7,19,13,-17,6,-7,5
7620,-16,-5,-4,-42,-4,3,-6,-12
7625,28,9,-35,6,25,10,14,26
7630,-2,-4,4,-6,-2,7,-3,-4
7635,14,5,4,-6,-9,-2,-1,-24
7640,-6,-5,6,8,-7,10,-4,10
7645,-15,-4,-6,-21,9,-5,-7,-17
7650,10,3,-4,44,3,-19,2,-2
7655,-9,-7,-12,-23,-3,18,3,-4
7660,13,9,3,3,1,8,-1,-10
7665,-5,-2,-2,-16,-13,-25,1,9
7670,7,3,6,3,12,-3,3,-2
7675,-19,-7,-9,-10,-8,0,-11,-7
7680,-9,-9,-16,41,6,11,12,-7
7685,13,3,0,-12,-2,-7,-5,11
7690,2,3,-2,-14,-4,1,2,1
7695,-1,3,3,-13,3,-8,5,5
7700,-7,-2,-1,12,0,7,3,11
7705,-3,-4,4,-1,-6,7,-4,-7
7710,-9,-2,4,-2,4,-1,-9,6
7715,-6,-2,5,-34,3,-16,-1,-25
7720,16,5,-4,22,10,-23,2,28
7725,0,0,8,9,-11,5,1,-4
7730,1,2,0,-9,4,19,0,-23
7735,-4,-3,0,-9,-3,19,-6,12
7740,-17,-4,1,-4,-7,6,-1,-26
7745,1,-3,-6,25,11,-6,5,4
7750,4,1,-5,-16,16,18,-4,8
7755,-1,-6,0,20,-3,0,-1,-10
7760,14,6,7,-16,-13,-4,-1,7
7765,-6,7,4,1,8,-1,-7,-8
7770,-1,-7,-7,-15,-16,-1,0,-3
7775,-10,-4,8,14,10,-6,-1,-6
7780,3,-1,4,21,-21,-34,-3,18
7785,24,4,-1,-7,4,11,0,21
7790,-14,-3,3,28,-3,-28,-3,-10
7795,2,2,-22,4,-7,11,6,-2
7800,5,-5,-13,-15,10,14,-2,-3
7805,-2,-3,-6,-9,-24,-29,0,-15
7810,-4,-4,5,-9,-4,-5,-8,-23
7815,9,7,-2,14,6,0,-4,35
7820,-9,3,4,-11,-11,-2,-5,-19
7825,-6,-4,5,18,10,15,5,-8
7830,5,-3,-1,-9,-5,-4,2,22
7835,-9,-5,-2,-42,-3,-1,-3,-26
7840,-12,-7,-14,15,0,2,-5,-20
7845,30,4,4,-19,8,-22,-4,47
7850,2,-3,-12,-1,-15,-2,3,-18
7855,4,3,-21,-16,2,3,0,31
7860,-4,-2,1,-3,-6,14,5,4
7865,-28,-8,23,-23,5,14,-5,-34
7870,25,11,-9,26,-11,-15,-3,23
7875,3,-1,0,21,10,5,4,-8
7880,-1,1,10,-9,1,1,-1,-4
7885,-20,-6,-4,4,2,5,-3,-11
7890,-17,-1,14,-14,-9,-7,-1,3
7895,-4,-3,11,5,-5,3,-1,-19
7900,21,5,18,5,9,4,-6,30
7905,-8,-4,-9,10,-8,26,2,-5
7910,5,-1,-12,0,-7,-33,4,6
7915,11,0,-1,-11,24,4,-1,2
7920,-12,-7,-9,-13,-29,-49,-2,-12
7925,-10,2,2,18,5,14,-3,25
7930,14,2,4,-15,6,24,-4,-10
7935,1,2,19,0,-19,-11,-2,1
7940,5,-1,-8,9,24,27,11,26
7945,0,-3,-2,-13,-8,-7,-10,-30
7950,-17,0,-1,-13,6,-7,-5,-3
7955,29,7,-9,6,-4,3,9,20
7960,-10,-2,-1,-3,7,7,3,-13
7965,-14,-2,1,8,-12,-4,5,-51
7970,3,-1,1,6,8,13,-7,57
7975,3,-3,-13,-5,10,-6,-2,-3
7980,4,0,-12,-12,-13,-3,-5,12
7985,-6,-2,-4,1,3,5,6,-24
7990,-5,-2,8,-9,2,14,4,2
7995,-7,-2,0,14,-21,0,-2,-1
8000,-2,-1,-8,-4,15,1,0,-4
8005,-6,-2,4,6,-2,13,-5,3
8010,-8,-1,-6,2,3,-36,-1,-2
8015,21,3,-3,-3,11,7,1,9
8020,-9,-10,-6,-21,12,17,-2,-20
8025,-4,8,32,49,-34,-67,-16,9
8030,-3,-6,-14,31,24,-2,7,-27
8035,-9,-4,-9,-18,4,8,3,3
8040,-4,0,-3,0,-3,-17,1,7
8045,38,7,2,-4,11,17,1,40
8050,-3,0,11,-3,-32,-24,-5,-6
8055,-20,-5,8,2,-4,-9,-8,-23
8060,-8,-5,-10,32,10,30,1,-19
8065,1,-3,-13,-20,-13,4,3,3
8070,-6,-4,-7,-21,-3,-3,3,-1
8075,5,4,0,-2,-10,17,-5,-23
8080,-13,-7,8,-8,-6,5,-4,15
8085,-13,-1,-11,-17,16,13,1,-49
8090,27,4,-2,12,-4,18,5,37
8095,-6,-1,0,-20,4,9,-4,8
8100,11,1,7,12,6,-13,0,18
8105,5,-6,-7,0,8,7,-1,-7
8110,-21,-4,-13,-16,-4,9,-2,3
8115,3,3,9,-17,-7,-36,-5,-17
8120,12,2,-12,-5,-4,12,7,9
8125,-15,-4,-5,-4,-4,-1,-1,9
8130,-3,-1,6,6,6,16,-4,-38
8135,7,0,12,31,-15,-12,0,28
8140,-5,-1,4,-24,-4,14,-5,-15
8145,14,-4,-17,-3,0,-44,2,5
8150,4,9,12,-7,-6,26,-1,-16
8155,-21,-7,3,31,2,-11,0,1
8160,29,15,8,3,-6,3,0,-5
8165,12,1,-8,-1,9,10,5,36
8170,-5,-2,12,1,2,-3,-4,-12
8175,-2,-3,-10,-4,-3,0,0,3
8180,-11,-1,-7,-14,-1,-32,-5,-46
8185,1,0,4,-7,-5,7,-1,58
8190,5,0,-1,6,-4,-9,2,0
8195,-5,-3,-5,-2,4,9,5,-24
8200,-7,-3,8,-8,-3,-1,-9,5
8205,3,2,-3,9,-8,-4,-4,-23
8210,1,4,2,-16,11,9,-3,-4
8215,-5,-3,-11,6,8,-6,7,14
8220,-10,1,-4,2,-6,-28,-2,-9
8225,-8,-9,9,-7,10,11,-2,-14
8230,-3,0,-3,18,-8,8,-1,1
8235,-1,2,-6,-11,2,4,13,2
8240,5,-4,-4,-9,-7,-18,-11,-13
8245,1,3,1,14,3,2,-1,15
8250,1,-5,0,1,-2,-11,1,0
8255,3,-1,-5,-32,-9,1,-3,0
8260,-20,-4,5,-4,-1,5,3,-6
8265,3,3,11,31,7,19,-2,12
8270,4,-2,3,4,-3,-18,3,2
8275,-6,-1,-5,-4,-2,-10,-7,-28
8280,-1,-4,0,-5,-2,4,1,16
8285,-14,-4,-9,-25,-5,-9,0,-30
8290,-5,-3,-10,-1,12,9,-3,-12
8295,-5,-1,13,-2,-12,-12,-7,1
8300,15,4,-7,4,2,15,4,8
8305,5,1,26,-12,0,-4,-1,14
8310,-8,-5,-10,7,4,9,1,-6
8315,-5,-4,-3,2,0,34,-4,0
8320,4,-1,-7,-39,-28,-51,-10,-19
8325,-15,-7,-5,27,17,9,4,26
8330,14,8,-3,-2,-18,-20,0,-3
8335,12,0,6,7,14,21,-1,17
8340,4,-2,-8,26,10,16,3,6
8345,-4,-5,-12,-25,-15,-1,0,-29
8350,-12,-1,-1,7,8,-7,-8,-1
8355,-19,-1,0,-32,-8,-12,-5,-2
8360,21,2,-2,34,10,16,7,27
8365,19,5,14,-31,-4,-15,2,-9
8370,-2,-9,6,27,14,34,-3,21
8375,6,9,-2,28,-9,-27,-1,-36
8380,-18,-8,2,-11,-2,0,-3,-13
8385,-25,-4,-6,-18,-6,7,-4,-35
8390,7,5,9,-6,-18,-14,5,45
8395,12,-4,-10,17,24,-19,-2,17
8400,-2,1,6,3,-1,3,2,-18
8405,-8,-1,-7,17,-6,3,0,1
8410,-3,-2,-4,-8,6,3,-2,-15
8415,-1,-4,-7,-2,1,-5,-4,8
8420,0,3,6,-5,1,2,2,-13
8425,2,-5,-14,-28,2,2,0,26
8430,7,7,-2,31,-22,-12,4,-6
8435,8,-2,-7,-28,3,-11,1,9
8440,-5,-1,-4,-1,-2,15,-1,-30
8445,-1,-4,-2,4,-2,-6,-4,-12
8450,-7,-3,-2,-12,-1,8,-2,7
8455,7,4,4,18,3,12,5,15
8460,-18,-4,5,-4,-2,17,-4,-10
8465,-3,1,10,-1,-5,-26,-3,-14
8470,19,-5,-9,11,5,18,-1,7
8475,-6,3,2,-13,1,5,2,-15
8480,-2,-2,2,-20,-7,-4,-7,26
8485,11,5,1,15,2,8,1,37
8490,-21,-7,18,-26,-1,-10,-1,-28
8495,13,5,0,-3,-5,-6,0,15
8500,5,0,0,32,25,27,1,27
8505,5,2,13,-7,-25,-41,-6,-21
8510,2,-1,-10,-16,9,7,9,-3
8515,1,-7,5,6,-6,-3,-4,-10
8520,-7,2,-14,-3,2,-18,5,36
8525,-7,-4,-2,-4,2,2,0,-17
8530,3,3,0,-16,2,-2,-1,1
8535,-13,-1,2,22,0,10,1,3
8540,8,-1,5,-2,-8,-9,4,-4
8545,-7,-2,-18,-1,-3,3,-2,-35
8550,-8,0,-1,-2,-4,-14,-3,35
8555,-6,1,-3,8,2,23,3,3
8560,-4,0,-2,-15,-1,-15,-8,-3
8565,-3,-3,-1,-13,6,-30,5,31
8570,4,-1,-8,28,-2,10,-4,-49
8575,12,1,4,-24,-12,-7,-5,5
8580,-6,-4,7,-2,-1,7,1,4
8585,10,4,-15,-18,3,21,0,15
8590,-3,-6,-13,16,4,-33,0,-4
8595,-11,0,0,-6,-11,-18,-2,-9
8600,-12,-5,14,-5,3,10,-3,-35
8605,30,4,-16,45,-4,-26,-1,11
8610,5,-1,-3,-7,-4,0,1,26
8615,-5,3,-4,-14,24,28,0,-14
8620,-4,0,-1,6,-14,-37,3,8
8625,6,4,19,12,-10,-2,-8,-1
8630,-6,-5,-15,10,-2,-19,-7,-3
8635,6,-3,-5,-5,16,5,4,5
8640,8,-2,-8,-19,-2,33,0,-11
8645,-23,-4,5,40,23,35,2,-37
8650,3,3,2,-18,-39,-42,-1,29
8655,17,-3,5,-2,0,-35,-2,8
8660,5,3,-8,-6,11,10,-3,-12
8665,3,0,-6,-9,-8,6,3,14
8670,-13,1,16,-14,14,15,0,-13
8675,-25,-4,11,22,-12,6,-6,-13
8680,1,-12,-35,-10,-9,-14,-6,21
8685,3,5,-4,10,30,9,5,2
8690,4,0,14,-45,-12,3,-4,-27
8695,-4,0,-2,4,-30,-12,1,16
8700,-4,0,-8,47,14,29,-1,-8
8705,-11,-6,-8,-15,0,12,-5,-7
8710,-5,-8,-6,-1,5,-26,-1,-1
8715,-6,0,-9,-13,-11,-6,-2,-17
8720,4,4,11,2,10,6,2,14
8725,13,2,6,-19,-19,-30,-1,-10
8730,-17,-2,15,24,3,37,0,-49
8735,5,-1,-26,-52,10,14,-6,43
8740,9,-2,-4,18,-4,-27,10,-16
8745,-3,-5,2,-2,5,20,-6,10
8750,-7,8,6,8,2,18,0,-22
8755,-11,-4,-6,5,13,-1,-4,-5
8760,-10,3,28,-2,-17,13,-1,-22
8765,22,1,-15,-17,-3,-16,3,42
8770,-4,-8,-11,-6,10,27,-2,-22
8775,-5,3,3,9,-2,-30,0,-18
8780,-2,3,15,0,5,4,3,17
8785,19,1,-3,16,6,25,-6,7
8790,0,-4,-17,-8,26,-20,2,16
8795,3,-4,7,25,3,8,1,-18
8800,-13,-6,-21,-54,-9,15,-7,-8
8805,-5,4,10,0,-12,-11,2,17
8810,34,6,0,7,4,18,0,49
8815,7,-9,14,-12,9,10,3,-9
8820,-16,-1,-10,-13,-18,-10,-5,-11
8825,-23,-4,-3,5,7,12,1,-2
8830,1,2,0,-15,-8,-34,1,10
8835,-6,-8,4,17,-9,6,-2,-17
8840,6,2,8,21,6,-11,-3,29
8845,-8,-3,3,-3,11,-24,1,-10
8850,3,5,-3,-1,-10,19,4,3
8855,13,1,-4,-6,-11,-13,1,2
8860,-16,-7,5,12,8,-47,-13,-2
8865,-5,-4,-7,-9,-27,2,-2,-3
8870,-7,-1,-4,-23,-16,-22,-9,12
8875,38,11,-2,2,17,2,3,44
8880,0,-8,-4,-14,10,22,5,-32
8885,0,6,7,5,13,4,-4,-22
8890,-2,-3,-8,0,-20,-19,1,-51
8895,6,0,-1,4,14,9,-7,48
8900,6,3,-25,-42,-30,-40,6,-8
8905,-12,-9,5,1,11,-5,-3,-18
8910,-11,-3,12,18,13,28,4,20
8915,-20,-4,-1,18,2,-5,-3,-60
8920,8,1,-12,-19,-16,27,0,28
8925,-3,1,9,5,-13,6,-4,-7
8930,0,3,-11,-30,3,-42,5,6
8935,-20,-9,12,36,-4,27,-5,-13
8940,34,13,3,29,-10,-28,-2,53
8945,2,2,-3,-22,-14,-11,1,-24
8950,-15,-9,-10,7,18,56,0,-43
8955,-5,1,-1,-16,-19,-25,-1,56
8960,1,-2,3,18,20,9,5,-37
8965,-25,-1,5,10,18,5,-1,-28
8970,24,3,34,-57,-37,10,-10,72
8975,-3,2,-22,32,33,-27,7,-38
8980,0,-2,5,-11,-27,45,-3,20
8985,1,-1,-20,-36,16,-31,8,6
8990,-14,-3,-5,17,11,21,5,-14
8995,-2,-5,7,-20,-34,-8,-4,-16
9000,9,1,-1,42,8,0,1,-5
9005,5,-3,4,10,3,-1,-7,-35
9010,3,-6,-8,-16,-5,-59,-7,28
9015,16,10,28,1,31,52,5,6
9020,-17,-5,-6,1,17,7,1,-67
9025,-16,-4,1,6,-15,37,-2,18
9030,-15,-6,-13,-1,-6,-47,4,-6
9035,1,-1,7,-6,-7,30,-10,-2
9040,8,-1,-6,3,22,20,1,-1
9045,-15,-6,-3,1,-32,-14,-1,28
9050,17,12,-1,-21,-5,-10,2,53
9055,5,4,15,36,-3,-14,-3,-17
9060,-15,-3,15,50,33,5,-1,-22
9065,9,0,-6,-12,6,-9,7,37
9070,-9,-4,-10,15,0,-7,-2,-17
9075,-2,1,-7,-21,-15,-4,-8,-3
9080,-3,5,6,-1,12,-7,-3,28
9085,16,0,-5,-3,3,11,3,-1
9090,-33,-9,9,16,6,24,-4,-45
9095,9,1,-24,-39,-5,18,-4,-22
9100,27,5,-2,5,-36,-7,8,72
9105,-16,-10,-11,-26,2,13,-9,-51
9110,20,11,20,15,-16,6,-4,0
9115,-25,-8,-14,-6,5,-4,4,11
9120,-4,-5,-3,-45,-16,-12,-6,-34
9125,39,13,8,38,16,19,5,56
9130,8,-6,-3,11,8,-23,-5,-44
9135,-10,-6,-21,-4,-7,1,3,39
9140,-6,0,-3,-9,5,-6,-4,-48
9145,27,4,11,-2,-19,-29,0,32
9150,1,1,12,22,12,14,2,-34
9155,-1,3,-12,-11,-8,8,9,22
9160,-4,0,3,-8,19,-4,0,-15
9165,15,2,23,16,-5,-10,-6,2
9170,4,0,-8,10,1,-10,2,4
9175,-8,4,3,5,35,47,1,-24
9180,-15,-1,-4,0,-4,-10,2,10
9185,4,4,-11,-58,15,-1,-2,22
9190,16,0,-16,8,21,51,5,16
9195,2,-9,2,-17,-12,-114,-9,2
9200,3,0,-23,-12,-17,14,-7,-13
9205,-26,-5,-13,-23,-19,6,3,-15
9210,-4,0,-9,0,11,3,-6,-3
9215,3,-5,8,-2,1,10,3,23
9220,-15,-1,26,1,-22,5,-5,-11
9225,8,0,-3,58,2,8,1,-9
9230,-4,4,-5,-15,16,34,-2,0
9235,0,0,3,0,-22,0,3,-10
9240,17,2,-5,-8,33,-96,-4,25
9245,-18,-12,-6,-7,-24,22,-3,-3
9250,0,7,2,-32,4,15,1,-27
9255,2,1,-1,1,12,-7,-4,-1
9260,1,-7,-8,-4,24,36,8,47
9265,-7,0,-10,2,8,-35,1,-31
9270,9,-2,-5,3,-9,-14,-7,-35
9275,-18,3,18,12,-5,-7,1,15
9280,-23,-10,-4,2,-7,-20,-10,-8
9285,20,0,-5,5,5,3,4,-17
9290,-9,2,1,0,-10,31,0,21
9295,2,-3,-7,-17,-10,-12,0,-14
9300,-4,-1,9,11,-11,-2,-1,-19
9305,-17,0,13,13,-10,6,-8,25
9310,2,-4,-15,-3,10,-1,1,15
9315,4,-3,-5,50,-14,1,9,-36
9320,41,11,0,7,-1,20,4,54
9325,-11,-5,-6,2,7,-3,-4,-18
9330,4,0,9,-3,-9,3,-5,5
9335,-17,0,-4,-14,3,10,-3,-17
9340,-15,-6,0,-6,-4,16,2,-25
9345,-23,0,5,13,-13,-11,-7,-18
9350,30,2,-5,15,31,12,3,54
9355,-1,-11,-8,-18,-45,-42,-3,-10
9360,-1,2,2,-3,0,-7,-3,-3
9365,-13,3,-5,-17,5,3,-3,-16
9370,-26,-10,10,-2,-14,-18,0,-9
9375,24,2,-11,-2,5,28,-2,11
9380,-26,-4,21,-11,-12,-3,-4,-29
9385,20,4,12,-45,16,-3,-4,47
9390,19,1,-27,42,-5,34,11,-40
9395,10,-1,-7,-36,-5,-40,-2,34
9400,-4,-1,-3,21,0,11,2,-3
9405,-17,-4,5,-5,6,22,1,1
9410,-8,-6,4,-11,-1,-8,-6,8
9415,-8,1,2,-1,1,-12,-3,-13
9420,-10,5,-18,-40,-14,3,0,-14
9425,0,-8,-11,26,-4,-5,1,-16
9430,11,1,5,6,3,3,1,35
9435,-6,-2,-2,1,-9,23,3,-18
9440,3,1,10,16,11,-18,-5,15
9445,-13,-5,6,-16,-14,-10,-4,-46
9450,-32,-2,-8,-25,-8,-29,2,47
9455,61,14,-12,-8,25,41,2,43
9460,9,-1,1,15,0,-10,0,-7
9465,-2,-1,1,3,8,5,5,4
9470,-21,-8,-1,-12,-9,-22,-8,-65
9475,-9,-1,9,3,0,2,-3,10
9480,1,-2,5,-4,-15,12,1,28
9485,20,15,-7,0,16,19,6,-6
9490,-4,-4,22,10,-17,-6,-2,-3
9495,-6,-1,0,11,-13,-21,-1,16
9500,6,0,5,9,-1,-4,0,-6
9505,-13,-6,14,-12,-4,15,-4,-42
9510,9,6,-1,9,-1,16,-4,21
9515,-10,-4,-10,43,52,19,6,-29
9520,28,1,-9,-14,-4,-27,-1,38
9525,1,6,3,-4,-3,6,2,6
9530,-6,1,0,3,-1,-6,0,-3
9535,-13,-6,-7,-23,-17,-22,-7,-28
9540,-4,-3,13,2,-3,-6,-3,-9
9545,3,-3,-7,17,12,3,4,11
9550,-30,-4,1,-6,18,-23,-3,-24
9555,39,4,-2,-26,-25,-10,3,44
9560,10,7,6,35,8,22,5,-23
9565,10,-4,-7,-12,-8,-24,0,30
9570,-9,-3,1,-7,0,-17,-5,-39
9575,-22,-1,5,-9,-1,10,-4,-1
9580,-8,0,-3,-34,-4,6,0,-22
9585,-12,-12,-22,20,-9,9,-6,12
9590,36,10,4,34,9,-27,10,26
9595,13,4,4,4,14,25,-4,7
9600,-5,-5,-12,-11,-15,-21,-1,-2
9605,-8,0,2,-6,-6,1,1,-15
9610,-7,-6,2,-4,-12,3,-4,-3
9615,-5,-1,3,-6,-5,-7,-4,-1
9620,-14,5,-8,11,5,9,0,-21
9625,-1,-3,3,20,-10,-22,-6,-20
9630,16,6,32,-49,9,20,-6,57
9635,4,-12,-26,29,0,27,16,-25
9640,-8,-5,2,-11,-5,-22,-5,-4
9645,4,1,-11,1,3,16,2,1
9650,6,-6,-5,-5,-8,7,-6,12
9655,-29,2,12,-6,3,13,-11,-20
9660,2,-3,0,-1,5,8,6,18
9665,12,0,14,-22,-16,-9,-4,20
9670,-19,5,7,51,14,3,0,-20
9675,-2,-9,-8,16,-14,2,1,-3
9680,15,1,-8,6,5,-11,3,6
9685,-1,-3,12,7,16,-13,-3,-2
9690,9,0,-13,-23,-26,-9,3,0
9695,-20,-2,3,-5,6,0,-1,-30
9700,-16,-6,-2,-1,4,10,-5,16
9705,38,11,-3,-5,-10,-4,1,53
9710,6,5,-3,0,-2,12,0,-7
9715,-3,-7,-11,-14,-2,-51,-9,10
9720,-7,-13,-16,32,11,-9,5,-23
9725,-8,-2,-6,1,1,11,3,-8
9730,-1,-8,-10,8,-3,-3,0,-4
9735,-3,13,11,-10,-6,-1,-2,-21
9740,-11,2,4,-21,-9,6,-6,9
9745,-6,-5,-6,10,12,2,0,-10
9750,7,0,19,3,-15,36,1,1
9755,-4,-5,-26,-1,4,-18,-4,32
9760,6,6,6,-3,15,55,8,-27
9765,5,-2,-7,4,-5,-23,-3,-15
9770,-4,-5,5,1,21,10,1,8
9775,-14,-4,10,-10,-8,-9,-3,-38
9780,17,7,4,6,-10,-14,-1,29
9785,-8,-1,-8,-4,11,9,1,-2
9790,-21,-5,7,-54,-43,-35,-8,-33
9795,3,-5,-8,47,23,12,4,2
9800,13,10,-11,-13,-8,-16,1,24
9805,-6,-6,9,-2,-1,21,-1,-30
9810,12,2,-13,-8,6,-14,-1,9
9815,-14,-2,8,-14,-9,2,-2,-19
9820,-4,-7,-8,-18,-3,24,-8,6
9825,14,6,-5,28,1,-38,-2,-14
9830,-8,-1,-15,-8,-7,-24,2,26
9835,26,9,20,15,17,31,2,5
9840,-9,-10,-5,-1,3,-5,-3,4
9845,-13,-2,9,-10,8,1,-2,-6
9850,-2,-3,-9,2,-15,-7,4,-1
9855,6,8,12,-5,-7,12,1,2
9860,0,3,21,32,1,18,-4,3
9865,-4,-4,-19,-38,-19,6,1,9
9870,16,-1,-10,2,20,5,6,-12
9875,-13,-12,-7,-8,-13,10,-1,43
9880,-3,2,2,-7,-3,9,0,-30
9885,-6,5,11,-25,0,5,-1,2
9890,-6,-4,-7,27,7,-7,-1,-9
9895,1,4,7,-17,-12,-8,2,10
9900,7,-7,-19,-2,8,-8,2,-13
9905,3,4,8,11,2,7,-1,1
9910,2,-1,-10,-2,1,-3,-2,-10
9915,-15,-5,23,16,-7,-33,-1,7
9920,-12,-1,6,9,19,2,-3,-3
9925,26,15,13,26,-7,6,5,40
9930,22,-4,-20,-20,-37,-47,2,-11
9935,-4,-2,-7,-25,9,10,0,8
9940,0,-3,3,5,-3,-12,0,3
9945,-17,-6,-8,-41,4,20,0,-19
9950,-11,3,19,20,8,15,-5,5
9955,5,-4,-15,-9,-5,2,-1,-3
9960,-2,-2,-5,-8,11,-8,-3,-2
9965,2,-4,4,14,-7,-8,-2,12
9970,-9,-4,-9,5,7,10,1,-21
9975,-3,-4,-14,-8,6,3,0,-19
9980,3,5,9,6,-17,24,-1,52
9985,12,6,2,-5,-5,-45,-2,-32
9990,-8,-5,-5,-4,27,23,-3,13
9995,11,-4,-7,8,-25,6,5,-9
10000,-12,4,-2,-17,2,-5,-2,-23
10005,-14,-4,-5,-15,-10,-10,-2,2
10010,5,3,-13,22,4,12,2,23
10015,-5,-2,2,-2,1,-11,-4,-26
10020,2,-7,-1,-9,-6,-18,-4,-9
10025,-6,-6,4,77,2,-4,-4,-11
10030,-4,2,0,1,13,24,-1,15
10035,11,-1,0,-8,-22,-10,1,-18
10040,-16,-5,-5,-15,-30,-41,-2,46
10045,-8,-3,1,17,18,6,-3,6
10050,-3,0,14,-1,-10,-6,0,-27
10055,-3,1,-3,-5,20,32,-9,17
10060,31,10,-1,-13,-21,-38,3,-15
10065,-18,-8,-28,-5,1,11,2,-8
10070,3,1,-7,9,-8,-44,1,-3
10075,-3,-3,-9,10,2,-4,0,20
10080,-6,-5,2,-8,19,15,-3,-35
10085,-3,-8,-5,-6,-15,10,-2,4
10090,18,7,5,-37,-9,-2,-3,17
10095,-2,4,2,33,22,3,3,-20
10100,-7,-3,2,-4,-6,24,-1,33
10105,-3,-4,-4,-20,-16,-17,2,-24
10110,-12,-1,13,-1,12,22,1,14
10115,39,9,5,2,-10,-44,-2,24
10120,-2,-4,-9,-8,4,32,0,-9
10125,-11,-2,-1,-16,-1,-3,0,-16
10130,2,5,2,6,-7,-5,2,25
10135,-24,-8,1,-24,-12,7,-7,-15
10140,8,-3,-7,16,19,32,-2,-12
10145,10,-4,-14,-6,0,-26,3,-1
10150,9,-1,-2,-1,3,-10,1,13
10155,-6,1,2,24,-4,16,0,-21
10160,7,1,-11,-37,-7,-18,-6,-17
10165,9,-2,6,-2,28,-1,-1,33
10170,-16,-8,0,8,-31,19,-1,-33
10175,4,1,-3,5,0,-36,-1,17
10180,-2,0,0,-18,-2,7,0,16
10185,5,6,0,-4,7,17,0,-13
10190,-3,3,2,5,3,-18,-2,-13
10195,-6,-3,7,-12,-2,5,-2,-8
10200,-24,-5,6,5,-4,-12,2,-21
10205,22,4,8,8,19,19,1,5
10210,4,-5,12,6,-14,-26,-7,-1
10215,-2,1,-12,-8,-9,7,4,-12
10220,18,-2,-4,36,19,-4,1,-6
10225,-11,4,2,-8,-4,8,-2,43
10230,-1,-4,-6,-3,15,13,-4,-5
10235,-5,-2,3,-10,-12,7,-3,-16
10240,-15,-4,2,0,-15,-24,-4,-9
10245,-4,-7,-1,-3,-16,-38,-1,-11
10250,-15,7,13,21,16,23,0,2
10255,-4,-4,-9,-16,-2,-9,3,14
10260,24,6,-4,9,10,3,0,-12
10265,-10,-4,-16,-42,-7,-5,-1,-1
10270,2,-2,-2,6,-16,-1,2,-12
10275,-6,1,10,0,16,16,-2,-8
10280,0,-2,-6,-2,-2,-5,1,23
10285,-7,0,4,-30,-10,-4,-3,-3
10290,8,-3,3,19,8,20,-4,2
10295,-5,1,-9,14,20,-4,1,-7
10300,-6,-3,4,-2,-28,2,-1,-17
10305,11,5,-5,-12,-2,4,-1,13
10310,-5,-6,-9,-18,-6,-6,3,17
10315,19,3,3,12,24,23,-1,20
10320,-8,-5,-5,23,-3,-29,1,-14
10325,-9,5,18,-2,-7,19,-2,-16
10330,-5,-7,-9,-9,13,-1,-1,-18
10335,0,3,5,-7,-10,3,-2,15
10340,4,2,7,-5,-13,-7,0,11
10345,3,-3,-5,15,13,47,0,-1
10350,1,-2,-3,-14,-6,-35,-8,-9
10355,-8,-3,2,4,-2,-12,0,6
10360,-9,-5,-2,-11,2,9,-1,-41
10365,4,4,6,43,12,11,0,47
10370,6,0,-6,18,-36,-42,-9,-30
10375,10,-4,-15,-1,10,29,7,27
10380,0,-2,-3,2,4,-14,3,-12
10385,2,0,-2,-9,3,-2,-6,2
10390,0,-4,4,13,10,24,-1,-1
10395,-5,6,2,-22,-7,-10,-3,-9
10400,-15,-1,0,16,12,5,2,20
10405,-2,-6,1,-10,-11,-5,0,-16
10410,10,4,-6,-36,-22,15,-1,20
10415,-2,-5,-5,6,-6,3,0,-6
10420,-1,2,1,20,15,10,2,14
10425,-6,-3,-1,3,4,1,0,-42
10430,-3,-2,-2,-4,-6,-6,2,25
10435,-17,0,14,-17,2,12,-4,-24
10440,5,-3,-20,-18,-34,-53,-8,31
10445,15,0,-9,10,30,5,2,-18
10450,1,-7,-10,-19,8,7,4,5
10455,4,6,11,8,-8,-16,-3,-6
10460,-2,2,14,-5,4,21,-1,-4
10465,-14,-7,-1,7,-14,-18,-2,10
10470,-12,-2,-6,0,6,-3,1,-33
10475,3,3,-4,-38,-12,4,3,21
10480,-3,0,16,41,35,44,-12,-3
10485,9,-4,-12,13,-15,-39,4,5
10490,-15,-3,9,20,24,31,1,-35
10495,4,-3,-7,2,-6,-3,2,9
10500,-1,2,4,-13,-3,18,1,11
10505,-7,6,11,-4,-1,-13,-6,-6
10510,-12,-1,-8,-9,-3,-1,-3,-9
10515,-14,-14,-17,-27,-15,-25,-9,6
10520,9,6,-8,17,15,-7,10,-2
10525,25,2,7,1,-1,17,-3,-15
10530,2,-2,-1,-12,4,-8,-2,28
10535,3,1,0,1,-3,-1,2,-11
10540,-3,-5,1,-11,-10,-11,-2,-9
10545,-12,-4,-6,-5,-6,3,-1,-4
10550,-8,8,19,5,9,20,1,-16
10555,-5,-9,-13,-12,-30,-41,-12,6
10560,11,5,2,1,-2,15,4,34
10565,-4,-4,0,18,14,5,4,3
10570,10,1,26,45,5,4,-5,-7
10575,-12,-10,-7,20,16,9,2,-14
10580,-18,4,-5,-31,-11,6,-2,-17
10585,38,10,3,-18,-16,-34,2,41
10590,-1,-9,-8,2,7,-5,2,-2
10595,11,9,8,19,19,-13,1,8
10600,-9,-12,-1,-1,-11,-3,-4,-11
10605,1,2,1,1,-1,5,3,12
10610,5,1,-18,-19,-1,-5,-4,-4
10615,7,1,-1,5,5,22,3,-4
10620,-3,-4,0,-2,-4,-9,-6,-33
10625,-16,-9,5,5,-1,-6,-5,22
10630,4,6,-5,9,-11,-8,-2,24
10635,-9,3,7,24,7,0,7,-18
10640,8,-1,-3,-5,3,20,2,1
10645,-13,-3,-1,-14,-5,6,-1,7
10650,6,-3,2,-27,0,9,1,-1
10655,-5,-2,-6,8,-16,-32,-4,-11
10660,15,4,-17,-8,19,3,2,23
10665,-4,2,6,13,1,33,-2,-19
10670,-14,-5,-6,-12,0,-3,3,20
10675,13,1,2,-11,15,37,-2,-20
10680,-11,-6,4,-9,-22,-22,-4,-10
10685,0,3,-9,-3,5,23,0,-10
10690,2,0,-4,27,13,-42,0,17
10695,1,-3,8,-21,-17,8,-4,-18
10700,-14,-1,6,-2,5,-17,1,33
10705,4,-5,-6,12,3,-4,0,-12
10710,7,4,-3,-11,-5,8,3,-3
10715,-10,-1,9,27,5,-10,-3,-9
10720,3,-5,-10,-61,-10,-15,-2,9
10725,-1,-1,3,11,8,4,0,-1
10730,12,0,-4,10,-11,-1,-1,0
10735,25,4,-11,-2,0,-1,2,13
10740,7,2,-5,-6,-1,17,2,-17
10745,-20,0,1,19,-8,-10,-2,-20
10750,-13,-6,6,-27,14,12,-2,-17
10755,9,5,-4,0,-4,20,1,38
10760,5,-3,5,25,-1,-47,1,-6
10765,-5,-1,-13,-35,-14,-15,-3,8
10770,-4,-7,-9,3,0,23,-1,-12
10775,-20,6,6,-26,-3,-10,-1,-6
10780,-13,-4,-3,31,4,-14,-7,1
10785,26,-1,-5,-31,-9,10,1,-6
10790,-13,-2,-9,2,9,-5,7,-4
10795,2,-7,18,-24,-7,-1,-7,-22
10800,-7,-4,-11,28,4,13,0,-17
10805,-17,-3,1,9,-5,-11,-4,-8
10810,2,-2,5,-2,-3,10,-3,8
10815,-3,-7,-6,-4,0,-13,1,-19
10820,6,9,8,-11,2,21,-1,18
10825,-1,-8,-3,-2,-10,-23,-1,17
10830,8,11,-10,-22,1,-3,-1,2
10835,5,-1,4,12,0,-20,3,-5
10840,-2,-2,1,7,12,18,0,-3
10845,-2,2,5,9,-1,11,-1,-3
10850,13,1,7,-5,-14,-35,-3,13
10855,0,-4,-14,-10,5,20,-3,14
10860,5,2,12,7,6,8,3,-8
10865,-13,-3,-6,-24,12,-1,0,-20
10870,-7,-1,5,32,6,-1,1,-31
10875,8,6,0,11,-6,10,1,49
10880,6,0,-6,-25,-17,-15,0,6
10885,-15,-8,-5,7,5,-1,0,-29
10890,7,4,-1,0,-5,-2,3,20
10895,5,-6,2,12,10,1,3,7
10900,-14,-1,-1,-26,-13,2,-3,-14
10905,-5,1,-22,-34,-5,0,-7,-2
10910,0,-4,1,43,-22,0,1,-16
10915,-15,-5,2,18,7,-5,-1,8
10920,21,4,3,-5,-2,21,4,24
10925,-1,1,12,16,2,-11,-2,-3
10930,-10,-3,1,6,2,23,-2,0
10935,-16,-4,-45,-36,0,-26,-4,-52
10940,20,11,6,15,-8,0,1,47
10945,9,-5,4,12,9,2,0,-17
10950,6,5,1,-17,4,-13,0,3
10955,-9,-9,13,-4,-18,-6,-2,14
10960,-10,-4,-1,57,23,0,0,-46
10965,1,3,-9,-3,2,-1,1,5
10970,2,-2,6,-22,-10,5,-1,16
10975,6,3,10,2,-6,-14,-4,36
10980,-6,-9,-5,-10,-3,-9,-3,-13
10985,-6,8,10,5,-2,10,0,2
10990,-7,-8,-4,1,4,7,0,-23
10995,-13,-2,4,-11,0,32,1,-7
11000,-4,-1,-11,0,18,-62,-6,-20
11005,17,-1,8,23,-37,4,0,14
11010,5,4,-1,-23,24,-12,0,27
11015,-8,1,8,1,4,9,2,-15
11020,2,1,-2,1,4,22,5,-1
11025,13,1,-8,25,14,-4,1,7
11030,6,-2,-3,4,-26,-38,-2,7
11035,1,1,6,7,0,-4,-1,2
11040,-22,-2,3,-21,-10,6,-4,-37
11045,-14,-3,-3,-29,5,11,-1,15
11050,0,1,0,-16,-7,19,1,21
11055,21,0,-4,15,6,-19,5,-13
11060,-1,-5,0,-18,3,39,0,-11
11065,-15,-2,-4,-2,-9,-42,-1,-20
11070,-3,2,4,-5,-7,10,-5,-8
11075,0,1,5,-39,6,9,-4,7
11080,12,-1,-6,28,-20,10,6,24
11085,-7,-8,-3,-9,-8,4,4,17
11090,30,10,6,17,28,4,3,0
11095,-16,-4,2,7,-7,-38,-7,-49
11100,16,3,13,14,13,23,-2,41
11105,-13,-5,-5,-10,-6,10,-1,-13
11110,-17,-2,7,-19,-8,-10,-5,2
11115,7,-5,-20,10,12,24,4,-13
11120,-14,-3,-3,-28,-9,-21,-1,4
11125,16,2,9,-3,-11,-47,-2,-18
11130,-2,4,0,20,7,16,1,20
11135,15,-5,5,21,-1,-29,1,6
11140,-14,4,-12,-43,-18,8,0,-4
11145,6,-1,4,45,19,11,2,6
11150,-9,-6,-14,-36,-8,10,-3,-18
11155,-4,1,2,24,-7,-2,-2,-4
11160,18,-1,0,-3,1,14,3,12
11165,-2,3,-8,-14,-2,-1,-2,18
11170,-3,-4,0,1,9,-5,0,-21
11175,-5,-1,2,-11,-12,14,-1,12
11180,-8,2,-2,25,5,-6,-3,-39
11185,-11,-2,-4,-27,-8,10,-6,20
11190,9,4,12,-45,2,12,-2,13
11195,6,-6,-15,26,7,10,5,17
11200,-5,-1,5,9,-2,-28,-2,-10
11205,-2,3,2,-1,4,0,-1,-14
11210,-11,-7,-3,3,-3,-6,-1,-11
11215,-7,2,1,-10,-1,0,-2,3
11220,-15,-9,-4,-2,-8,-10,-4,-21
11225,-5,0,16,-35,18,24,-6,8
11230,13,8,-1,38,-24,-25,2,-20
11235,16,3,0,0,-4,-13,1,27
11240,-8,-7,-6,7,1,-2,-2,-20
11245,-8,-1,13,2,-2,-2,-3,3
11250,-9,0,-8,-12,-2,-3,-4,0
11255,-11,-8,-20,-13,-3,-1,-3,-10
11260,3,9,8,-11,1,14,2,0
11265,4,0,-3,13,-14,-46,1,-33
11270,14,-5,1,4,11,10,0,59
11275,-15,-5,13,-1,-7,11,-6,-37
11280,-4,-6,0,-5,12,5,-4,14
11285,19,5,1,19,1,7,4,19
11290,-18,-4,-3,-11,-10,-11,-5,-27
11295,-1,4,-8,-15,22,1,-1,11
11300,-2,-1,-4,27,4,13,0,-29
11305,-5,-3,1,-1,4,10,3,29
11310,-9,-6,-6,21,0,-16,0,-32
11315,1,1,3,-15,-2,14,-2,-5
11320,0,-2,0,9,4,-8,-2,19
11325,16,4,4,-7,-12,12,-3,-5
11330,-7,-6,-18,10,11,3,-1,-8
11335,-7,0,3,15,-9,-12,2,-20
11340,-8,-6,7,-18,12,-4,-3,-8
11345,18,0,-10,3,8,11,3,58
11350,8,-7,6,-5,-3,-3,2,0
11355,-4,10,5,0,-5,1,-2,-6
11360,1,-3,12,14,-6,-1,-1,-2
11365,-22,-3,-15,-56,-32,-13,-6,-21
11370,10,-6,-22,50,19,26,2,-2
11375,-2,3,3,18,20,15,5,25
11380,14,0,-3,-17,-28,-44,-3,7
11385,4,-2,22,12,5,1,-4,0
11390,-13,-1,-4,2,-9,-8,-4,-16
11395,-2,-2,-3,0,1,10,3,-3
11400,-9,-9,-18,5,-16,-25,0,8
11405,7,6,9,4,0,-9,-1,-5
11410,-3,8,15,-13,-8,-22,0,0
11415,2,-3,5,11,15,-9,-1,8
11420,19,4,-6,-6,-11,-1,2,14
11425,-15,-7,-12,4,6,13,-2,-22
11430,-6,-2,1,-6,-10,3,0,-5
11435,5,1,1,-25,-6,-2,-4,-18
11440,-14,-2,4,7,8,21,-4,70
11445,-4,-3,-14,-2,-3,-14,0,-9
11450,17,6,8,-35,0,4,-3,1
11455,-3,-2,-5,6,12,11,3,-9
11460,-5,-6,-11,-16,-6,-1,-2,-18
11465,-2,-2,1,-4,8,7,1,8
11470,-9,-2,0,2,3,1,-1,11
11475,-10,-5,-2,-17,-16,-20,-6,-14
11480,-1,3,-10,-29,1,23,-2,-18
11485,-1,-7,-1,24,9,0,-1,3
11490,5,12,2,26,-5,-8,2,-29
11495,-8,-12,8,-32,-8,-4,-2,-19
11500,0,1,9,26,2,-14,-1,55
11505,20,2,3,-2,1,13,2,-20
11510,-5,-4,-5,-7,-1,8,0,-6
11515,3,6,13,18,2,4,0,8
11520,7,4,-1,0,-4,-4,5,-11
11525,-10,-10,1,3,-7,-15,-3,-18
11530,0,2,13,-21,-4,-8,0,16
11535,-3,-2,-12,0,-8,4,0,4
11540,12,3,6,-5,8,3,1,-1
11545,-7,-1,-12,10,1,3,0,-1
11550,0,-2,-2,-7,15,3,1,-18
11555,-9,-4,-8,1,9,21,2,25
11560,-12,-5,7,-8,-17,-46,-8,-45
11565,22,4,-5,6,10,0,0,50
11570,-16,-6,6,8,22,16,-2,-13
11575,0,-3,-9,-14,-18,8,-2,-5
11580,-8,7,-1,0,2,24,-2,5
11585,-3,-1,4,-19,-10,-32,-2,-5
11590,3,-3,1,19,9,4,5,1
11595,12,1,-10,8,3,-7,-4,-15
11600,-5,-7,-10,4,-11,24,5,0
11605,-14,-1,7,14,0,-20,-4,-30
11610,6,0,-17,-8,-4,5,-1,29
11615,-6,0,6,-38,-19,-27,-4,7
11620,3,3,12,62,15,11,1,-8
11625,-8,-2,-7,-9,22,32,4,4
11630,8,-4,-7,-10,-17,-52,-5,2
11635,4,-1,6,17,-1,12,2,-4
11640,6,13,4,-27,-1,4,-1,2
11645,-19,-2,21,13,9,1,-3,-16
11650,-1,-5,-18,9,-2,10,0,25
11655,-2,-2,0,5,1,-4,-1,15
11660,9,-6,5,-12,12,-4,-3,-8
11665,-2,0,-6,7,-5,22,3,-17
11670,-7,-1,3,-10,2,-5,-3,-11
11675,5,0,-10,5,-1,-11,-2,14
11680,-6,-6,-4,-3,-2,4,3,-7
11685,15,10,-7,-27,-19,-12,-1,5
11690,-16,-1,3,26,-4,-2,-1,-5
11695,10,-1,-2,-1,18,11,4,-11
11700,6,2,-2,-8,-4,-20,0,0
11705,-4,-10,-5,-4,-1,13,0,24
11710,21,8,-8,-12,-7,22,5,3
11715,-9,0,0,4,10,2,1,-2
11720,-3,-1,-7,-8,2,0,-2,-24
11725,-4,-3,0,-1,-8,-3,-4,18
11730,-7,-5,-4,2,-2,-17,-1,-19
11735,-2,-5,3,11,8,4,-3,4
11740,9,-1,-1,-35,1,5,2,19
11745,-7,4,-7,31,1,2,-5,-36
11750,-1,5,13,-15,15,4,-1,-5
11755,-3,-5,-3,27,1,-19,-2,12
11760,-9,-3,-4,-6,-6,4,-2,-1
11765,0,-1,-5,6,2,-11,2,-8
11770,-2,0,16,-3,-11,-1,-1,-1
11775,4,6,-8,1,5,-1,3,-2
11780,20,1,18,-10,-24,-31,-5,37
11785,-8,-4,-10,8,6,15,0,-18
11790,-2,-3,-1,-5,3,5,0,3
11795,3,-1,-1,-12,-18,-8,-3,-9
11800,-27,-7,-6,2,3,8,-2,-53
11805,18,5,5,-20,-8,-24,2,47
11810,-10,-1,-7,32,19,10,-2,2
11815,32,14,4,14,-8,12,2,6
11820,-3,-4,0,6,5,-21,0,-1
11825,-7,-4,-7,-9,8,10,2,-21
11830,-8,-7,0,-16,-27,-3,-2,13
11835,-17,1,7,1,13,-4,-4,-11
11840,12,0,0,14,-14,2,-2,13
11845,5,2,1,-9,7,6,1,-11
11850,28,0,8,10,-2,-19,1,16
11855,-11,-1,1,0,1,-1,0,-7
11860,3,1,-3,-21,-10,18,0,-3
11865,-14,2,3,20,13,-13,0,-5
11870,-14,-12,-10,5,-8,-1,-7,-24
11875,20,10,-3,-6,-10,-33,-3,31
11880,-6,-5,-6,4,9,13,5,22
11885,0,-1,0,-3,-1,-3,-6,-10
11890,3,5,9,-6,6,6,-2,0
11895,-16,-10,-7,-25,-37,1,-2,-7
11900,-12,-1,-16,20,13,13,-1,-22
11905,8,0,5,-4,-5,2,0,21
11910,14,1,1,-11,0,0,1,16
11915,1,0,3,10,7,16,-2,-5
11920,-4,0,-3,-2,-4,-12,0,-2
11925,-16,-4,-6,-5,-3,22,6,-46
11930,1,0,-9,-27,-18,-28,-3,24
11935,-6,-5,-4,15,-4,7,1,-4
11940,2,0,7,25,-4,-27,-2,-25
11945,17,1,-1,1,19,-7,-2,5
11950,-4,-3,-12,-4,-14,9,1,13
11955,4,2,12,-13,-3,2,-1,7
11960,-19,-5,-8,-1,5,-2,-5,-12
11965,0,1,-18,-21,-15,5,-2,4
11970,6,9,18,48,29,0,5,12
11975,4,-14,-3,-5,-3,10,0,-11
11980,16,10,-6,-23,5,-27,-3,10
11985,-12,-2,6,6,-10,0,-1,-6
11990,-8,-5,-9,-36,-11,8,-1,-21
11995,-7,-2,9,8,5,0,2,40
12000,0,-2,-11,19,6,10,-6,-19
12005,13,-1,-7,-28,-12,9,1,24
12010,-11,-1,0,-6,-19,-58,-3,-25
12015,2,1,5,0,19,3,3,-10
12020,-11,-7,5,-12,-2,11,3,-3
12025,-2,2,5,-23,-6,-1,-7,28
12030,-4,-1,-14,-7,3,37,-2,6
12035,-3,4,-2,43,14,-48,-2,-21
12040,3,-2,7,-5,0,0,2,0
12045,-11,-3,4,17,4,-7,-1,-25
12050,-9,-7,-3,-31,-7,7,-3,4
12055,-4,1,-9,-5,-13,-7,-4,-1
12060,-3,0,-5,0,4,22,2,11
12065,6,-6,8,20,1,-16,0,8
12070,7,6,-11,-5,-17,-58,-1,-31
12075,-2,-6,-3,-8,-1,24,-2,13
12080,-2,9,4,-21,0,-1,-1,13
12085,12,1,10,26,0,4,1,12
12090,-5,-1,0,14,2,21,1,3
12095,-3,-2,6,16,16,14,-1,-39
12100,-9,-9,-15,-9,-2,-27,2,-9
12105,5,4,3,-11,5,-7,-3,22
12110,4,2,1,5,-4,21,0,8
12115,-9,-7,-9,-23,-21,-13,1,-18
12120,9,7,1,22,13,14,3,22
12125,-6,1,-2,-2,11,24,0,-28
12130,3,-5,13,15,15,-20,2,5
12135,2,5,-7,-23,-21,10,0,17
12140,-7,-5,7,5,-5,12,-3,-19
12145,-16,-1,-15,-6,-3,-19,0,-15
12150,1,0,14,11,10,-17,-6,2
12155,12,-2,1,10,13,9,0,3
12160,2,-7,4,7,-1,5,-1,11
12165,1,12,-5,10,3,11,2,-22
12170,-4,-6,-7,-26,-14,5,-5,7
12175,-2,3,10,1,0,-6,-4,20
12180,17,-1,21,-2,7,8,2,-4
12185,8,-7,-7,11,-9,-16,1,-3
12190,-9,-2,-7,-8,0,18,-1,-36
12195,-8,1,-6,-3,13,-4,1,-6
12200,11,5,3,1,-15,-1,-3,26
12205,-10,-3,-6,-19,-9,-7,-5,18
12210,-11,-3,-11,-14,-3,16,-3,-8
12215,21,0,-5,52,37,-20,7,5
12220,-12,4,-2,-6,-7,-31,-2,-8
12225,5,-2,-1,6,-10,0,-1,-11
12230,2,-3,-1,-8,0,9,-1,2
12235,-10,-4,-2,-34,-17,1,-4,-4
12240,2,9,6,-6,3,19,2,22
12245,-3,-6,-11,3,-11,-44,-5,-12
12250,-12,-6,-4,0,2,-18,2,-10
12255,29,7,8,-8,-13,14,2,31
12260,-11,-2,-3,13,7,7,4,-2
12265,-5,-1,4,-15,-5,10,-7,0
12270,-5,-1,0,9,4,13,0,7
12275,-8,5,5,-35,-20,-35,-7,-18
12280,7,-3,-12,42,32,17,6,4
12285,-9,-6,5,8,-12,-1,1,1
12290,20,-2,-3,11,8,-4,1,1
12295,-10,3,-1,-11,-2,12,-2,-4
12300,-12,-4,2,-20,-17,-14,-6,-30
12305,11,4,6,-10,5,8,3,54
12310,6,3,-9,-2,4,12,-2,-13
12315,-6,-7,-26,-27,-10,12,0,-21
12320,1,-5,-3,19,2,23,1,12
12325,-6,1,-8,9,8,0,1,-22
12330,-6,-3,7,-12,-14,-8,0,13
12335,-3,1,3,0,0,1,-1,38
12340,3,5,-6,-14,-13,-12,-8,-43
12345,18,-3,2,-3,25,22,2,17
12350,14,3,2,21,13,12,2,18
12355,-14,-10,-4,10,0,-8,-4,-31
12360,-7,-3,2,8,-1,-5,2,11
12365,-3,3,5,-8,-14,-9,-3,2
12370,-12,2,10,-18,9,2,-6,-13
12375,22,-1,-25,9,1,16,5,11
12380,0,-2,17,17,12,-9,3,4
12385,-6,-6,-5,-2,6,2,2,-28
12390,-13,-1,0,13,3,-1,0,-15
12395,-14,6,13,-16,-7,-2,-6,20
12400,3,-10,-15,-22,-10,-4,-7,-2
12405,1,10,8,19,-7,17,4,-9
12410,-4,-6,3,11,7,-22,0,10
12415,1,1,6,3,2,-1,0,-20
12420,-10,-7,-9,-20,-8,0,-6,-16
12425,-9,-4,-7,-6,-2,-8,0,-15
12430,10,1,4,11,14,12,-2,32
12435,-8,3,2,-15,-27,-27,-6,-14
12440,1,-2,-2,7,12,2,4,-12
12445,10,-9,-9,-14,-3,-1,-2,27
12450,-2,15,-1,1,-12,0,-3,-37
12455,-16,-14,-3,-10,16,13,2,-3
12460,13,0,1,-21,-6,0,-7,31
12465,-9,0,-1,20,0,-15,-1,-6
12470,4,-1,1,5,-15,5,2,-5
12475,0,1,3,23,10,-1,-3,0
12480,-5,0,-3,-17,-3,-14,-3,-2
12485,-8,-1,-5,-5,-8,5,0,-21
12490,15,-1,-3,-10,9,-5,-2,44
12495,3,0,7,-2,-23,3,1,-14
12500,-8,2,18,14,8,4,-1,11
12505,6,-9,-7,-4,5,2,-1,-2
12510,10,3,5,17,1,11,1,2
12515,-15,-5,6,-17,-19,-38,-3,-20
12520,3,4,-10,-17,6,14,-1,26
12525,7,-1,-8,22,11,-7,2,-12
12530,-3,4,-9,-2,-5,4,1,-11
12535,2,-1,6,7,11,-15,1,4
12540,-11,-8,1,-3,-15,10,-2,-15
12545,-5,11,4,-17,0,6,-4,15
12550,-12,-14,-6,0,1,-18,-4,-34
12555,37,15,6,27,21,26,5,36
12560,0,1,-9,5,-11,-8,-1,-29
12565,-12,-8,-3,-26,-6,-7,-4,8
12570,-24,-8,-8,-18,-6,12,3,-10
12575,20,-1,-18,-9,5,12,0,22
12580,1,-1,-1,1,5,2,1,-1
12585,-3,1,17,18,23,-28,-1,-33
12590,9,0,-6,-12,-20,8,-1,39
12595,-14,-1,1,11,7,-2,-2,-20
12600,5,6,0,-2,-3,-8,3,56
12605,12,2,4,10,-1,9,-3,-28
12610,-5,-3,-7,-30,-7,-13,-1,-11
12615,-5,-8,-6,-3,3,31,-1,-1
12620,2,-2,-1,5,0,6,-1,0
12625,0,5,5,12,-3,16,3,11
12630,4,3,13,17,5,-19,0,3
12635,2,-1,-18,-24,-6,15,-1,1
12640,-3,-2,-7,9,0,-16,2,-16
12645,1,-4,19,-13,-9,8,-2,13
12650,-6,-3,12,4,10,6,-4,5
12655,-5,-1,-10,0,-14,-8,-1,-4
12660,-16,2,6,-15,5,-5,1,-55
12665,9,-5,-3,-17,-1,-2,-2,6
12670,4,4,-4,13,-9,-7,2,15
12675,12,-4,16,19,2,-8,-2,27
12680,1,2,-7,4,-7,-5,-3,-9
12685,-8,2,-8,-28,3,7,-4,0
12690,0,-5,-7,-5,-6,37,1,-19
12695,-14,-4,7,-21,1,-10,-1,-13
12700,45,7,1,18,-6,22,3,47
12705,-7,-7,-11,-3,-8,-3,1,-20
12710,11,3,2,19,22,10,-2,20
12715,-14,-1,8,1,-20,-14,2,-12
12720,-5,-2,-4,-15,0,9,-4,-9
12725,-17,-8,-1,-6,-3,-12,-3,10
12730,6,8,-15,-34,-14,-6,-8,-14
12735,14,0,1,45,7,-22,1,25
12740,-8,-6,-1,-18,2,-6,-4,-13
12745,5,1,-11,5,0,-11,1,6
12750,-10,-5,-6,-8,-1,-14,1,-31
12755,-6,0,-2,-14,1,8,-4,19
12760,14,1,5,-8,-5,16,1,12
12765,-1,0,-1,29,-4,-29,-2,-5
12770,3,-3,0,-7,1,-16,0,2
12775,-7,2,5,-3,16,5,-4,-10
12780,8,-3,2,16,-6,-16,0,-14
12785,-18,0,-10,-9,-8,16,-2,0
12790,6,5,7,-17,-8,-7,-1,13
12795,-2,0,-6,30,18,30,-2,-9
12800,-13,-9,-10,-13,-22,-45,-3,11
12805,3,2,1,4,12,25,1,-24
12810,-13,-2,3,7,-14,-21,-6,13
12815,4,-4,5,-34,-4,1,-2,-7
12820,-15,2,12,14,19,30,4,-9
12825,14,-1,-5,-12,6,-8,-1,10
12830,-18,-9,-4,10,-1,11,-1,-20
12835,6,0,0,-14,8,7,-1,4
12840,9,-1,1,0,-7,-65,-6,10
12845,-7,-1,2,11,-18,6,2,16
12850,1,-3,-1,9,32,13,1,-26
12855,-3,-6,-10,-4,-31,-14,-2,37
12860,-2,2,-1,-2,7,-11,-4,-24
12865,13,-2,-4,3,3,5,-1,32
12870,-1,1,1,5,-6,-2,1,24
12875,-11,-6,0,-1,2,9,-4,-62
12880,7,2,-6,-11,-3,6,3,30
12885,-8,-2,13,-22,-9,-7,-6,-4
12890,-6,3,2,20,8,38,5,-23
12895,0,-3,4,4,-1,-36,0,17
12900,-14,-11,-12,-7,11,-24,-1,-17
12905,28,13,1,-3,1,0,2,22
12910,12,-2,1,4,1,-12,-2,-1
12915,7,7,-3,2,-8,5,1,-5
12920,3,0,7,14,24,42,2,-27
12925,-10,-7,-8,-29,-37,-33,-3,-14
12930,-20,-5,-14,17,0,-9,-1,22
12935,14,1,-13,-6,5,30,1,32
12940,-10,0,-2,-2,3,19,-3,-18
12945,-14,-2,-3,5,8,5,2,-47
12950,32,1,-9,-22,-12,-15,-6,41
12955,-9,3,-5,-4,15,2,-3,-11
12960,4,-1,-23,4,11,25,-2,19
12965,10,15,4,5,-7,12,6,20
12970,-18,-11,16,-19,1,21,-3,-26
12975,-5,-7,4,11,-9,-33,-1,-23
12980,-16,-4,-9,-9,-14,-17,-6,-36
12985,1,-5,-7,3,9,19,-4,56
12990,2,4,0,21,-1,-36,-3,-18
12995,-6,-11,34,1,-10,-9,-4,-9
13000,5,10,0,-14,9,0,2,15
13005,-14,-9,-6,0,-8,-2,-4,-26
13010,8,4,-5,-9,-3,15,1,25
13015,-5,-2,-7,10,16,-4,-4,-18
13020,-9,-4,-6,-23,-17,-3,3,9
13025,2,3,-2,24,12,35,3,-11
13030,8,-2,5,-3,4,-5,0,3
13035,-4,3,-7,-9,-24,-36,-3,-18
13040,7,4,15,45,5,11,1,12
13045,-9,-5,-5,1,18,12,1,-20
13050,-7,-5,7,-13,-23,-8,-6,18
13055,13,-4,-8,3,17,25,4,-1
13060,-1,7,16,1,-15,-43,-5,-11
13065,2,3,19,-7,7,-12,-3,8
13070,-18,-4,-17,8,-4,-2,6,-35
13075,-7,-7,-11,-9,6,5,-2,22
13080,25,2,9,-12,-2,3,1,28
13085,-9,-1,8,2,13,8,-4,-16
13090,13,4,1,1,-47,-18,4,4
13095,-10,-1,-10,0,-12,-1,0,-3
13100,-9,-1,-8,3,2,17,-1,-16
13105,-9,-5,7,-10,-12,-17,-4,-1
13110,15,6,2,1,30,20,1,10
13115,-8,-3,-3,1,-6,-7,1,-28
13120,0,1,6,20,-2,14,-5,-12
13125,11,-4,-15,-22,-17,-40,-2,10
13130,-19,-5,0,2,7,-1,-1,9
13135,20,11,-5,0,4,13,0,9
13140,-18,-9,-13,-47,-1,12,-4,-17
13145,29,1,4,52,18,24,7,27
13150,-9,-2,-11,-7,-14,-59,-6,-31
13155,-3,3,3,-11,-11,-3,0,-21
13160,5,-2,1,2,-6,-29,2,31
13165,-14,-5,-6,-15,1,7,-2,-9
13170,-1,-5,2,1,1,24,0,-9
13175,-17,5,7,10,3,8,-2,-28
13180,5,-8,-1,26,7,6,-4,2
13185,7,-2,0,-2,4,-28,4,31
13190,0,5,-4,-12,8,57,-1,-18
13195,-7,-4,2,0,-4,-51,-3,11
13200,19,3,-8,-10,4,19,4,-2
13205,-8,0,-6,-4,-4,-6,-2,-11
13210,2,-4,-3,2,2,-7,-3,-11
13215,-8,-2,13,-6,9,7,-2,-9
13220,-4,4,6,-12,-16,-16,-3,45
13225,4,0,-3,24,1,10,2,-8
13230,4,2,-9,-17,-7,-38,-3,7
13235,13,0,10,28,3,11,0,12
13240,-18,-4,8,-41,16,-1,0,2
13245,14,1,-15,-2,-15,-22,2,-22
13250,-18,-8,-5,-11,11,-1,-3,-23
13255,25,5,-3,0,-8,-13,0,48
13260,-5,-7,-1,13,4,10,-1,-27
13265,-19,1,-7,-7,4,-7,-3,12
13270,16,5,14,-13,4,31,2,12
13275,-16,-6,-12,-3,-21,-32,-4,-19
13280,-6,-3,13,7,-8,-3,-2,-1
13285,5,1,5,8,26,10,2,-17
13290,-2,2,21,-5,-17,8,-3,4
13295,-1,-3,-10,1,-13,14,9,30
13300,3,3,7,-2,-3,-12,-3,-22
13305,-3,-3,-3,-8,-1,8,-3,-3
13310,3,2,12,2,11,-11,-5,5
13315,-8,-4,-9,-9,23,32,-1,10
13320,3,-9,-14,23,-20,14,2,-8
13325,-12,9,12,-16,-3,2,-4,-5
13330,13,3,-6,30,-1,-33,-1,-14
13335,-8,-1,-3,-12,-3,-11,-3,-5
13340,-9,-5,-19,-10,23,13,0,4
13345,-1,-3,-8,-8,-41,-24,-1,-14
13350,-7,-5,-2,3,4,3,1,11
13355,3,-3,3,0,-12,15,-5,-15
13360,-4,7,-3,-12,1,-9,1,2
13365,-4,-2,0,3,7,3,-1,-34
13370,8,0,-7,-3,-5,3,-2,38
13375,-4,-7,5,-9,15,2,2,8
13380,16,8,-8,19,-11,11,-1,-14
13385,-8,-3,0,-4,-6,-8,-2,2
13390,-3,-1,-4,-6,5,14,5,-4
13395,6,4,1,21,5,5,2,3
13400,-2,-3,5,-14,-3,-8,-2,-11
13405,-8,-1,3,10,4,18,-4,12
13410,-2,-7,-18,5,12,16,1,-16
13415,2,7,5,28,14,-29,1,0
13420,-11,-6,-3,-1,-8,-24,4,13
13425,12,1,8,1,-5,11,-4,11
13430,-10,-3,6,-2,3,3,-1,-5
13435,1,8,-14,-30,-1,6,-1,-26
13440,-6,-5,-5,2,2,4,1,16
13445,12,2,33,18,15,-14,-2,5
13450,-10,-3,4,24,10,-20,-2,-2
13455,10,-1,-3,-7,1,32,1,-30
13460,8,3,15,-3,-11,-39,-1,8
13465,-8,-3,-10,-12,-5,6,2,9
13470,-8,0,0,-10,-2,13,-3,-41
13475,5,-2,6,-12,-20,-25,-5,15
13480,-6,-4,-15,9,-5,7,-7,-4
13485,13,0,-5,1,11,-1,1,5
13490,-4,1,-3,4,-3,7,1,2
13495,-11,-5,-5,-2,-3,1,0,-15
13500,8,1,-4,-6,-3,7,-2,32
13505,-3,-2,-7,6,12,-14,-3,-19
13510,17,4,1,-12,-4,11,2,19
13515,-13,-1,-7,-37,6,9,1,-6
13520,-4,-4,11,24,2,-13,0,-1
13525,0,5,-11,-5,-2,6,3,-3
13530,5,0,5,17,16,7,-5,5
13535,-5,-6,0,-24,-10,12,2,-1
13540,-1,6,-2,11,0,6,-3,-3
13545,-24,-9,-14,-16,-19,-19,-6,-50
13550,9,-3,-9,-9,-2,-11,0,63
13555,19,7,4,30,-8,3,4,0
13560,-6,-3,-1,-11,-1,7,-1,-20
13565,8,0,1,7,-2,8,-3,14
13570,-13,-5,-7,-12,-14,-6,-1,-16
13575,-15,0,23,12,3,5,-9,-18
13580,11,0,-10,12,7,-10,5,43
13585,-1,-7,-5,1,4,-14,0,-4
13590,-7,8,-5,-1,-3,3,1,-1
13595,29,6,5,9,2,-1,-2,29
13600,-12,-5,-2,-5,8,6,-4,-28
13605,-10,-2,6,0,1,-1,-4,13
13610,-18,-10,-3,-13,-7,-9,-2,-27
13615,7,-2,-10,-9,7,-4,-1,17
13620,-9,1,-1,3,-10,-7,-1,-1
13625,22,1,3,-11,-9,-13,-2,32
13630,7,4,-1,10,4,15,2,-11
13635,-18,-3,-1,-3,0,4,-1,-19
13640,-13,-9,-27,-27,-6,-3,-3,-15
13645,17,11,6,14,17,31,2,35
13650,1,1,7,-16,-19,4,-5,-7
13655,-2,3,18,12,3,-3,2,15
13660,-9,-7,3,2,12,14,1,-61
13665,11,-3,-13,-25,-15,-3,0,23
13670,20,4,-4,15,14,-11,4,9
13675,-6,-1,-10,0,-3,-4,-2,32
13680,3,-3,4,-1,-9,11,-2,-20
13685,-15,-3,-4,-10,2,-11,-2,-14
13690,0,3,5,-3,-26,-52,-2,-13
13695,-11,-7,-16,9,0,-11,2,3
13700,6,5,9,-15,5,-8,-1,-33
13705,6,5,5,31,20,25,1,40
13710,5,-3,-13,-3,-4,-17,-1,-2
13715,-11,-3,-1,29,1,-15,-1,-19
13720,-9,-5,-9,-11,-7,-12,-2,-1
13725,-14,-13,0,-6,-14,-8,-2,-17
13730,28,18,21,0,13,20,-1,4
13735,-3,-5,-16,-13,-9,-16,-1,-6
13740,-4,1,12,12,-5,13,1,-42
13745,-2,-2,1,1,0,3,0,44
13750,-28,-8,-1,6,-4,-2,0,-15
13755,33,9,-4,-16,23,33,2,-16
13760,13,-3,-2,3,-34,-73,-5,40
13765,-5,8,-2,-8,-4,8,3,-38
13770,-7,-3,4,28,16,12,-1,6
13775,-1,-9,-3,-14,-12,8,-1,-2
13780,-18,5,3,11,25,37,2,18
13785,17,3,-1,-21,-29,-7,-3,-20
13790,2,-5,-13,4,-3,-13,0,10
13795,-18,-4,8,1,0,7,-1,-34
13800,3,-2,-3,8,15,19,1,56
13805,7,5,2,3,-1,-14,0,-24
13810,-5,-6,-3,-13,-1,12,-1,23
13815,-1,-1,1,4,15,-5,-6,-17
13820,6,-2,-6,-20,-20,18,0,9
13825,-7,6,6,20,11,3,1,-2
13830,-7,-4,-11,-20,-13,-18,-3,-10
13835,-7,-3,-1,27,-15,25,-1,-2
13840,16,2,7,-4,10,13,2,3
13845,-15,-6,0,-6,15,13,-4,-6
13850,-3,-3,-8,-5,2,-6,0,4
13855,1,10,5,-7,2,-9,-1,23
13860,17,2,19,20,-13,5,-3,-28
13865,-10,-6,-6,12,7,10,2,12
13870,13,0,-6,-22,0,6,0,-5
13875,-14,-4,-8,-2,9,-4,-4,-4
13880,12,4,7,13,3,-17,-2,16
13885,0,-2,4,-7,-4,-4,-2,-13
13890,3,-5,8,-3,7,-6,1,4
13895,-12,1,-2,5,-12,-68,-4,-6
13900,6,2,-21,-26,-14,13,-1,30
13905,-6,-4,-6,22,13,7,2,-14
13910,1,0,10,1,-3,12,2,0
13915,-2,-1,0,-19,-9,12,-1,-16
13920,-3,-1,-6,-2,7,-32,-3,19
13925,-2,-7,4,10,-20,12,-2,4
13930,-3,7,-7,-3,-4,-6,-7,-47
13935,1,-2,1,-9,12,10,2,-37
13940,2,0,-5,6,-12,-7,-3,50
13945,8,6,0,-16,16,14,2,8
13950,-16,-9,-8,-8,-19,-3,-4,-8
13955,9,-2,15,16,-16,-29,-1,10
13960,-18,-12,-12,-11,14,12,4,-29
13965,-3,8,-6,-14,-3,-1,-4,7
13970,1,2,10,11,9,-1,-2,38
13975,1,-1,-1,-17,-2,5,-3,12
13980,-10,-7,3,12,-7,-5,-3,-24
13985,-6,-6,10,4,-7,-7,-2,1
13990,-6,1,-13,-30,17,-5,0,-38
13995,16,3,-1,6,-8,22,3,29
14000,1,6,7,-2,-6,6,2,16
14005,-5,1,4,-13,-1,-27,-1,-29
14010,-7,-2,-2,12,-1,31,-5,7
14015,-8,-10,-19,-35,-6,19,1,5
14020,6,3,5,28,15,-11,2,-24
14025,-1,-3,-5,-4,1,-1,-2,-3
14030,-7,2,14,20,-5,-24,-1,8
14035,-2,1,-5,5,4,16,0,0
14040,2,-3,-3,-9,1,4,-1,40
14045,10,-2,-2,9,-15,-7,-1,-9
14050,7,2,3,3,5,13,0,4
14055,-12,1,-8,-8,-4,-16,-4,-1
14060,-19,-8,2,11,5,-2,0,-29
14065,6,6,-6,-15,-9,5,-1,21
14070,21,3,6,11,14,-5,3,16
14075,-7,-3,-11,-26,-20,14,4,-13
14080,0,1,-3,-2,4,6,0,-23
14085,-11,-7,-7,-13,12,-3,-5,-16
14090,-3,-3,19,13,-33,-10,-3,9
14095,5,-1,-3,18,13,-2,2,13
14100,2,0,5,-12,6,4,-1,-19
14105,12,6,-2,0,-22,3,-1,26
14110,-7,-6,-12,-5,9,-1,-2,-8
14115,2,1,7,7,-8,-25,-3,12
14120,-5,-6,-11,-12,7,13,-1,0
14125,0,0,14,13,13,-17,1,-16
14130,-7,1,-20,-15,5,17,6,-3
14135,20,2,4,22,15,2,2,51
14140,3,6,-7,-29,-5,15,-2,-6
14145,-4,-7,12,-4,-14,-27,0,2
14150,-11,-5,-5,8,1,22,-2,-20
14155,1,-2,-1,15,19,17,2,-8
14160,1,1,2,0,-6,-18,-2,0
14165,-11,-4,-6,4,4,15,-3,-12
14170,-7,-4,6,-13,-20,-27,-3,-7
14175,-13,-2,8,-1,-7,20,-9,-7
14180,13,8,0,22,9,-9,4,-1
14185,14,0,-1,-17,5,5,4,16
14190,3,4,-2,10,0,-9,3,5
14195,-19,-6,-7,6,-7,-8,-5,-15
14200,18,4,27,-20,8,6,3,27
14205,12,-3,-22,4,-2,6,3,-11
14210,-3,-2,-6,-24,4,14,-1,-3
14215,0,2,13,22,1,-14,0,-7
14220,-13,-3,-1,2,8,2,-4,3
14225,-1,-2,-6,-15,-2,12,1,0
14230,20,-2,6,7,1,-10,2,17
14235,-10,-6,-16,-23,-11,0,-4,-1
14240,2,10,-4,4,7,-3,-2,-23
14245,-9,-8,-1,-3,17,8,-2,4
14250,3,2,-11,15,-4,-6,-1,25
14255,9,3,3,19,0,-15,2,5
14260,-11,-11,-18,-16,-9,8,1,-1
14265,-6,0,1,2,7,-32,-3,-13
14270,-10,-2,4,-3,-6,-4,-3,-13
14275,-7,-2,2,5,8,5,2,19
14280,15,2,-2,7,-15,-2,1,21
14285,15,6,6,15,4,-7,-1,-6
14290,-9,-6,-5,-20,14,-2,-4,-1
14295,-13,-2,-1,9,-8,-15,-3,-40
14300,8,-2,-8,-10,-7,2,-2,21
14305,-10,-3,0,-3,-4,-34,0,16
14310,4,-2,-1,5,4,1,-1,-18
14315,4,3,-3,-23,4,1,0,1
14320,-12,-2,2,4,-17,-5,-3,-20
14325,-1,-1,-19,-19,-10,13,-5,-13
14330,0,-3,4,25,-10,0,3,28
14335,12,2,-4,-18,6,0,2,-11
14340,-20,-10,-3,11,2,-1,0,-25
14345,0,2,13,-6,-5,4,-6,7
14350,-1,6,-3,-13,-25,-5,-4,-10
14355,2,-7,19,25,9,19,-1,1
14360,-2,3,-30,-27,2,-17,-1,-8
14365,0,0,-1,17,-4,-15,4,4
14370,-7,-1,5,3,12,5,0,2
14375,-15,-2,0,-3,-21,-21,-6,-11
14380,12,2,12,-8,6,24,-1,-21
14385,-1,-8,0,4,-14,2,-2,33
14390,3,0,-12,-5,17,13,3,-13
14395,-13,-4,-8,-17,9,9,3,-1
14400,0,-5,6,12,-8,-15,-4,1
14405,-2,1,-1,-3,-4,1,0,-15
14410,6,8,4,2,-7,3,-2,6
14415,6,3,6,12,8,5,-1,-9
14420,-16,-8,-18,-14,-1,-30,-3,5
14425,-6,-2,-7,9,12,22,3,-8
14430,12,-4,-6,-9,0,-28,-2,11
14435,-2,-1,3,1,-6,-42,-4,-14
14440,10,7,11,11,-9,19,1,27
14445,-16,-6,-14,-25,-13,-19,-6,1
14450,-2,3,-2,-8,-2,7,1,-39
14455,11,-1,-8,-7,2,13,4,43
14460,-1,3,25,17,5,-5,-5,17
14465,-11,-4,-6,7,5,22,2,-17
14470,2,-5,0,-3,-3,-2,-3,-11
14475,4,1,0,-3,-11,-12,-1,18
14480,-15,-2,3,-13,-7,14,-4,-26
14485,16,12,2,16,0,8,2,7
14490,0,-4,-14,10,6,4,0,4
14495,-7,-2,12,-4,28,9,-2,-5
14500,0,-3,-1,3,-22,-17,1,-3
14505,-2,-2,5,-9,-6,11,-1,-10
14510,-1,1,2,22,0,-8,1,1
14515,4,-3,-6,-36,-10,-9,-1,-32
14520,7,5,-2,6,5,-3,-1,21
14525,7,-1,6,3,17,-10,1,8
14530,-10,-8,0,-5,-20,3,-1,3
14535,5,10,4,11,3,2,-1,-4
14540,5,-1,-6,1,3,0,2,-19
14545,-11,-3,0,-21,-1,8,-1,9
14550,8,2,4,-3,3,-28,-3,-9
14555,-5,-7,4,16,-21,4,-5,29
14560,-6,-5,-12,-20,10,4,-2,-21
14565,10,3,-6,10,4,3,3,21
14570,-1,2,10,3,16,5,-3,-3
14575,-8,-3,-16,-26,-10,-4,-2,1
14580,20,4,9,17,-4,4,2,-7
14585,-17,-3,2,4,-4,1,1,-8
14590,3,0,-1,-2,-5,-43,-5,20
14595,9,3,-5,-28,-2,-3,-1,-6
14600,-16,-8,-1,35,24,4,1,4
14605,5,-3,-3,-5,-16,-12,-3,-13
14610,-2,-7,4,8,-9,21,1,-5
14615,2,9,5,10,-5,1,-2,-8
14620,-1,-6,-1,12,11,-19,-3,14
14625,-4,-2,0,-17,-22,-4,-4,-12
14630,-5,-3,-10,2,20,11,3,14
14635,4,2,1,6,-20,-12,2,-9
14640,9,2,2,-15,-5,5,-2,12
14645,0,-1,6,12,2,-27,-5,-27
14650,-6,-2,-3,-13,-26,-10,-6,17
14655,-9,-10,0,-3,28,8,3,-15
14660,5,7,-18,5,11,26,1,17
14665,-4,-2,2,5,-9,-9,-1,-2
14670,8,3,-1,-20,7,32,2,1
14675,-2,-6,-5,1,2,3,-2,-5
14680,-20,-7,4,5,-2,-8,-3,-11
14685,22,6,30,2,7,17,3,25
14690,9,6,3,-2,2,-6,-5,-6
14695,1,-3,-16,7,-9,14,4,10
14700,9,0,6,-13,-10,-17,3,-10
14705,-24,-4,-9,-2,1,6,-6,-10
14710,5,1,9,2,1,5,-1,10
14715,4,-2,5,0,2,2,-4,11
14720,-6,-1,-14,-8,1,-12,0,-20
14725,-8,-4,5,2,3,20,-1,-1
14730,8,7,-3,-8,-6,-31,2,-9
14735,-15,0,-8,12,8,1,0,-14
14740,3,-10,-9,-12,-13,2,-5,16
14745,-6,-4,-17,-19,-1,7,3,-17
14750,3,3,-3,19,15,20,3,9
14755,-1,3,-4,-7,-2,5,4,-3
14760,13,7,16,-5,1,-10,-1,-3
14765,1,-5,-1,-20,-9,-3,-3,15
14770,-11,-2,0,16,-6,-4,0,-9
14775,3,-3,-2,-7,4,-9,-3,-11
14780,-1,-3,6,5,-5,-5,2,45
14785,0,3,-14,14,8,-20,-4,-48
14790,7,2,-5,-9,-1,13,2,26
14795,-11,-3,3,-7,14,12,-4,1
14800,-3,-5,3,-21,-18,-22,-3,-18
14805,7,1,-6,21,11,24,1,17
14810,-3,-2,-1,-6,-10,10,1,-26
14815,14,3,7,-2,7,-3,-1,13
14820,-9,-1,-9,-1,3,20,2,-6
14825,-6,3,2,-12,-7,-23,-4,-22
14830,-24,-11,6,4,10,-4,-4,10
14835,30,6,0,10,1,1,-1,17
14840,-2,1,-4,4,13,18,3,-9
14845,5,-5,5,16,-6,-9,-1,15
14850,-13,-2,10,6,1,-18,-6,-19
14855,-2,4,-16,-45,-9,-7,-1,-8
14860,-10,-1,-1,6,-6,-19,-2,14
14865,22,-2,0,12,31,11,2,13
14870,-16,-5,8,5,-17,-27,-4,-7
14875,7,0,-3,7,-9,-7,0,2
14880,-10,1,-3,-11,-10,10,-2,-8
14885,-8,3,3,1,18,21,-2,17
14890,5,-2,-4,12,-28,0,2,-17
14895,0,0,1,18,10,7,1,21
14900,5,-1,-2,-7,1,3,-3,-21
14905,-13,-6,-1,-14,-18,-19,-5,8
14910,5,3,2,0,12,7,-2,-16
14915,-9,-9,7,13,-7,-7,-1,21
14920,2,5,-6,-2,-7,9,0,-8
14925,-5,2,19,3,1,4,2,-9
14930,6,2,-23,-53,-7,-4,0,-19
14935,9,-1,5,28,-5,-30,-2,14
14940,-5,-2,3,7,14,4,2,-5
14945,-6,-3,-3,1,-32,-9,0,-40
14950,3,-2,-4,-4,11,14,4,40
14955,3,0,-1,-25,-7,5,0,-9
14960,-15,-4,4,23,4,9,-1,-9
14965,0,3,3,-12,-7,-14,-3,-23
14970,5,0,-10,13,22,19,0,24
14975,-5,-6,-20,-24,-11,1,-1,-24
14980,3,-2,3,3,5,10,2,13
14985,0,1,-2,-6,-2,17,-1,-7
14990,-4,8,7,2,-2,-41,-3,-1
14995,-9,-5,8,5,-12,12,-3,2
15000,17,6,-6,-18,2,2,3,-6
15005,0,-7,-12,22,15,12,-3,12
15010,-3,-4,4,-9,-17,-6,-3,-6
15015,-11,0,5,17,6,5,-2,-8
15020,-17,-4,-6,-27,-8,-14,-2,-21
15025,19,2,-9,9,13,13,-1,55
15030,8,1,0,4,9,-1,1,-7
15035,-26,-9,-10,-18,-13,5,-3,-35
15040,22,3,2,13,-2,-10,2,30
15045,-2,-6,3,-26,6,-1,-2,2
15050,-16,7,-15,-9,-5,20,0,5
15055,31,4,3,15,15,24,1,-5
15060,-14,-5,2,12,-8,-29,-4,-16
15065,-18,-2,-1,-27,-16,3,-1,-7
15070,3,-3,19,30,19,11,1,-7
15075,-8,-1,-4,-12,-1,-10,0,21
15080,32,8,4,-9,-3,6,-1,24
15085,-6,-1,-2,9,-7,-9,2,-9
15090,-18,-6,5,-16,14,5,-8,-8
15095,7,6,-4,0,8,8,3,-18
15100,-8,-4,3,10,-5,29,-1,15
15105,4,2,4,-5,-5,-12,2,-8
15110,-9,-7,-9,-6,-8,-46,-2,42
15115,16,11,9,-7,1,-6,-2,-14
15120,-18,-7,1,6,-7,1,0,-42
15125,15,3,6,29,11,-12,-3,38
15130,-11,-6,-9,-14,3,21,1,-30
15135,-19,-6,3,4,3,-18,-2,2
15140,10,5,-8,-12,4,-6,-3,6
15145,-14,-1,3,6,-3,-9,-1,-44
15150,2,-2,9,17,-8,22,-2,20
15155,1,-5,-19,-45,-11,-2,-2,19
15160,0,4,2,-9,22,7,0,-14
15165,5,-4,-20,16,-10,8,3,20
15170,3,-1,-3,-2,-14,7,-2,-26
15175,-11,-1,0,8,-2,-11,-1,-32
15180,-8,-12,-3,13,1,2,0,8
15185,38,20,-10,-20,5,-9,2,68
15190,17,-3,3,13,10,19,-1,-7
15195,-10,-1,5,-5,-8,-5,-1,4
15200,-21,-8,11,30,-2,-17,-3,-50
15205,-3,0,-2,0,7,7,3,3
15210,7,7,5,8,-4,-13,0,9
15215,7,1,26,6,-1,5,-2,7
15220,18,-2,-14,-14,-8,1,3,11
15225,-18,-5,0,-4,-9,-6,-1,-21
15230,-5,-3,-3,-5,-13,-24,-2,-2
15235,-9,-1,-8,-10,0,20,-2,-2
15240,8,4,-2,-8,6,-14,0,1
15245,-1,0,4,7,-4,3,-1,-14
15250,-3,-7,-9,-20,-2,4,0,-8
15255,-1,1,-6,-11,-3,3,-1,0
15260,-7,3,6,24,-1,-1,-3,18
15265,-12,-10,-7,-3,-1,2,-2,11
15270,11,7,11,22,4,14,4,-29
15275,-2,-7,-7,2,13,-14,0,18
15280,-1,-4,-15,-18,-4,6,-1,4
15285,-7,-3,12,-10,-14,-16,-2,-21
15290,-8,-2,-7,-12,2,15,0,-31
15295,-6,2,0,41,-3,-13,-6,35
15300,16,5,17,-1,6,7,-4,18
15305,-9,-5,-10,5,6,-27,-5,-35
15310,-7,-2,-10,-18,-3,11,2,0
15315,3,-9,-4,-12,3,1,-2,-21
15320,-12,8,5,14,-2,-8,-1,4
15325,1,0,-1,-14,-4,17,0,2
15330,-2,-2,-8,19,-2,4,-5,5
15335,4,-5,-4,10,0,5,2,-14
15340,-11,-7,-3,-12,4,-29,-3,22
15345,17,4,3,-9,-13,10,4,-6
15350,-5,2,2,-3,-2,-13,-1,0
15355,-3,-1,5,6,-5,-6,-2,-10
15360,-3,-4,-11,-6,0,8,2,-9
15365,1,4,-4,-1,11,-9,-1,-2
15370,1,-5,4,0,-11,-2,-2,23
15375,-17,2,2,-34,-12,2,-2,-32
15380,17,4,8,45,31,17,1,13
15385,6,-7,-10,-9,-3,-52,-3,5
15390,-8,2,-4,3,7,29,1,1
15395,20,6,11,-10,-2,-18,0,13
15400,-14,-4,-7,-17,-1,12,2,-8
15405,-1,-1,-2,12,-4,16,-2,2
15410,2,-1,18,-6,7,-8,0,-19
15415,-6,0,-12,6,6,-1,3,34
15420,-7,-5,8,-11,-15,3,-5,-55
15425,9,1,-7,-16,0,5,-4,37
15430,-6,-3,-14,4,-2,-15,-1,-13
15435,18,3,19,40,10,7,4,21
15440,-8,-1,-5,-24,-2,-4,0,-26
15445,-15,-11,-3,5,-4,13,-2,3
15450,12,12,2,-19,1,-1,0,25
15455,-4,-4,1,5,-8,-4,-6,-4
15460,-5,-4,-13,-8,-17,-26,1,1
15465,1,3,3,19,16,2,1,-17
15470,-6,-8,-8,-16,13,5,-3,7
15475,0,-1,0,3,-7,-13,0,-1
15480,9,3,4,5,-6,12,-1,15
15485,-13,-3,-12,-19,2,-1,-1,-22
15490,13,-3,5,16,-9,-17,0,18
15495,-9,2,-10,-19,4,14,-3,-5
15500,2,2,-4,17,-13,-3,-1,-15
15505,-11,0,14,-11,-10,-16,-2,23
15510,13,0,-12,6,8,5,4,10
15515,-11,-4,-8,-29,-15,20,-5,-20
15520,5,-3,-3,16,4,-10,0,-14
15525,-10,-5,8,8,-2,-6,-1,12
15530,-4,5,2,-8,-4,12,-3,10
15535,2,1,6,6,-3,-30,2,-5
15540,-6,-8,-5,-1,0,4,-1,0
15545,7,-3,2,1,3,22,3,-15
15550,-3,1,-12,-19,-7,-7,-5,4
15555,11,0,-5,20,27,11,4,5
15560,1,5,2,-10,-10,0,-5,7
15565,-8,-3,10,-3,-1,-9,-2,-13
15570,18,-7,0,-22,-4,-3,1,28
15575,-2,11,-5,29,4,3,1,-14
15580,3,-2,5,-5,1,-11,2,27
15585,-8,3,0,8,10,40,-3,-10
15590,10,3,8,1,-10,-15,4,-18
15595,-4,-6,-7,4,-29,-3,-3,-3
15600,9,-1,1,-3,16,7,-2,9
15605,0,5,3,-15,0,0,-2,-8
15610,-21,-4,-4,34,3,5,-1,-13
15615,2,-1,-9,-20,6,-11,3,5
15620,1,-2,13,-19,9,18,-1,-3
15625,10,0,-11,-1,-21,-13,0,13
15630,-4,-4,9,-13,-2,-8,-7,-41
15635,8,0,-4,35,-5,-9,0,20
15640,-10,2,6,-5,-11,-13,-1,0
15645,0,-5,-1,15,5,-4,-2,5
15650,4,5,7,-5,0,-11,0,-13
15655,-11,-5,0,0,2,7,0,-4
15660,-4,-6,-15,-15,-10,-3,-3,9
15665,9,6,-8,-8,17,2,2,-9
15670,-12,-6,-17,-25,-30,1,-1,-13
15675,4,0,18,21,19,-19,-6,3
15680,-1,1,-12,2,-34,-34,3,6
15685,-6,0,3,-1,9,3,0,-22
15690,-3,-1,3,13,9,-6,-5,7
15695,-3,1,-7,-37,-7,0,-2,7
15700,6,1,4,10,16,12,4,-2
15705,-4,-5,-11,-16,-12,-15,-3,1
15710,-8,1,3,21,21,16,1,-2
15715,5,-3,3,0,-12,1,2,0
15720,-5,-1,-6,-7,-1,10,-2,-2
15725,3,5,26,4,3,10,0,3
15730,0,-3,-4,12,-2,-12,-4,15
15735,1,-3,-11,-8,4,6,2,11
15740,16,6,2,-11,7,6,-3,7
15745,5,1,7,9,-18,-24,-3,12
15750,-5,-6,-5,8,2,2,1,11
15755,-10,-10,-1,3,-6,-27,-3,-4
15760,-12,7,12,-17,11,6,-4,4
15765,21,5,-13,46,-5,6,-4,-1
15770,-4,-8,-2,-2,-2,6,1,1
15775,11,9,-2,-2,5,14,1,-7
15780,-3,-8,-10,-6,2,15,-1,-2
15785,-25,-7,2,-34,-3,-34,-4,-4
15790,23,8,-7,-2,27,15,7,14
15795,1,-1,4,-8,-20,5,0,-19
15800,-21,-4,-2,15,-2,-9,-5,-18
15805,3,0,-6,-31,-9,19,1,7
15810,-5,-9,-5,17,-5,0,-1,-3
15815,5,10,0,-12,3,-20,1,8
15820,-8,-1,8,7,-6,5,-2,-18
15825,-3,-2,-4,2,-3,3,4,12
15830,2,-1,0,-21,-10,-55,-10,-12
15835,11,1,5,28,12,36,0,27
15840,-4,-3,2,-6,0,15,-1,-3
15845,2,-3,3,8,2,-10,1,-14
15850,-6,4,6,-5,-6,17,-2,-4
15855,-14,-6,-6,-11,0,0,-2,-16
15860,-5,-2,-9,-7,11,-24,-3,2
15865,10,-3,-6,2,5,18,5,8
15870,-5,1,-1,11,-10,-9,-1,-14
15875,-15,-5,0,-22,-10,13,-2,15
15880,8,-2,-1,16,33,12,2,3
15885,-8,-3,-16,-8,-24,-12,-7,-15
15890,9,-2,3,20,-2,-6,0,2
15895,-1,3,7,10,8,23,-2,12
15900,1,-1,-12,-18,-16,-16,0,7
15905,-6,1,-2,1,9,-39,2,-6
15910,-2,7,13,12,-2,11,-2,-15
15915,2,-8,5,-13,6,-2,-3,-9
15920,3,-1,6,2,-12,13,1,-10
15925,-4,0,-1,-14,3,15,-2,-3
15930,-13,-5,-18,-29,-6,5,5,20
15935,6,4,-4,26,2,-26,-6,-39
15940,2,3,7,4,-2,-9,0,29
15945,0,-8,0,4,-1,1,0,-10
15950,1,14,-9,-30,-10,4,0,13
15955,-16,-12,-7,-12,12,11,-2,-13
15960,22,5,-5,24,-3,-3,-1,-8
15965,-1,2,8,22,-6,16,-2,23
15970,14,0,-4,-24,-6,-8,-1,4
15975,-12,-3,-6,-3,-1,-3,2,-26
15980,-6,-1,3,-16,-3,7,-1,17
15985,20,3,0,2,13,-33,0,-6
15990,-4,-2,7,6,-7,8,1,-7
15995,-7,-2,-2,1,-4,-2,1,-3
16000,4,-6,-11,-8,-2,-14,-1,-3
16005,2,7,-6,21,5,18,-1,-7
16010,10,5,-3,-16,-1,-13,-2,17
16015,1,-4,-1,-3,4,-7,1,-11
16020,-7,1,15,-2,-20,-4,-2,17
16025,-15,-6,-16,2,8,10,2,-18
16030,0,-2,7,14,15,34,-6,41
16035,1,-2,-8,-9,-10,-25,0,-39
16040,7,1,-4,1,-7,-1,2,18
16045,-4,1,14,-27,-6,8,0,4
16050,-16,-13,3,18,9,23,4,-22
16055,19,10,-11,-5,1,1,-1,50
16060,-12,-4,-7,-1,2,-24,-5,-48
16065,-7,-1,2,-12,-13,-15,-6,17
16070,-5,-2,-4,13,1,-8,-2,-20
16075,-9,-6,4,5,-1,9,1,-14
16080,7,6,-4,4,-5,11,-1,27
16085,10,1,11,14,12,-1,0,11
16090,-2,-4,-5,-11,-16,-27,-4,-18
16095,2,0,-3,-22,6,13,-1,-11
16100,-19,-6,0,30,-13,-20,1,-23
16105,0,1,-13,-15,13,18,-2,-15
16110,17,0,-2,6,-27,-12,-1,15
16115,1,-1,-4,1,-1,2,0,14
16120,-6,-2,-10,-14,6,17,0,-15
16125,-9,-5,-6,5,7,4,0,-11
16130,-1,4,7,-6,-10,3,1,-5
16135,-11,-2,-3,6,12,0,-2,6
16140,5,0,9,-4,-8,-9,-4,-1
16145,5,-1,1,1,1,3,1,12
16150,1,-4,10,12,12,-15,-3,-10
16155,10,6,2,5,-3,-5,2,16
16160,-10,-7,4,-12,-14,-3,-1,-11
16165,2,7,-4,-25,-10,-15,-2,-16
16170,-13,-2,-7,14,18,7,1,-10
16175,18,-1,7,11,-6,13,-3,17
16180,13,-2,-8,-8,6,-1,0,-15
16185,-1,0,-1,-1,17,-1,1,20
16190,-5,-1,1,-12,-20,-7,-1,-6
16195,-11,2,0,-5,-3,-2,2,-3
16200,-1,-1,2,-1,10,-8,-7,-7
16205,3,-2,6,21,-1,13,2,17
16210,-11,2,0,1,11,9,-1,-10
16215,23,5,-4,-16,-13,-4,0,25
16220,-10,-4,-3,-9,-1,11,2,-9
16225,-9,3,12,3,0,-10,-3,-12
16230,12,-7,-29,-6,-11,8,0,4
16235,-1,1,4,10,-2,2,0,5
16240,4,4,-7,0,5,-1,-1,3
16245,5,0,-2,14,-1,10,3,23
16250,-14,-3,8,-24,20,5,-1,6
16255,-13,2,2,5,-1,-8,-4,-31
16260,-2,-1,0,22,3,5,-1,14
16265,9,-3,-2,-5,-9,-3,-2,-3
16270,-3,-1,4,-4,0,-2,-4,-4
16275,-1,-1,-5,-4,-8,-4,2,17
16280,-15,-2,10,9,7,1,-5,-17
16285,-8,-6,-21,17,-2,8,0,6
16290,21,3,0,11,-2,-4,1,-7
16295,-7,1,-11,-23,0,-14,-5,-16
16300,-3,-4,-21,-24,-9,-2,1,12
16305,-21,-5,2,5,1,15,-1,-29
16310,-5,-1,6,7,-3,1,-2,5
16315,2,-7,1,5,12,-29,0,-26
16320,8,2,7,-9,3,6,-1,68
16325,6,8,4,-5,-13,4,-2,-23
16330,-8,-2,2,2,0,-18,2,-3
16335,-5,-2,12,18,-6,2,0,-2
16340,-2,0,1,2,9,8,3,-9
16345,5,-2,17,3,-22,-2,-2,-2
16350,-4,-5,2,24,31,17,3,33
16355,-16,0,-2,-34,-9,-6,-5,-48
16360,48,8,5,15,5,-7,6,43
16365,-7,-4,-9,-4,0,13,0,-7
16370,-8,0,6,-9,-10,-7,-4,-15
16375,-5,-7,3,5,-4,-1,-2,13
16380,-26,-2,-7,6,-2,18,2,-52
16385,23,7,-1,-21,7,-14,-3,27
16390,10,1,2,-17,-15,-11,0,22
16395,5,-1,-13,30,5,7,-2,-2
16400,-19,-5,10,-15,-7,-2,-6,-10
16405,-6,-5,-9,18,-2,-15,-2,-8
16410,6,3,-7,-8,8,-2,0,-6
16415,9,-1,-1,-2,-20,17,-1,-3
16420,0,0,17,18,-8,-40,-1,-5
16425,-8,-4,-4,-16,-1,-6,-1,4
16430,14,11,1,8,1,4,2,-3
16435,-7,-4,-3,-2,11,3,2,1
16440,3,0,-12,-2,8,8,2,-7
16445,-3,-5,5,-16,9,-11,-1,-9
16450,-1,2,-4,-11,-14,13,-1,8
16455,0,2,5,-7,-9,-3,0,8
16460,3,0,1,5,9,11,-4,4
16465,-7,-5,-15,-8,-6,-32,-5,-2
16470,16,2,-9,6,-7,-8,5,-3
16475,-18,-6,17,5,-4,16,-6,3
16480,10,-1,-12,-11,7,4,1,0
16485,7,3,8,-9,-4,26,1,-8
16490,-10,-8,4,7,1,-10,-2,-10
16495,1,8,-3,2,-1,0,1,8
16500,-5,-6,-13,0,-2,-8,-1,-4
16505,-4,-5,-1,10,8,22,1,5
16510,-3,5,8,-20,-7,-35,-3,-11
16515,-1,-4,-18,-16,5,11,2,16
16520,-3,0,4,6,-6,-9,-3,-18
16525,-10,-1,-6,3,5,13,0,10
16530,16,2,10,-13,5,-19,-2,3
16535,-3,-3,-1,11,-20,0,-1,5
16540,-1,0,4,6,-12,-1,-2,-12
16545,2,-2,-7,-21,0,-8,-4,2
16550,-19,-6,-13,-3,5,11,1,-7
16555,11,-1,0,-18,13,2,-1,-20
16560,11,-6,2,14,-21,-1,-2,40
16565,5,5,-6,6,-7,-4,1,0
16570,-17,1,-13,-7,2,9,-2,-7
16575,13,3,3,16,10,-14,-2,-11
16580,-11,-6,-7,-16,-5,4,-1,-8
16585,-11,-5,5,-11,-9,1,-2,-5
16590,6,-4,0,16,7,5,-4,5
16595,-14,-3,-7,0,3,9,5,3
16600,22,6,2,-10,6,-17,-2,32
16605,4,2,5,7,10,3,1,0
16610,-2,0,8,-1,-24,11,-1,-8
16615,2,-3,-9,-7,7,9,0,15
16620,-17,-3,-2,12,-11,0,-2,-46
16625,5,3,12,12,8,-9,-2,7
16630,-4,-4,-14,7,-5,5,0,5
16635,2,-3,-6,3,4,2,-3,14
16640,2,10,-1,-16,4,1,2,-16
16645,-8,-8,1,11,-6,-34,-3,-4
16650,2,-1,1,-1,3,-1,-5,-14
16655,-2,0,5,12,-5,-9,4,7
16660,-13,-1,-2,-4,5,2,0,3
16665,-4,-3,-5,1,-9,-14,-3,-3
16670,-10,-3,7,5,5,2,-2,-45
16675,8,2,-10,-26,-6,-10,-2,29
16680,0,1,-9,5,-3,6,-1,-19
16685,-7,0,20,5,-7,18,0,-19
16690,8,-6,-10,-3,11,-1,1,38
16695,-2,7,8,1,3,-2,-1,-22
16700,-6,3,-4,-7,-5,-4,-2,-49
16705,8,2,-2,-7,-2,13,-2,59
16710,4,-3,-6,1,13,5,-3,-4
16715,1,-6,1,-11,-9,-9,-2,-6
16720,1,-2,-2,15,-6,-19,-1,15
16725,-18,-4,-3,-2,5,5,0,-38
16730,30,6,0,-14,-4,15,1,44
16735,-4,-1,12,-11,-2,-11,-1,11
16740,-14,-6,-6,14,13,12,0,-11
16745,13,4,-1,9,-9,-31,2,-19
16750,-18,-1,0,-6,-4,-2,-1,12
16755,-7,-4,8,8,-3,16,-6,-22
16760,8,4,6,-20,-7,-28,2,23
16765,16,4,-7,2,19,6,2,7
16770,-18,-1,15,4,-1,-1,-3,-30
16775,-31,-7,0,-16,3,10,-2,-35
16780,23,-4,-10,-6,-9,-11,4,65
16785,11,9,-3,0,3,-3,-5,9
16790,-7,-5,4,-2,-19,-7,0,-13
16795,-1,4,3,15,5,-3,2,-9
16800,-16,-8,4,-9,-11,-1,-4,-11
16805,-10,-7,-5,-23,5,22,0,18
16810,20,6,-1,12,-5,-25,-3,-13
16815,0,-3,10,6,1,-4,-1,20
16820,-2,0,4,16,8,14,-1,-10
16825,7,4,-9,-18,-27,-23,4,-29
16830,-13,-10,-6,5,6,10,0,2
16835,27,5,2,25,-3,-6,-1,26
16840,-11,-4,9,0,3,4,-1,-22
16845,-16,-3,-10,-5,2,10,2,13
16850,14,-4,-7,-5,-14,5,4,6
16855,3,8,-3,-3,-18,-26,-1,-10
16860,-1,-1,-2,-15,-1,16,-3,9
16865,-14,-5,8,6,3,6,-2,-25
16870,-9,-1,-4,31,14,5,0,-17
16875,0,-5,-8,-8,4,1,-1,21
16880,-5,4,7,-14,-3,-7,-4,-43
16885,14,-3,9,-13,-10,-21,-3,41
16890,1,1,-9,0,5,22,6,0
16895,0,-2,0,-12,-7,-6,1,14
16900,-8,-4,3,6,11,-1,-4,8
16905,4,-1,-6,-4,-13,-1,-2,-3
16910,5,0,2,-3,17,2,0,8
16915,-6,-1,-3,-11,-4,4,2,-23
16920,3,4,2,9,-14,-18,-1,13
16925,9,2,5,30,9,11,0,-6
16930,-17,-11,-1,-6,3,0,-3,7
16935,-3,5,-7,-4,5,6,1,-24
16940,4,-2,5,-33,2,9,-5,13
16945,8,0,-2,46,5,-11,-1,15
16950,-8,-1,-13,-27,-12,-28,-4,-4
16955,1,-1,-3,-13,6,4,1,2
16960,-2,2,0,4,6,5,2,7
16965,-6,-2,-1,-3,-13,-16,-3,-25
16970,2,1,15,-2,-1,8,-2,12
16975,-15,-11,-5,-8,-20,-14,-6,-1
16980,12,7,-10,20,-5,9,4,20
16985,16,2,-5,-9,15,30,4,0
16990,8,3,16,9,-13,-14,-3,1
16995,6,2,-5,4,9,-2,0,-2
17000,-7,-8,-17,-7,-4,3,0,-27
17005,-21,-11,-9,-28,-6,9,1,14
17010,-3,8,5,10,-4,-11,-5,-10
17015,11,1,-4,16,3,-1,-1,5
17020,6,-4,3,5,8,14,-1,-8
17025,-10,-2,0,-22,-4,-31,-1,-7
17030,-5,-3,-7,-19,2,8,0,-17
17035,-8,-3,-3,-23,-5,-5,-5,-16
17040,4,-2,6,42,26,7,1,49
17045,0,1,-6,-11,-20,-24,1,-18
17050,-13,1,2,6,-7,2,-2,-39
17055,26,3,7,-10,-7,5,-1,35
17060,-11,-6,-1,-11,-5,-9,0,-2
17065,9,1,4,14,42,38,0,-1
17070,8,-1,-4,-15,-13,-39,0,2
17075,-9,-13,-4,8,3,15,-1,-5
17080,-7,11,-10,-17,-4,-5,0,-41
17085,3,0,15,42,-3,13,-3,33
17090,2,-3,-3,-7,0,-6,0,9
17095,10,6,3,11,5,0,-1,-1
17100,-1,-5,2,-27,-15,-8,-1,0
17105,-21,-7,-18,-23,-13,-5,-7,-25
17110,1,6,9,31,35,38,4,8
17115,-7,-2,8,-2,4,-7,3,-27
17120,38,4,-10,-2,-2,-2,1,30
17125,-3,1,-13,-36,-8,-2,-2,20
17130,-9,-3,-8,4,0,18,-2,-7
17135,-8,-4,1,4,4,4,-1,8
17140,-14,0,-6,-22,4,9,1,-30
17145,12,5,10,43,8,3,1,13
17150,14,1,-5,-6,0,-8,5,11
17155,-10,-1,-3,8,-15,-13,-3,-11
17160,-14,-4,1,-8,-7,5,-1,10
17165,1,-4,0,-15,-8,-7,-4,-5
17170,-5,-3,-7,25,8,13,-1,13
17175,-4,-1,-8,6,5,-9,-2,-1
17180,20,5,16,8,-5,5,-2,2
17185,-20,-1,-14,1,1,-7,-1,-33
17190,19,5,-1,-20,-8,-14,1,27
17195,-7,-9,4,23,10,12,1,-9
17200,-13,5,-7,2,13,8,-2,-30
17205,4,0,2,1,-10,-10,0,26
17210,-4,-7,3,-26,-12,-12,-4,13
17215,14,9,12,23,5,6,-1,-4
17220,-6,-4,-9,-6,12,-3,-1,-27
17225,2,-2,2,1,0,6,1,10
17230,-1,4,1,14,-2,-2,-2,-21
17235,1,-6,-15,-36,-9,16,2,24
17240,2,-2,6,18,2,-4,0,1
17245,-9,1,6,-12,3,-31,-2,-25
17250,-6,-8,-39,-25,-15,8,-4,-12
17255,0,3,4,-7,-2,12,-1,7
17260,-6,-3,0,9,-1,-11,-3,3
17265,2,3,1,-7,15,17,4,-5
17270,-13,-9,15,10,-17,-7,-6,-9
17275,3,11,5,11,5,0,0,4
17280,-7,-2,2,-27,-6,0,1,-4
17285,-5,-6,-4,31,8,10,-1,11
17290,6,2,5,-19,5,-3,-3,-9
17295,-3,-5,-7,2,-1,-7,2,-10
17300,16,2,3,1,-5,0,-2,47
17305,6,2,8,-7,-15,6,-5,-22
17310,-6,3,0,-6,8,5,4,13
17315,5,-2,-13,-4,-7,-8,-1,24
17320,-5,-5,-3,1,-4,-6,-5,-27
17325,-7,-5,-3,-2,-2,17,1,-5
17330,-6,0,-7,-31,-24,-75,-6,1
17335,-14,-7,2,7,16,-3,-4,-3
17340,0,14,5,24,-3,11,2,9
17345,29,-1,-3,1,12,-4,4,17
17350,-8,0,4,2,-12,-7,-3,-14
17355,-7,-2,-3,-9,-2,-7,0,12
17360,-11,-9,2,-21,-6,-7,-5,14
17365,9,1,0,19,10,4,2,-6
17370,6,3,1,14,4,11,0,-4
17375,-3,-2,1,-12,1,-14,-4,-16
17380,-7,-2,3,0,-7,14,0,-34
17385,-8,2,-12,-12,-8,-2,-2,18
17390,-7,-4,12,-28,0,10,-3,-5
17395,3,1,2,50,22,23,0,-14
17400,3,-8,4,22,0,-5,3,7
17405,-12,5,-3,-7,-10,-19,-3,-28
17410,2,3,-1,0,19,25,4,-3
17415,10,1,-1,-20,-14,-10,-2,16
17420,5,-3,-7,-9,-4,18,0,1
17425,-2,-1,17,13,-8,-29,-2,-25
17430,1,-1,-9,16,9,2,-1,53
17435,-12,-3,-7,-8,-17,-5,-1,-39
17440,-3,-5,-5,-1,9,-11,-1,31
17445,7,0,18,-5,0,8,-4,16
17450,-2,1,-11,13,1,6,1,-19
17455,-3,-1,15,-21,-9,-5,-3,-1
17460,5,-7,-15,1,1,0,1,3
17465,-8,6,18,19,6,6,1,-23
17470,-4,-2,5,16,-3,-17,0,3
17475,-2,-3,-9,-15,-21,0,-4,16
17480,1,10,3,-7,18,-1,0,-12
17485,-2,-10,-20,-28,0,22,-2,7
17490,-2,1,8,29,3,10,1,-12
17495,-1,0,-6,-18,24,11,1,32
17500,2,2,2,10,-30,-32,1,-17
17505,-13,-3,12,-18,-1,0,-6,-23
17510,11,-1,-3,-13,9,29,6,37
17515,0,0,5,8,6,-31,-2,-23
17520,16,-3,-10,-7,7,7,3,29
17525,4,7,-3,14,-3,-3,-1,2
17530,-7,-5,4,-12,-8,-38,-8,-24
17535,3,3,8,8,-8,6,-1,-7
17540,-5,-3,-7,-1,1,7,-1,-2
17545,-1,-7,8,0,-15,-29,0,-29
17550,-4,2,-18,-46,-9,4,-4,54
17555,9,7,-10,11,24,8,1,-32
17560,-5,-3,14,4,-17,-19,-5,3
17565,-13,-9,-28,-9,6,26,-5,4
17570,-2,-6,-6,-9,21,-28,-2,-56
17575,4,-2,18,-5,-38,-30,1,44
17580,-3,7,-8,17,17,10,-3,-44
17585,-2,-2,-4,-9,-9,20,4,34
17590,4,1,12,11,-1,0,-6,6
17595,-7,-2,-3,-4,4,6,-1,-15
17600,-13,-7,-7,-26,0,-17,-4,-20
17605,7,7,-6,5,-4,1,3,13
17610,-20,-10,-1,10,-9,5,1,-47
17615,2,5,4,-4,5,18,-3,44
17620,26,4,6,17,10,13,7,2
17625,-14,-1,0,-3,13,-2,-3,-8
17630,9,0,2,7,-5,5,2,-17
17635,-20,-4,0,-6,-17,-7,-6,9
17640,-2,1,-6,-8,-8,8,0,25
17645,-2,-2,-4,9,4,-5,1,-14
17650,-6,-3,-1,12,-6,6,-4,-9
17655,14,0,-5,-1,2,0,-2,-24
17660,-12,0,0,-10,6,2,-5,12
17665,22,1,11,-13,-9,-14,-2,27
17670,-2,-5,-7,4,0,10,2,-9
17675,-9,0,-12,5,6,6,3,20
17680,13,0,12,-12,-5,3,-6,-39
17685,-2,0,0,-25,-7,0,1,26
17690,22,8,0,12,11,8,1,-12
17695,3,-4,-15,16,-7,1,0,22
17700,-19,-4,12,-6,8,-8,-3,7
17705,-14,-5,-11,-2,-31,-2,-5,-18
17710,13,15,10,7,6,-10,2,19
17715,0,-7,1,-9,-9,-29,-2,-9
17720,-12,-4,-11,-7,-12,-15,-4,-3
17725,7,-2,-16,-5,16,11,4,9
17730,-21,-8,5,2,-2,14,0,-14
17735,-10,-1,-5,21,10,10,-1,-24
17740,21,4,1,-18,1,2,-1,36
17745,-11,-5,0,9,-10,-5,-6,-28
17750,9,1,3,-4,-4,-10,0,-25
17755,-6,0,-3,-17,10,10,-2,36
17760,-3,-1,4,21,-10,-14,2,8
17765,3,2,2,-16,2,23,-3,-6
17770,-17,-5,-13,23,0,-2,0,5
17775,9,-7,-2,-2,-10,14,-2,-15
17780,-18,-4,-8,-7,19,30,-1,-12
17785,17,8,1,11,30,-7,1,-25
17790,-13,-6,7,-8,-35,4,-1,18
17795,30,8,0,-9,3,3,-1,4
17800,-5,0,6,22,-10,3,2,4
17805,-3,0,3,18,41,-3,1,9
17810,-6,-7,-2,-6,-19,-16,-4,-23
17815,2,-3,-9,-15,18,-21,-1,19
17820,18,6,-2,-20,-45,-43,1,6
17825,-19,-6,10,12,-7,0,-5,-30
17830,10,2,-7,-7,34,16,2,23
17835,3,0,-17,-12,-34,-19,1,-14
17840,20,8,10,26,6,16,-1,32
17845,-2,-1,-15,-17,3,-13,0,14
17850,-10,-1,0,2,1,-2,-2,-63
17855,5,2,19,14,14,26,-3,18
17860,-11,-3,3,25,8,9,1,-36
17865,-8,-10,-15,-42,-29,-2,-4,10
17870,29,10,4,-2,7,28,2,45
17875,-13,13,22,13,11,8,0,-45
17880,-11,-9,-23,-29,5,8,-1,1
17885,7,3,6,30,3,3,3,3
17890,-17,-10,-7,-10,-7,-5,-3,7
17895,4,2,-2,2,3,1,2,-24
17900,0,-1,14,27,-17,-13,-5,13
17905,-2,-1,-2,-32,5,6,1,18
17910,-3,-5,-9,4,-2,3,0,3
17915,30,3,4,-9,-20,-13,-5,25
17920,7,1,-6,4,-1,-10,0,-11
17925,-18,-12,5,8,-1,2,-1,-7
17930,28,17,1,-6,5,-18,-1,16
17935,-17,0,14,13,4,-4,3,-3
17940,-39,-12,-20,-26,30,-1,-3,-20
17945,55,12,-19,1,-11,1,4,47
17950,-22,-11,9,5,6,-8,-3,-20
17955,-12,-5,-5,3,6,-37,-2,-14
17960,5,3,0,-21,-15,-17,-3,-2
17965,-8,1,32,17,1,18,-1,-51
17970,-5,-3,-10,0,12,-11,-4,36
17975,-2,-4,4,-9,-18,13,-1,-4
17980,-12,0,-6,32,14,19,6,17
17985,-4,-4,-16,-16,22,9,-3,-21
17990,-23,-8,3,-1,-25,14,3,6
17995,36,12,5,8,-3,17,2,17
18000,-15,-2,-2,-5,18,-23,0,14
18005,-9,-3,4,33,-15,4,-1,-19
18010,33,9,-14,4,30,39,4,8
18015,-34,-10,-10,-9,-6,-8,-7,-19
18020,1,4,2,-34,-19,-5,-6,-8
18025,2,-1,22,26,-13,-10,2,15
18030,-19,0,-2,18,37,35,-2,-8
18035,10,-6,-26,-26,-25,-26,-2,38
18040,16,8,15,10,22,43,4,-51
18045,-42,-10,-11,-15,-33,-15,-5,-35
18050,60,6,4,1,-6,19,3,73
18055,-23,-5,1,12,22,31,1,-37
18060,-1,-4,-6,-16,10,-6,-4,19
18065,-14,4,15,2,6,-34,5,-2
18070,10,-4,-14,24,-6,-3,2,-57
18075,5,-1,-2,-1,3,-31,2,29
18080,4,3,-6,-2,-18,-5,1,22
18085,22,6,3,-27,29,16,1,15
18090,-8,-13,-12,-18,-50,-71,-6,-16
18095,-19,-4,6,-1,-1,5,-13,-33
18100,7,-3,23,31,11,2,10,23
18105,2,7,-14,-13,-19,-14,-4,20
18110,-14,0,12,21,-3,1,3,11
18115,2,1,-6,30,56,32,-4,-33
18120,0,-4,-3,-17,-31,-23,-9,-39
18125,-15,-10,-18,3,-5,16,5,19
18130,11,6,17,-21,19,10,-9,-20
18135,-26,-8,-13,-21,-21,21,5,-35
18140,20,17,-10,-3,2,7,-4,67
18145,-2,-6,13,3,-1,-10,-9,-28
18150,-51,-15,-11,-17,4,6,0,-56
18155,39,4,0,3,-17,-17,5,76
18160,-25,-12,8,-9,-2,-1,-11,-42
18165,8,3,-19,9,15,23,0,32
18170,4,-3,12,25,-18,-13,-8,-33
18175,-5,-1,11,-2,12,12,0,4
18180,-2,-2,-15,7,20,-15,6,-41
18185,2,-1,-11,-24,-17,-28,-5,22
18190,2,8,3,-19,-5,5,7,47
18195,0,-4,18,15,4,-17,-1,-26
18200,29,13,0,-12,-8,25,-1,4
18205,-9,-6,-6,-34,-9,-5,-5,-26
18210,-4,1,4,53,28,-38,-4,18
18215,-9,-3,-2,-9,-34,-1,5,-24
18220,-6,-9,-2,6,-10,41,0,4
18225,28,8,2,16,16,-4,1,16
18230,0,3,-8,-37,-11,23,0,5
18235,3,-1,-20,-10,7,-18,5,-9
18240,-10,-3,3,11,-27,14,-3,-14
18245,3,1,9,5,-8,3,5,30
18250,16,2,8,-29,7,-36,-9,2
18255,-15,-1,7,-4,0,3,-3,-15
18260,-20,-11,-18,2,9,13,1,-6
18265,-13,5,0,-8,-12,-51,-5,-14
18270,-1,-1,8,30,31,46,6,6
18275,8,5,9,-14,-11,5,-4,11
18280,-1,-3,-4,9,5,-13,2,-26
18285,2,-4,1,13,7,24,-1,11
18290,-41,-5,-15,-32,-34,-38,-4,-58
18295,23,5,3,19,4,6,-1,63
18300,14,-2,1,1,6,-2,2,7
18305,-18,-2,-1,-6,15,26,-1,-57
18310,24,10,-7,-25,-15,-5,2,62
18315,-30,-7,-7,10,13,-7,-1,-27
18320,0,0,35,17,-17,-35,-5,10
18325,2,-3,-23,9,35,43,4,1
18330,8,-6,-13,-7,-14,-37,3,10
18335,26,11,3,1,15,22,0,10
18340,6,-5,-7,-21,12,-4,-4,7
18345,-4,4,8,19,-2,-21,1,-4
18350,-9,-7,6,-10,1,33,-6,-42
18355,16,0,-9,-11,-31,-33,-3,54
18360,1,3,15,4,26,11,-2,-4
18365,6,-4,10,-12,-32,-35,0,6
18370,7,0,-6,9,-6,1,0,12
18375,-20,-7,-7,-10,1,8,-1,-39
18380,-20,-2,-6,3,3,23,0,42
18385,28,1,13,-18,-8,-11,-10,-8
18390,5,4,15,34,14,3,2,-6
18395,5,1,-1,9,5,-3,4,15
18400,-23,-9,-14,-11,-8,-10,-2,-36
18405,-11,4,-6,-3,15,36,-1,-5
18410,14,-3,20,-13,-42,-52,-6,7
18415,-4,1,-6,11,13,24,4,-14
18420,13,0,-12,-18,-12,-18,1,3
18425,-8,2,25,6,-9,-4,0,11
18430,-28,-3,-4,6,9,14,-1,-22
18435,2,2,0,2,-11,-38,-5,-6
18440,-10,-5,6,1,12,3,-8,-21
18445,4,-11,-22,9,-21,8,2,-5
18450,23,16,-2,-14,13,35,4,43
18455,-11,-2,-11,-2,-4,8,1,-25
18460,1,-4,5,-18,-9,-14,-3,-8
18465,-4,7,0,14,10,-2,-2,-7
18470,-6,-2,-8,-17,14,32,3,-20
18475,-21,-11,7,-2,-42,-11,-7,15
18480,32,10,5,38,17,14,9,18
18485,-9,-3,8,-3,5,2,-2,-6
18490,20,3,-9,-12,-16,10,2,16
18495,-19,-4,9,-27,13,36,-4,-50
18500,2,0,-3,17,-7,-29,-1,47
18505,1,-3,-8,20,-11,-5,0,15
18510,-27,-3,11,3,20,8,-4,-60
18515,-8,-18,-32,-27,9,-10,-7,17
18520,28,18,1,-10,6,2,3,40
18525,10,-1,-4,-6,-7,-1,1,-6
18530,-25,-10,-6,-27,9,-12,-4,-8
18535,0,-1,0,30,-13,5,1,-13
18540,-11,1,-1,17,19,8,-1,-18
18545,27,8,-2,-2,8,12,5,16
18550,-10,-2,3,-2,-14,-13,-5,-4
18555,-5,0,-1,-16,26,-28,0,20
18560,-24,-3,8,13,-14,11,-5,8
18565,16,1,-13,-8,5,21,3,-50
18570,13,-2,-1,-2,-8,-23,-2,54
18575,-1,5,15,-8,-1,9,3,14
18580,-13,-7,-11,-23,-35,-14,-5,-10
18585,5,-2,-14,7,6,-11,1,-13
18590,-10,2,-8,-19,-18,-16,-3,8
18595,11,4,32,31,1,3,1,-16
18600,-11,-2,-1,2,14,31,3,-10
18605,-9,-8,15,-11,-24,-34,-8,23
18610,1,-10,-8,8,17,22,-1,1
18615,7,11,-16,0,0,15,6,-9
18620,-9,-4,3,-26,3,11,-3,-3
18625,-22,-1,1,3,-23,-9,-1,-10
18630,27,2,-9,-2,-1,-1,-1,33
18635,-15,-12,-9,-8,-13,2,-1,-41
18640,5,-1,-14,-3,-3,-3,1,11
18645,5,5,6,-20,8,-30,-1,-1
18650,8,0,26,18,-5,3,-6,5
18655,6,0,1,-6,16,27,-1,-12
18660,7,-2,-13,9,-14,-30,3,-1
18665,-26,-9,7,-3,10,11,-5,-11
18670,-7,0,-8,0,13,12,1,-8
18675,-3,4,11,5,4,8,0,-9
18680,14,-1,6,12,-16,-32,-3,32
18685,2,-2,-20,-33,-12,-1,-6,-1
18690,-9,-7,7,0,-3,19,1,-12
18695,1,0,-21,3,11,-5,3,8
18700,-10,-3,5,-12,-10,-24,0,-49
18705,-24,-6,-6,-13,-7,2,-3,55
18710,24,4,2,20,-9,-17,-2,-8
18715,-1,-1,-8,-3,1,-16,0,12
18720,-5,-2,-5,-21,5,25,-4,-17
18725,-4,-9,-11,16,0,-7,2,-2
18730,-7,10,15,0,-4,0,-2,-19
18735,-6,-6,-6,-7,0,-10,-4,6
18740,7,0,-1,-12,-24,-9,-5,11
18745,0,-3,-4,4,11,-5,4,8
18750,2,6,-12,-3,-3,-11,1,16
18755,14,3,0,-2,-10,-16,-3,-5
18760,-13,-4,-1,-13,9,18,-1,-7
18765,-8,-4,16,15,0,-3,-4,-16
18770,-9,-10,-15,-55,-11,-23,-2,-23
18775,3,1,14,47,7,-8,2,76
18780,27,7,-12,-5,8,34,5,-32
18785,12,7,-5,1,-11,-35,-2,13
18790,-3,-1,1,18,20,16,3,2
18795,-9,-3,0,-24,-6,-7,-6,-33
18800,-8,-3,4,7,6,5,1,24
18805,-3,5,5,10,0,14,-1,-30
18810,-17,-8,-9,-9,7,-6,-2,32
18815,2,9,26,-6,-19,3,-5,-11
18820,-10,-6,-9,17,10,-18,-1,-18
18825,19,3,-6,-1,22,41,3,23
18830,15,0,-1,38,11,-16,4,8
18835,2,1,-2,-8,-18,25,0,-14
18840,-4,2,-4,-5,2,-10,-1,-15
18845,-6,1,18,-4,-2,-8,-2,13
18850,-13,-3,-1,4,-9,12,1,-14
18855,4,-4,-8,-5,5,-7,2,15
18860,-25,-2,8,-24,-4,1,-4,-37
18865,23,-7,-7,42,20,-31,-1,15
18870,19,13,-15,3,1,27,8,8
18875,9,-2,-3,-5,6,-4,0,0
18880,-12,-7,0,-9,0,-27,-3,-18
18885,-9,2,3,-8,-6,16,-1,2
18890,-6,0,5,-5,-12,-5,-4,-6
18895,-8,-5,-4,1,4,-10,-1,-21
18900,7,6,4,11,-2,32,-1,22
18905,-8,3,0,-11,-4,-22,-1,6
18910,-16,-6,0,-9,-26,-30,-4,-36
18915,35,4,-11,11,9,3,6,26
18920,-8,-2,6,17,25,2,2,-30
18925,13,2,-4,-4,-8,7,3,34
18930,-8,-5,4,-21,3,-4,-6,-25
18935,-26,-6,-2,1,-8,-7,-4,-34
18940,6,-1,-1,6,1,-1,3,30
18945,3,7,19,8,-9,27,-2,-22
18950,-19,-6,-3,-29,-20,-67,-4,6
18955,2,-10,18,19,-5,6,1,-2
18960,25,13,-8,15,9,-13,0,32
18965,-1,-3,-4,-10,0,18,-1,-18
18970,7,2,9,3,7,20,-1,11
18975,-24,-4,-6,-23,-9,-1,-5,-42
18980,-5,-6,-6,-9,-10,-9,-2,16
18985,-18,-5,-2,-4,-3,-10,-3,1
18990,-4,5,7,6,11,8,2,-17
18995,7,1,-21,-43,7,31,0,-14
19000,3,-5,3,22,-23,0,5,23
19005,0,-3,-14,9,6,0,2,-17
19010,8,-7,-4,7,2,3,1,-4
19015,-15,7,8,4,-5,4,-2,22
19020,2,-1,3,-17,-7,3,-5,-2
19025,3,-1,-8,-19,2,0,1,-28
19030,-6,4,-3,12,12,33,-1,23
19035,7,-2,1,7,-4,-44,-7,14
19040,7,-1,-4,-7,-6,6,3,-7
19045,-8,0,5,4,-7,-2,3,-7
19050,8,-5,-6,-1,9,37,-7,13
19055,4,2,-3,-14,4,5,4,-3
19060,17,2,-5,-10,11,3,2,9
19065,-1,-2,2,-20,-23,-5,-6,3
19070,-9,-1,3,14,-11,-37,-4,-9
19075,-7,1,9,6,7,6,-3,9
19080,14,9,7,10,3,-7,-2,1
19085,3,-10,-10,-15,5,0,-3,-21
19090,13,1,-5,-9,-4,21,2,23
19095,-14,-8,-16,11,-1,-66,-3,8
19100,0,-5,-8,0,-12,23,-6,-22
19105,-12,11,8,9,-1,3,-3,-5
19110,0,-2,-4,-15,-15,-6,0,7
19115,6,-2,-8,9,10,25,-1,9
19120,-5,0,2,3,2,12,-1,1
19125,-3,-4,-5,-13,15,-10,-2,-7
19130,0,0,3,15,-19,-7,6,-10
19135,-10,-3,-2,-24,-15,-19,-8,3
19140,-10,-1,-4,-22,17,25,-1,-11
19145,8,-4,-8,37,7,-32,1,18
19150,1,11,-1,-24,2,2,1,12
19155,14,-1,13,32,18,57,1,-8
19160,-19,-6,6,-1,-8,-94,-6,-8
19165,5,3,4,-8,-1,18,1,3
19170,-8,-4,3,-3,4,6,-2,-40
19175,-7,-2,-21,-4,-4,7,4,15
19180,-8,-1,-4,-5,-4,-3,-3,-11
19185,13,8,11,3,5,18,6,2
19190,6,-7,5,14,13,-17,-4,18
19195,-11,1,5,-30,-44,4,-1,-17
19200,6,-3,-12,30,21,8,1,11
19205,2,-4,-20,-5,-21,-10,-3,-1
19210,-8,-5,0,20,7,0,1,-26
19215,28,14,13,18,8,2,3,46
19220,-10,-3,0,-3,0,53,-2,-12
19225,-26,-5,-13,-23,3,-14,-4,-13
19230,19,6,2,29,9,8,4,27
19235,3,-5,-10,2,3,-10,0,-10
19240,-19,0,7,-9,-12,5,1,7
19245,12,5,-7,-53,2,-30,-13,-25
19250,-21,-10,-18,14,-19,-19,3,11
19255,6,2,-2,4,9,-2,0,14
19260,15,3,8,-3,7,4,-1,-11
19265,-4,-5,-2,6,0,1,3,4
19270,-8,-2,-5,-30,0,-4,-8,-4
19275,-4,-3,2,19,8,14,-1,-18
19280,-16,-5,-4,-18,3,-15,-1,18
19285,14,-1,12,2,-1,-6,2,-12
19290,7,7,-3,6,2,-1,1,28
19295,-8,-4,21,24,-2,8,-3,-22
19300,-17,-4,8,-32,1,15,-3,-13
19305,24,-1,-3,26,-1,-14,-4,20
19310,5,1,-14,-26,-37,1,1,10
19315,9,4,-1,-18,10,-11,-3,5
19320,4,-5,-8,15,1,-21,5,-6
19325,-20,0,8,-18,-12,10,-3,-4
19330,0,-4,9,18,18,24,1,-12
19335,3,0,-7,-6,19,3,2,3
19340,4,0,-2,11,-24,-52,-8,-25
19345,-12,-7,2,10,-2,26,6,63
19350,-4,3,6,-3,-8,8,-6,-43
19355,1,2,0,-34,-14,-8,2,-23
19360,-2,-7,-1,24,2,-1,-4,-7
19365,11,7,6,32,13,18,2,35
19370,-10,-7,-10,-10,-5,-30,-4,-16
19375,19,5,-6,-6,20,9,5,12
19380,9,4,6,0,-29,-12,0,0
19385,0,-1,2,10,-4,-7,0,0
19390,-21,-8,17,-12,21,1,-3,-29
19395,4,0,-19,-13,-3,8,3,14
19400,-4,1,17,37,0,-1,-3,18
19405,2,1,-11,-16,19,23,1,-6
19410,6,-1,5,6,-17,11,1,-13
19415,-14,-7,7,-14,-15,-11,-5,18
19420,-2,4,-10,1,-4,23,-2,-14
19425,-8,0,4,23,3,9,-1,0
19430,-2,-5,-21,-17,12,9,0,-5
19435,1,-1,5,17,-7,2,-1,-3
19440,4,1,-4,-16,-6,6,1,30
19445,-8,0,2,-4,-4,0,-4,-27
19450,-10,-4,10,8,10,5,-2,23
19455,-10,-4,-2,12,2,-27,0,-31
19460,27,14,-8,-28,-15,9,-4,7
19465,-20,-10,-2,14,2,0,-1,-50
19470,1,1,-2,-12,-9,-40,1,41
19475,4,4,12,3,-4,1,-2,-19
19480,-2,-10,-6,-11,8,3,-3,-2
19485,-6,-3,-6,-4,-13,-5,0,-14
19490,0,3,-8,3,2,1,2,23
19495,2,-1,7,0,0,-4,-2,8
19500,-10,0,14,22,10,-8,1,-13
19505,0,-2,-11,-21,22,32,1,0
19510,-4,-6,-16,-6,-18,-54,-2,0
19515,18,8,-5,-12,-23,-16,-4,2
19520,-10,-3,-4,-5,13,26,3,19
19525,16,2,38,16,-12,-45,-2,0
19530,-14,-4,-2,3,12,4,3,-2
19535,-3,-1,-1,-8,-10,18,-5,-3
19540,3,-6,-6,-9,8,7,-3,11
19545,-1,8,-17,-14,-10,15,2,-23
19550,5,1,16,-9,-1,-4,-5,10
19555,-4,-2,8,22,12,-7,1,-6
19560,-4,-1,-5,-16,0,-6,3,9
19565,4,1,-12,3,3,6,-2,2
19570,3,1,-1,-29,-6,5,-3,-6
19575,-13,-4,-5,33,-3,-15,-4,-5
19580,9,-1,13,-7,6,-6,0,36
19585,7,1,-7,-7,-27,-35,-1,9
19590,4,-3,-1,5,15,24,-1,-31
19595,-10,-1,-17,-16,-5,-10,-1,13
19600,-5,0,-30,-11,-1,-8,-3,-18
19605,3,0,7,15,6,2,0,6
19610,7,-2,-1,3,5,17,4,15
19615,-11,-11,-17,-8,-6,0,-1,-22
19620,-7,3,8,13,3,14,-2,-5
19625,0,-5,-3,-12,-5,-38,-5,24
19630,-9,-2,-17,0,-10,-14,0,-38
19635,21,7,9,0,5,18,3,9
19640,1,1,4,-1,8,-20,1,4
19645,-15,-7,9,13,4,11,-3,28
19650,10,5,4,6,1,14,-2,-5
19655,-16,-3,-4,-16,-14,-51,-4,17
19660,1,-2,1,12,-2,5,-1,-14
19665,-3,-5,-10,-4,6,9,-2,-5
19670,4,-2,-2,-8,-4,-12,0,-29
19675,0,9,-8,9,18,22,0,24
19680,-1,-5,3,7,-5,-4,0,-31
19685,-21,-3,3,-1,1,6,3,-8
19690,20,5,-7,2,-1,-26,-4,38
19695,-2,-2,22,-8,-7,-1,-1,-38
19700,0,-3,-6,0,6,-15,1,34
19705,-5,-1,5,-2,-3,33,1,-24
19710,-20,0,9,11,-9,-21,-3,16
19715,6,-4,-3,-14,8,3,1,8
19720,-2,2,3,-19,-6,3,0,-37
19725,-9,-1,4,29,14,3,-2,26
19730,23,3,0,6,-1,9,3,-3
19735,-4,-8,-5,14,10,-8,-2,-7
19740,-6,9,1,-13,-8,2,-1,-21
19745,-11,-6,-7,7,-1,-3,-1,-22
19750,-9,-8,4,-27,2,11,-6,7
19755,17,4,-10,8,18,45,3,11
19760,1,-6,2,0,-17,-49,0,-18
19765,7,6,-17,-31,-16,-13,0,19
19770,2,4,28,4,3,7,0,-1
19775,-28,-10,-14,-28,1,2,-1,-71
19780,27,-3,-9,7,-1,14,1,94
19785,7,8,1,-7,13,6,2,-11
19790,-1,0,-6,6,-8,-19,-3,0
19795,-2,-3,-3,6,4,12,0,-5
19800,-8,-1,2,-3,-3,4,2,2
19805,-7,-10,10,22,-7,-13,-5,-21
19810,-8,9,-13,-17,12,37,3,-5
19815,7,4,-6,-4,-9,-19,2,24
19820,7,-6,-6,0,-11,-7,-4,-9
19825,6,1,5,-3,12,10,-1,14
19830,-20,-6,-9,15,2,11,1,-49
19835,5,-1,15,-17,-9,1,-7,31
19840,-7,3,-2,9,16,3,3,0
19845,13,-1,-19,-44,-26,-7,-5,-26
19850,22,-4,-2,15,-8,3,3,13
19855,-6,1,-2,-29,-2,-4,-1,18
19860,-1,4,0,23,26,-1,3,-13
19865,-8,-3,3,2,-10,0,0,-32
19870,5,-3,-7,2,-10,-41,-2,44
19875,-1,-1,17,5,-9,12,-1,-4
19880,0,1,-3,-12,-4,8,-5,-21
19885,5,3,8,24,22,-4,4,-4
19890,0,9,7,-23,-16,8,-4,5
19895,-5,-7,-1,40,15,-12,2,8
19900,2,-1,-4,-14,-33,-7,-1,-8
19905,-6,-2,-8,-1,13,31,2,3
19910,27,2,0,7,16,-14,2,-17
19915,-12,-2,0,-9,-15,-6,-5,13
19920,-2,0,1,-1,9,3,-1,19
19925,-2,-4,-6,11,-23,-30,3,9
19930,-8,7,12,2,23,21,1,17
19935,6,-1,-5,7,-2,8,-5,-36
19940,-16,-3,4,-19,-13,-18,0,-2
19945,9,-2,-1,9,1,4,-2,5
19950,-11,-10,-12,4,-2,8,0,2
19955,-3,6,0,-2,-3,-10,0,-3
19960,4,0,2,14,-9,-7,1,-2
19965,1,2,0,-38,4,-6,-6,-54
19970,-19,-6,-7,3,-25,17,-1,4
19975,5,-6,3,-3,-6,-25,-1,10
19980,-14,-9,-13,-18,7,12,-4,-41
19985,21,6,-10,8,2,-8,4,65
19990,-1,-3,7,10,3,4,-3,-34
19995,-5,-1,-5,-5,-2,-41,-1,1
20000,0,2,-14,-11,2,8,-1,-9
20005,-7,-3,9,2,-4,-8,-3,-19
20010,-27,-12,2,-16,-25,5,0,35
20015,29,16,-24,30,27,-8,-4,19
20020,9,-3,-6,-6,14,8,4,4
20025,-4,-4,3,-12,-5,13,0,13
20030,6,1,0,12,-10,-17,-3,-20
20035,-16,-2,16,0,-4,-12,-3,-9
20040,-3,-3,4,12,-7,5,-6,-11
20045,2,1,1,0,15,10,3,3
20050,-4,-5,-9,-19,9,2,4,-30
20055,-14,0,16,-22,-16,15,-5,41
20060,1,8,6,48,13,9,7,-6
20065,12,-12,-7,-13,-5,-7,-7,-4
20070,32,6,-2,2,12,2,-1,23
20075,-18,-10,-6,-5,-4,15,4,-19
20080,0,-1,7,-8,-4,10,-5,3
20085,-12,-1,11,-4,-7,-4,-2,-8
20090,-13,-6,-6,24,-5,-7,0,3
20095,4,10,-19,-29,10,20,1,-18
20100,7,-1,6,17,9,-11,0,6
20105,15,1,-3,14,-8,-13,2,13
20110,0,-2,9,-19,10,-13,-4,0
20115,-13,-8,3,-9,-23,6,1,-27
20120,-2,2,3,-14,4,-10,-4,8
20125,-13,-4,-13,-5,0,2,-1,-13
20130,10,3,-1,8,22,13,-1,16
20135,-9,-2,-2,-3,-11,-42,-1,-45
20140,24,9,7,-6,-16,19,3,64
20145,6,0,6,11,-7,-3,0,-6
20150,-11,1,-7,5,15,18,-2,-22
20155,3,-5,5,19,-2,-24,1,-7
20160,-11,-9,-3,-7,-5,3,-5,-15
20165,-24,-3,2,-9,-9,-6,-1,-9
20170,9,5,-14,22,-8,-8,-2,36
20175,17,3,12,-6,2,11,-4,-1
20180,-17,-7,-1,7,-3,1,2,-15
20185,8,5,-2,-32,1,20,-1,32
20190,4,0,11,-9,4,-1,-5,-26
20195,3,-5,-3,31,13,14,8,24
20200,-3,-2,-15,-26,-7,-7,-4,-26
20205,-2,-3,-1,18,6,12,0,-18
20210,8,3,-2,-19,-7,-17,4,-12
20215,15,10,1,4,-2,-3,-3,40
20220,-6,-2,7,0,5,-4,-1,-1
20225,-8,-1,-2,4,2,-25,-4,-1
20230,-8,-3,4,11,-7,4,1,-17
20235,-2,-7,-15,-6,13,11,0,-5
20240,-10,-9,4,-7,-5,-6,-2,-15
20245,-10,5,-12,2,7,-32,-2,4
20250,22,7,5,-1,-11,18,3,18
20255,-5,-6,-5,-4,6,6,-1,-12
20260,-4,0,5,13,3,10,-1,-8
20265,15,2,4,-5,15,4,-1,19
20270,-11,-6,-10,-18,-11,3,1,-14
20275,-5,3,-3,13,9,32,-1,8
20280,1,-6,-11,-4,-10,-23,-5,-12
20285,-24,0,14,8,0,-9,-1,-86
20290,10,-8,-4,-3,-2,0,-2,94
20295,18,13,11,-6,-6,-4,1,-10
20300,-2,4,-3,9,-2,-5,0,8
20305,-8,-3,-13,1,10,22,2,-14
20310,-21,-4,0,4,-7,-2,-5,-25
20315,-9,-10,-5,-11,-1,1,-1,0
20320,2,2,9,-18,1,20,2,-5
20325,-2,-1,-9,24,-38,-26,-5,28
20330,7,0,0,-14,11,2,2,-34
20335,16,0,-7,-16,-15,2,-4,12
20340,-12,-6,-5,15,16,2,-7,7
20345,26,5,19,-11,5,16,0,25
20350,-23,-2,-2,7,-4,-34,-2,-35
20355,5,3,11,21,-7,-15,2,19
20360,4,0,-4,-28,-4,5,-3,-11
20365,-13,-5,-1,17,-3,4,-3,8
20370,1,-2,6,-9,20,24,-7,-8
20375,-16,-10,-22,3,-26,-46,-3,-21
20380,8,5,-11,2,-3,-14,2,31
20385,34,6,17,-14,-4,14,3,37
20390,3,5,-4,-18,15,5,3,-6
20395,-11,-7,-5,6,20,19,-5,-21
20400,2,-3,2,3,-12,-3,2,8
20405,1,5,-16,-16,-3,-9,0,1
20410,-12,-1,43,14,11,-2,-4,2
20415,6,-1,-2,6,-9,11,6,-10
20420,-18,-6,-9,11,16,-18,1,-14
20425,19,-2,-7,-16,0,13,-5,3
20430,6,-6,-4,-10,-13,-14,0,3
20435,2,11,3,14,3,18,-3,47
20440,2,2,10,6,5,8,0,-1
20445,-24,-5,-1,-4,-14,-39,-1,-24
20450,-5,-3,-11,-15,-7,13,-1,-11
20455,-8,-2,5,14,-3,15,-2,-2
20460,-6,-3,5,-21,3,-33,-5,-19
20465,10,-6,-9,32,18,-24,3,10
20470,-2,7,-4,2,-8,-13,0,7
20475,3,0,2,-14,-16,-1,-1,1
20480,4,1,6,5,-3,4,-2,-6
20485,-8,-1,5,-9,4,16,-3,5
20490,-1,0,-1,11,0,-7,1,10
20495,-1,-1,3,-3,15,28,-2,-9
20500,4,3,-6,1,-3,-9,-2,-6
20505,-16,-10,-1,1,-13,-2,-3,6
20510,-4,3,-26,-13,-7,16,-1,-25
20515,10,10,11,-19,7,-12,2,26
20520,12,-5,-5,20,-6,-2,0,-1
20525,-3,3,-6,-7,12,21,1,-7
20530,-15,-5,11,5,5,-14,-3,-33
20535,-15,-9,-9,1,-10,-2,-4,4
20540,-7,-2,-11,-32,9,20,0,-41
20545,20,0,4,-17,-23,-26,-3,51
20550,-1,7,-3,22,25,31,2,4
20555,8,-1,-2,4,11,-34,1,-7
20560,-4,0,-1,2,-8,-1,-1,6
20565,0,-1,1,-2,9,24,-1,-11
20570,-11,-5,0,-8,-14,-14,0,4
20575,-12,-6,-3,-10,0,16,-1,-45
20580,-11,-10,3,9,6,-9,-4,10
20585,14,13,-6,-20,-5,9,-1,25
20590,13,-1,3,10,-15,-23,0,15
20595,-16,-4,-6,-4,0,-14,-1,-17
20600,16,1,-8,6,3,22,1,10
20605,-18,-6,-12,-8,18,5,1,-27
20610,12,1,-6,3,-37,-27,-1,16
20615,7,-5,3,-1,-2,14,0,17
20620,9,9,2,2,-18,-14,-2,12
20625,-3,3,7,11,20,-30,0,2
20630,-12,-3,-2,-12,6,35,-2,-31
20635,-5,-4,1,-2,-11,-18,-4,7
20640,-1,3,7,-1,4,5,-1,2
20645,-11,-3,-7,21,-6,-9,0,-16
20650,28,0,-7,-4,-3,-5,-1,18
20655,-7,10,19,-26,-1,10,-4,-11
20660,-9,-3,-4,26,9,9,0,-2
20665,-10,-3,7,3,-7,-4,-2,-17
20670,-7,-6,13,6,12,-6,0,4
20675,-1,-7,-10,15,4,12,-4,3
20680,4,-2,-10,-7,-9,-31,1,3
20685,19,9,1,-6,-27,10,3,24
20690,17,6,4,7,0,9,4,8
20695,-5,-1,-1,-1,15,34,1,-16
20700,-7,-1,-9,-22,-9,-10,0,-11
20705,-10,-7,0,5,-6,16,0,-12
20710,-1,0,2,8,-2,-10,-2,5
20715,6,2,1,1,-6,-1,0,-2
20720,-22,-7,-2,-21,8,19,-2,-34
20725,10,-9,-5,10,8,-30,-5,42
20730,17,10,0,3,7,25,4,-11
20735,14,8,17,29,-1,-14,0,-14
20740,6,3,1,-2,-9,0,0,45
20745,-24,-3,7,-7,6,4,-2,-34
20750,-15,-8,-1,-9,3,-4,-3,-7
20755,-2,-9,-13,-7,-2,-21,-1,9
20760,0,4,8,-9,3,22,0,-2
20765,-6,0,0,5,-2,13,-5,-22
20770,-12,-4,-14,-27,-5,0,5,0
20775,31,-11,-10,4,-4,-18,0,48
20780,10,9,4,10,1,-2,0,-16
20785,-4,-1,2,4,9,29,1,16
20790,1,-3,1,2,-8,-28,-2,-27
20795,-20,-1,-7,-16,-4,-14,-4,-3
20800,0,-5,1,3,2,17,4,5
20805,4,1,-14,-35,-17,-1,0,-11
20810,-24,-7,7,17,27,21,-6,-25
20815,-11,4,-4,5,-4,-16,8,47
20820,63,9,2,10,-5,-12,-2,33
20825,-7,9,2,-11,2,4,4,-19
20830,2,-3,-14,-25,-12,-15,-6,-3
20835,-20,-1,0,-5,9,12,-2,-15
20840,-14,-9,-9,-1,13,-4,0,-9
20845,2,-1,0,8,-18,-7,1,-7
20850,3,1,12,3,34,34,0,10
20855,-8,-18,-21,-19,-23,-27,-8,-4
20860,7,14,-5,3,0,7,6,-10
20865,20,3,5,6,9,-2,3,16
20870,10,5,2,11,-3,13,1,20
20875,8,1,6,-8,5,-3,0,-19
20880,-18,-12,-4,-9,-10,-13,-6,-4
20885,-12,-6,0,4,10,12,-1,-15
20890,-3,0,-6,1,-9,-20,-2,7
20895,-16,-3,46,-10,-11,-9,-7,-26
20900,-20,-2,5,52,8,12,2,25
20905,54,8,-10,0,-13,-53,-2,-14
20910,3,1,-2,6,-2,-6,2,5
20915,7,3,2,-5,-6,13,1,-5
20920,-25,-10,-7,-22,6,-9,-6,-6
20925,-28,-10,2,-15,-14,-14,-6,-4
20930,2,-9,-11,8,-25,-13,-3,-18
20935,4,10,-9,-1,7,17,1,11
20940,18,4,0,-10,-7,-28,0,17
20945,3,3,23,-4,6,8,-3,8
