time,emg1,emg2,emg3,emg4,emg5,emg6,emg7,emg8,hand,pose,orientation,testPerson
0,-6,-6,-5,0,3,-5,2,2,1,0,45,BueBaby!
5,6,-3,-5,8,7,4,63,38
10,-5,-6,-8,-4,17,-5,-5,-35
15,-4,11,13,-12,-7,-8,-61,-12
20,4,-6,-30,4,-15,6,62,64
25,-5,9,36,8,19,3,-40,-89
30,-3,-4,-7,15,25,7,94,52
35,1,-6,-2,-34,13,-4,-55,-38
40,2,3,10,34,16,-4,-94,-14
45,-1,-5,-17,-5,-49,-26,8,36
50,11,9,10,-8,-10,8,-25,-2
55,-8,-8,-16,44,4,-9,28,-11
60,4,-2,-4,-10,6,4,5,20
65,7,-5,-14,-4,5,6,-15,76
70,-14,4,17,16,-2,0,-5,-115
75,8,-8,13,29,-13,7,75,63
80,1,4,-10,-23,33,-4,41,61
85,-13,-5,6,17,33,5,-15,-95
90,1,-4,3,23,-2,-21,-73,8
95,7,4,-4,-39,3,18,68,41
100,-6,-8,-4,-19,-9,-9,-37,-46
105,1,-12,-19,2,-4,10,60,4
110,-1,12,24,-5,-48,-6,-26,-19
115,0,-3,-22,-1,9,-3,-36,-15
120,-10,-1,-5,27,21,-4,-78,-93
125,3,-1,-1,-24,11,6,47,69
130,-3,-5,-1,3,-2,-12,-44,-24
135,-8,5,-17,-4,4,8,29,-12
140,9,-3,-3,8,-12,12,43,51
145,-4,13,13,15,27,-1,-2,-48
150,-7,-2,-14,-3,8,4,7,8
155,3,-7,25,26,-10,-23,-74,-24
160,0,-1,-9,-26,-7,8,72,48
165,-1,-12,-2,24,0,6,-22,-15
170,2,8,-20,-14,-48,-12,9,5
175,5,5,6,0,12,10,30,3
180,2,1,0,10,2,4,-34,-37
185,-15,-13,-4,2,-62,-46,-74,-18
190,-4,-7,-4,-30,-30,19,45,15
195,0,1,-11,9,12,-1,21,10
200,0,0,-5,-3,-21,-11,-69,-25
205,11,-5,13,-7,20,21,125,98
210,-4,-1,-12,-25,-30,-5,-53,-62
215,-6,3,9,8,39,11,20,-19
220,2,5,18,-18,-2,-6,8,-3
225,3,5,-6,6,12,13,15,35
230,-7,-3,-7,0,24,-8,-27,-42
235,6,-10,-4,5,-20,14,29,43
240,-7,0,-19,-7,-8,-2,33,-12
245,0,5,7,16,2,-22,-68,1
250,-1,2,21,32,76,3,13,-19
255,0,2,6,-19,-42,-6,-46,-25
260,-7,-9,-6,-69,-3,0,-48,-8
265,5,12,-9,20,-10,-9,19,9
270,5,-10,-14,-2,17,10,53,36
275,-6,0,2,-4,-2,-4,-20,-21
280,-2,0,-7,31,-10,-15,-12,17
285,3,1,9,-16,44,18,-12,3
290,2,-1,10,24,2,12,52,21
295,-9,-1,-9,-9,-18,-4,-26,-58
300,-1,2,7,-12,-4,-6,-9,12
305,-2,-8,-27,-18,-4,-9,-18,-5
310,4,8,29,28,9,2,34,13
315,1,-7,-16,-52,8,7,20,19
320,9,5,2,26,12,5,78,51
325,-18,-5,10,2,-24,-18,-95,-111
330,6,-1,-25,-20,-26,4,32,113
335,-9,-11,23,40,-25,-15,-43,-89
340,-4,8,5,-47,-20,-9,12,50
345,0,-15,-24,-17,9,-2,-51,-34
350,0,8,28,9,-39,9,3,-25
355,5,10,-7,45,-7,-15,-25,44
360,2,-8,0,-7,38,13,-12,2
365,-3,-5,-8,29,-10,-5,70,-12
370,-4,-1,-6,-24,8,-3,-25,-13
375,3,0,-22,5,25,-1,-18,40
380,3,0,31,22,62,26,67,-9
385,-2,10,5,0,-17,-24,-34,-45
390,-9,-9,-17,-7,2,0,-30,-17
395,1,-7,17,-5,24,5,40,36
400,7,8,-2,14,8,-9,-40,56
405,-5,0,-29,-24,-64,16,52,-63
410,7,6,20,21,9,-7,31,4
415,-15,-3,-2,-27,-5,-3,-46,-23
420,5,-4,-2,17,-39,-3,-10,3
425,-2,-3,1,-50,26,12,29,44
430,1,1,-15,-11,-27,-6,-37,-54
435,6,-6,-25,-49,-12,-12,50,72
440,-5,-3,23,11,-31,11,28,5
445,-12,0,-24,1,-5,9,11,-83
450,0,0,30,9,34,-1,64,65
455,11,-4,-9,14,-33,8,8,-23
460,-2,4,11,22,25,2,23,23
465,1,-4,-24,-18,-15,-3,-19,32
470,-10,-6,41,39,-10,-27,-128,-49
475,-5,2,-20,-32,33,7,81,26
480,3,-2,-35,-8,15,6,22,-76
485,11,-1,15,-4,-63,7,19,48
490,1,-2,1,3,22,-13,-27,6
495,-3,0,7,16,2,-7,6,30
500,-4,1,8,-12,-26,4,29,30
505,6,9,16,-1,57,8,-39,-62
510,-14,-8,-10,-34,-66,-40,-91,-57
515,3,-5,7,5,34,13,62,32
520,-2,-3,-9,7,3,-7,-28,24
525,-8,-4,11,31,2,-4,-46,-68
530,18,11,-32,-18,7,35,127,116
535,-15,-20,-22,-32,-43,-19,-81,-42
540,-6,17,36,-9,-26,-15,2,-76
545,11,6,16,24,38,8,-35,-1
550,0,-3,-13,1,2,2,78,46
555,-2,-2,-41,2,8,12,-33,-84
560,-3,-7,23,3,6,-10,-29,6
565,14,8,5,-7,-5,2,44,113
570,-9,-3,-7,2,6,2,13,-49
575,4,-2,1,34,-2,-8,-16,-9
580,-16,0,-7,-19,-85,-22,-22,-77
585,-2,-2,10,-16,42,-6,28,32
590,8,-4,0,-5,-4,6,-37,17
595,0,5,12,7,14,8,86,22
600,-2,-20,-23,11,20,-4,-70,19
605,-1,10,8,49,6,-1,22,29
610,-9,-5,-13,-3,-59,-23,-29,-103
615,5,9,22,-42,-1,5,-8,-11
620,-7,-12,-44,11,13,3,37,16
625,5,-3,11,3,-19,-1,-54,-15
630,7,4,13,-34,76,15,43,43
635,-6,7,5,61,-42,-6,-28,-2
640,16,-9,-6,-10,11,3,16,62
645,-23,7,5,0,-51,-38,-71,-55
650,-4,0,-9,-10,25,19,13,-51
655,1,-4,17,-11,-13,-14,-36,42
660,2,-4,-7,-12,34,6,27,-21
665,4,-8,-10,-11,0,2,-2,56
670,-4,8,6,27,-5,0,-19,-6
675,-4,-1,-2,-42,-9,-4,30,-21
680,6,4,-13,-3,12,8,-31,-3
685,-4,-5,14,-1,23,5,21,-8
690,2,-2,-5,1,11,1,6,79
695,-3,3,9,18,5,-10,-24,-71
700,-2,2,7,-19,14,7,-16,-8
705,4,-5,-17,-22,26,7,-6,-71
710,-5,-5,-5,31,13,-17,0,64
715,-1,-7,-6,-12,-9,1,-24,50
720,-2,8,11,20,15,9,47,-43
725,-12,-3,-14,-4,-14,-4,35,2
730,2,-10,-7,-20,-53,-1,13,9
735,9,11,12,30,35,19,32,29
740,-4,-7,-9,-7,-34,-16,-93,-35
745,-4,-7,8,-10,65,10,30,16
750,-5,-5,-14,5,0,-9,12,-8
755,0,0,1,2,6,15,22,-18
760,6,4,-8,28,0,-7,-29,89
765,3,1,9,-6,-16,5,36,-25
770,3,8,30,18,-43,-4,-57,-62
775,-10,-10,-38,-20,-10,-4,3,-19
780,0,-2,55,-1,35,6,57,13
785,2,4,-20,2,-69,-2,-13,-10
790,3,-6,-11,6,36,5,-14,15
795,2,10,7,-25,15,-13,-15,11
800,-8,-7,-15,21,-22,-2,-6,-42
805,3,-5,4,-10,26,-3,46,91
810,-13,-1,6,7,-24,2,-29,-88
815,5,3,7,20,-3,6,-23,-1
820,-4,-2,-6,-20,9,-4,51,-7
825,-3,-4,0,-37,-21,-1,-44,-10
830,3,5,-14,-10,11,0,15,32
835,-4,-6,3,-8,14,0,22,0
840,3,3,-3,18,13,-1,-13,19
845,4,1,-14,25,24,10,28,28
850,1,2,13,-25,-1,5,8,-8
855,3,4,12,-18,-7,-5,22,3
860,-1,-5,-7,-10,-10,-4,-40,12
865,3,-6,-4,-2,-10,2,27,18
870,1,6,0,-5,7,-6,-52,-36
875,-1,4,1,-12,5,0,12,26
880,10,6,-9,6,0,6,5,30
885,-22,-15,-8,10,3,-14,-3,-38
890,10,2,-3,7,15,3,-1,61
895,-5,0,13,-14,-1,-3,-21,-55
900,-1,-4,-7,6,-8,-1,15,-10
905,10,5,6,10,40,8,-33,20
910,-18,-11,-36,-41,-70,-22,-44,-29
915,2,-3,31,50,91,-4,4,25
920,0,4,2,4,21,-2,-37,22
925,-3,5,-1,-1,-4,6,22,-96
930,1,2,7,-5,9,6,30,23
935,4,-5,-19,-3,-28,0,2,52
940,1,-1,-14,-12,-14,3,11,-34
945,0,-4,21,16,4,-5,-5,74
950,-8,-5,-8,-28,1,-2,18,-37
955,-8,-4,-8,-6,-2,-14,-103,-39
960,2,3,7,25,-1,5,55,32
965,-4,-3,-16,-40,-25,1,8,-58
970,6,9,15,21,20,5,16,34
975,12,4,0,10,-6,13,24,5
980,-10,-5,-6,-45,-4,-14,4,-11
985,1,1,0,8,34,9,-25,20
990,5,-4,-9,7,26,11,30,29
995,-7,5,14,10,-1,-12,-41,-72
1000,-1,-3,-8,-12,-2,0,2,-4
1005,-1,-3,-4,18,-10,-6,-8,12
1010,7,4,7,10,21,6,16,0
1015,6,0,-24,-7,-15,9,18,33
1020,-7,-6,-14,18,-29,-9,2,-19
1025,0,5,36,-8,22,3,7,-22
1030,-3,-7,-20,-9,-8,-8,-15,89
1035,-29,-11,1,6,-23,-26,-69,-92
1040,4,6,5,-2,12,8,52,66
1045,7,1,-9,6,-40,-1,39,34
1050,8,4,16,16,29,14,-1,-4
1055,17,-1,-30,-6,-31,6,63,51
1060,-14,1,26,-13,21,0,-113,-125
1065,-2,-5,-1,13,18,-11,32,113
1070,-11,-6,-2,13,17,5,10,-123
1075,0,4,-13,-17,-9,-5,-30,47
1080,-3,-3,6,0,2,2,3,-64
1085,10,1,-4,12,-10,1,-19,23
1090,-4,1,1,3,1,-9,-18,-13
1095,3,0,6,6,28,11,25,11
1100,7,3,-14,10,-34,-6,-5,32
1105,7,-1,-6,-33,18,16,-8,3
1110,-12,1,26,9,-3,-31,-62,-63
1115,-7,-2,-1,3,31,8,22,-26
1120,-3,-3,8,1,2,1,19,35
1125,10,1,-15,10,-19,6,35,38
1130,13,3,-11,-5,-16,11,25,14
1135,10,5,12,-11,35,26,36,23
1140,3,7,18,20,57,-11,-80,-32
1145,-18,-10,-4,-8,-8,-18,25,-13
1150,-2,-4,4,-3,-2,4,20,-40
1155,-7,-6,-14,3,-12,-9,12,19
1160,6,-4,-13,-7,-4,11,28,36
1165,-4,3,10,-3,-15,-2,10,-43
1170,-1,-5,-8,8,6,0,-54,34
1175,5,-3,-3,3,-18,5,54,33
1180,-4,-1,0,5,-20,-9,-38,-57
1185,-2,5,5,6,17,-1,-10,-19
1190,-11,-3,-3,-4,-9,-11,13,-2
1195,0,-2,2,2,0,-1,5,21
1200,1,2,-7,-13,11,3,10,22
1205,7,-1,0,7,-61,10,-18,-17
1210,-11,-8,-6,-9,10,11,-6,-15
1215,9,5,-5,18,1,-12,-38,17
1220,-8,-4,3,6,-4,7,73,27
1225,3,-2,2,17,-21,-2,-14,5
1230,-12,-11,0,-6,-2,-8,-18,-21
1235,5,14,13,3,-25,-2,-18,27
1240,-4,-3,-11,25,1,0,41,-18
1245,3,-5,-13,-63,61,11,-45,16
1250,1,-3,0,-2,-17,-24,-4,21
1255,-7,-4,-2,-36,-6,-2,-16,-93
1260,4,0,-6,-3,6,5,81,81
1265,-4,4,1,6,28,-6,-2,-1
1270,-4,3,10,34,73,16,18,-40
1275,5,-1,7,-6,-28,8,-35,59
1280,-3,7,5,-14,14,-7,-1,-93
1285,2,-1,-2,6,-10,-1,-47,19
1290,0,-10,-16,4,0,0,36,-18
1295,-3,3,4,-36,-4,0,22,25
1300,5,-2,-4,-25,-17,12,0,45
1305,-1,3,8,12,1,-6,-38,-69
1310,12,5,-17,-21,-25,2,51,114
1315,-11,-12,3,12,2,0,40,-66
1320,-8,-6,-6,-6,-21,-23,-118,-16
1325,-8,-3,-14,8,-4,-6,55,-59
1330,8,4,22,-17,-3,1,49,59
1335,-5,-8,-24,7,-36,-11,-10,29
1340,3,0,3,21,10,1,29,1
1345,-7,-2,-2,-34,-7,7,33,-29
1350,-1,0,-11,-8,-8,-13,-99,-1
1355,-3,0,2,-5,-35,-5,-14,5
1360,-2,-2,5,0,-1,3,-3,-36
1365,6,0,1,29,-3,3,22,29
1370,-2,2,2,-21,-10,-3,-36,-2
1375,-12,-9,-8,17,22,-10,-22,-46
1380,10,-7,-5,-25,1,3,18,81
1385,-9,11,5,15,-52,-7,-1,-40
1390,3,5,-1,15,-15,-4,-40,-29
1395,-3,-3,11,-5,61,3,27,-15
1400,-5,-10,-26,-28,-40,-4,17,56
1405,-3,-1,32,18,43,-5,-32,-8
1410,4,3,-2,11,4,7,31,-13
1415,-1,-4,-1,6,15,-3,-35,-8
1420,3,1,-10,-2,-24,14,49,-25
1425,-13,-12,-8,-17,9,-15,1,16
1430,3,5,3,-4,-13,-6,-15,-7
1435,17,9,3,3,11,22,94,65
1440,-5,-1,2,15,-7,-11,-55,-58
1445,0,-4,-9,1,4,7,40,53
1450,-11,-7,-1,1,18,0,-58,-50
1455,4,3,5,32,5,-11,-35,15
1460,6,7,2,4,26,7,54,-2
1465,-3,-3,20,-34,-79,-3,-6,6
1470,3,-2,-22,4,3,4,9,-5
1475,-4,-6,20,-5,-5,2,-12,-9
1480,-4,0,-12,-11,-5,-13,-52,-18
1485,12,1,-19,22,38,7,22,78
1490,-8,-2,23,19,-12,-4,10,-64
1495,-4,3,-2,7,-15,-7,-31,2
1500,-4,-4,-7,-4,14,0,19,-27
1505,-2,-2,-15,20,14,-12,-11,15
1510,-3,-7,-2,7,-15,7,48,31
1515,5,-4,-11,-7,-2,-2,-55,10
1520,-8,-5,1,-7,-21,-11,-23,-23
1525,16,8,-5,-4,21,13,55,80
1530,-28,-6,10,-7,-60,-13,-57,-84
1535,2,0,-18,-3,2,1,-25,33
1540,-4,1,35,21,28,-6,-22,-13
1545,3,-3,-22,-24,-16,4,-3,-16
1550,14,3,25,17,-19,9,18,68
1555,-4,1,7,-10,-5,-5,57,-23
1560,1,-4,-9,-36,2,7,-59,17
1565,-5,4,-9,12,14,0,9,-35
1570,9,3,17,5,34,2,12,78
1575,-7,-1,-11,-29,-10,-3,-42,-110
1580,1,-3,1,26,-14,0,29,33
1585,-3,-5,1,-43,7,-4,6,-34
1590,9,6,-18,1,7,12,45,64
1595,5,-4,6,-27,37,15,6,20
1600,-3,5,9,19,41,7,61,-7
1605,-8,6,14,29,21,0,-20,-12
1610,4,-2,-16,-35,-26,-6,43,-5
1615,-3,0,11,44,14,-11,-48,20
1620,-2,-5,-13,-3,10,10,22,-42
1625,3,-3,-2,21,-47,-4,-2,12
1630,-5,0,23,-13,13,-2,-16,-16
1635,-1,0,-7,1,-8,0,55,-13
1640,4,-2,-6,-4,-15,-8,71,81
1645,-10,-1,8,-5,-24,-14,-73,-71
1650,-9,-6,-24,-7,16,-12,-109,-57
1655,1,-5,-9,5,-16,-4,17,9
1660,-1,1,2,4,-9,-3,-25,8
1665,0,5,0,-12,27,-4,26,-17
1670,4,0,-26,-8,10,1,-19,23
1675,-2,7,23,25,15,2,-5,-41
1680,-5,-4,-2,-10,-10,-12,-36,3
1685,-6,-11,-4,-7,7,-1,-40,25
1690,3,0,-6,15,1,1,50,16
1695,-1,1,-5,8,-9,1,23,-43
1700,1,-1,8,-14,-1,2,-9,-4
1705,-3,-1,-5,-13,-5,-7,0,13
1710,-1,-4,-6,-2,-2,0,41,18
1715,24,4,-9,-5,12,14,67,127
1720,-19,1,11,-10,0,-12,-82,-109
1725,-13,-14,-7,10,13,3,21,21
1730,14,17,17,-38,1,9,65,33
1735,-20,-8,-5,-14,-26,-33,-112,-20
1740,10,1,-29,16,-2,12,32,15
1745,5,-2,17,-56,-56,-1,22,9
1750,-1,2,10,18,39,5,-28,-1
1755,1,-3,-8,3,4,12,24,-31
1760,10,9,1,-9,-2,0,-23,43
1765,-7,1,0,20,-5,0,-19,-81
1770,9,-4,-6,-24,-4,7,53,84
1775,-15,-3,20,-7,-11,-12,-67,-111
1780,-4,-10,-10,12,-8,2,-5,76
1785,16,8,7,30,11,4,40,57
1790,-16,-7,-2,7,1,-10,-58,-61
1795,5,3,-6,13,8,11,36,27
1800,-1,2,-11,-26,-6,-8,2,-28
1805,2,-8,2,2,11,-13,-73,52
1810,-3,4,-3,1,-17,19,-26,-108
1815,-8,2,12,-16,-10,-6,95,33
1820,3,3,6,20,8,-3,-50,-8
1825,-1,-1,-1,-3,-1,-6,-13,6
1830,1,-8,-3,9,-6,-6,-18,14
1835,5,-8,-20,43,-6,5,-2,43
1840,-8,6,4,-35,30,8,12,-96
1845,3,4,19,6,29,12,11,-2
1850,-9,-10,5,0,-4,-20,-17,16
1855,2,6,-9,7,0,7,9,2
1860,3,-2,-7,1,-12,-9,-12,49
1865,2,-1,-8,1,-2,-1,-39,-36
1870,-11,-6,-7,11,19,8,75,-22
1875,1,-6,-8,-66,-11,-3,-9,17
1880,0,-3,10,11,-10,0,7,8
1885,-2,3,-5,-8,-3,4,-8,26
1890,12,6,2,7,-2,1,-13,-4
1895,-12,-5,5,20,3,-9,11,-52
1900,-10,-8,4,-22,9,-3,17,7
1905,1,3,-6,6,-4,3,39,-5
1910,5,3,-2,1,3,-3,-19,10
1915,14,6,-17,-6,-7,10,84,54
1920,10,-4,-8,24,-17,6,-72,66
1925,-28,6,66,35,72,-5,-32,-105
1930,-5,-2,-5,-35,-8,-16,-14,8
1935,1,-6,3,-11,-10,3,59,57
1940,19,4,-27,4,-7,10,68,72
1945,-1,-5,3,3,-30,-5,-52,-37
1950,-2,4,4,0,7,-7,-27,-14
1955,-3,-2,3,4,28,-1,-34,-34
1960,-3,-3,3,2,-4,-13,9,-16
1965,1,-6,-26,-2,-12,-5,-9,46
1970,-9,-4,-1,12,29,1,29,-35
1975,-2,-4,-19,3,14,-12,-93,-8
1980,-4,-3,30,31,18,16,83,0
1985,-5,-1,-18,-40,-24,-15,-16,-14
1990,6,-1,-1,10,-9,0,11,27
1995,0,2,2,-6,-9,-1,-28,21
2000,-6,5,11,6,-1,-15,-81,-98
2005,10,-6,-21,28,6,23,101,85
2010,-4,-4,3,-28,-32,-4,0,34
2015,-11,0,12,-35,3,-9,14,-80
2020,-10,-8,-3,-10,-6,-3,-27,-9
2025,10,7,-18,-5,-13,-9,-45,17
2030,16,5,9,0,-23,18,44,49
2035,-5,2,2,8,11,-3,-51,-29
2040,-4,4,38,33,28,16,78,-39
2045,-8,-8,-15,-42,-13,-19,-68,-13
2050,-2,-2,-2,16,-5,-4,10,33
2055,1,-1,-15,-12,40,5,10,23
2060,3,0,-6,15,-31,-10,10,58
2065,-5,-2,-2,-4,22,17,18,-72
2070,-3,-2,-13,-8,4,-8,-2,21
2075,8,2,13,9,-9,1,6,42
2080,-12,-3,-11,-27,-6,-3,-40,-57
2085,4,4,3,6,-4,6,50,8
2090,-3,-2,-1,2,-5,-3,12,-25
2095,-1,-3,2,2,-20,-7,-13,16
2100,9,4,3,-6,3,3,-16,-12
2105,-9,-5,-11,-6,-12,-8,-20,8
2110,-3,-1,2,6,12,5,5,-33
2115,-4,1,3,7,-9,5,5,21
2120,12,2,-8,-8,7,-2,3,7
2125,13,-13,2,2,1,7,39,66
2130,-1,17,10,32,13,2,-18,-26
2135,-16,-3,9,-10,-14,-15,-51,-49
2140,-4,-2,-3,-12,-9,-4,-13,29
2145,-3,-6,-10,3,-4,-4,53,0
2150,15,-2,-3,7,0,14,46,65
2155,-6,-7,-18,-3,-39,-11,-42,-46
2160,-12,5,23,31,42,8,7,-22
2165,4,1,5,-10,-10,-8,-28,-17
2170,2,0,3,-9,6,1,20,-3
2175,7,0,-13,1,-5,6,-39,0
2180,-2,-8,-33,-13,-20,-5,6,31
2185,3,7,22,14,1,-5,-21,14
2190,-1,-1,-2,9,-26,15,90,-20
2195,-5,-8,-2,5,1,-7,-63,-12
2200,-8,-4,-10,-10,-8,-17,-33,-27
2205,0,12,5,8,1,4,16,0
2210,3,2,-8,-17,1,-14,-52,17
2215,5,-9,8,36,9,14,74,38
2220,-16,-6,9,-41,-12,5,72,-9
2225,-10,-3,-16,-11,9,-7,-72,-39
2230,-3,-3,1,2,6,-5,-53,-2
2235,9,9,4,10,4,1,6,25
2240,17,-5,-34,13,-11,7,29,55
2245,-7,9,31,-34,5,-4,-37,-66
2250,-28,-15,-27,-33,-16,-24,-53,-80
2255,-1,0,22,-5,24,-2,15,30
2260,3,0,1,-9,33,4,34,-9
2265,8,7,9,32,-15,0,-8,56
2270,10,0,-11,8,7,14,-16,11
2275,-12,5,6,-13,-11,-9,29,-65
2280,0,-1,1,-26,2,2,12,23
2285,0,-4,-21,37,3,4,55,2
2290,-1,-10,11,-5,-3,-11,-126,-17
2295,0,9,-8,0,2,4,68,17
2300,13,5,13,17,-1,9,4,15
2305,-11,-6,-9,-10,-5,-8,-11,-15
2310,1,1,1,6,4,6,42,24
2315,13,-1,-4,-17,-4,5,34,63
2320,-28,-4,1,3,-14,-8,-55,-128
2325,-3,-4,-2,-11,2,-8,2,10
2330,7,4,3,-2,10,-1,-4,13
2335,-2,-8,-26,3,-5,-5,23,21
2340,19,8,-1,1,-3,11,67,99
2345,-13,14,29,21,-27,-19,-52,-80
2350,-15,-2,2,-2,51,1,-25,-32
2355,4,4,2,-2,-5,-2,-18,-13
2360,1,-10,6,-26,-37,-6,33,90
2365,24,-14,-59,-4,44,24,106,61
2370,-9,21,31,77,-5,-11,-16,-80
2375,1,11,30,-4,34,7,-31,-31
2380,-3,-7,0,-8,-14,-11,-36,-31
2385,7,5,-26,-12,4,3,-26,79
2390,3,-7,4,-8,-15,0,22,-34
2395,-12,-17,-15,-7,-18,1,45,3
2400,6,12,0,34,17,0,-62,-8
2405,-14,-12,-3,-47,-15,-14,-24,-31
2410,6,-2,-11,-2,-5,8,48,39
2415,4,5,19,-22,-8,9,-13,29
2420,-23,-10,-13,-9,-24,-28,-40,-114
2425,3,2,18,7,-1,-7,-6,13
2430,7,3,-9,-13,-3,11,31,71
2435,4,-5,-7,-4,-8,-16,-42,-23
2440,4,18,16,31,14,16,2,34
2445,-12,-11,12,-45,-6,8,68,-10
2450,3,-4,-28,-10,1,-6,6,-30
2455,1,2,-7,6,-8,-6,-12,23
2460,-3,-27,-51,-28,30,2,14,33
2465,6,33,78,44,-7,9,-37,-80
2470,-11,-4,26,-26,15,-4,26,1
2475,0,2,-3,-4,-14,5,16,-1
2480,11,6,5,6,14,7,23,43
2485,-2,-10,-23,-2,-25,-11,-73,-4
2490,-6,-14,-19,25,1,-2,-7,-5
2495,0,11,11,13,20,2,12,-12
2500,3,3,9,-1,-8,-7,-3,4
2505,3,-6,-13,0,4,13,34,7
2510,4,3,5,-3,-10,3,13,-2
2515,0,-9,-4,0,-1,3,17,31
2520,-6,-1,-3,-6,-18,-18,-100,0
2525,-16,-10,-10,4,6,3,57,-54
2530,3,1,3,-8,2,-7,8,16
2535,3,1,-5,5,0,0,3,18
2540,5,5,9,3,3,6,26,-14
2545,13,1,-7,8,12,13,26,63
2550,-13,-8,0,-17,-15,-19,-87,-39
2555,-13,2,4,-1,-9,-20,-44,-58
2560,0,2,3,2,-4,-2,-1,6
2565,-1,-8,-14,-1,3,-8,-1,20
2570,4,-9,-65,20,1,15,16,40
2575,-1,1,50,-19,-7,2,-18,-24
2580,-9,4,-1,-1,6,-11,-24,-43
2585,6,-4,-1,2,3,2,27,26
2590,12,8,7,2,-3,5,5,33
2595,-7,-12,-25,0,-3,-3,-20,-14
2600,-8,-4,7,7,-4,0,4,-41
2605,3,3,0,17,6,4,-5,11
2610,3,2,10,-11,-7,-4,-51,-10
2615,-2,-3,-13,3,-1,3,78,89
2620,-3,-12,-6,-15,-7,10,99,-29
2625,-5,15,6,3,-3,-15,-79,-37
2630,-13,-9,7,-8,-1,-11,3,-24
2635,-1,8,4,4,3,1,-43,-47
2640,9,-4,-32,16,4,-4,4,49
2645,4,-14,1,20,-5,10,77,59
2650,-6,17,6,-20,15,-9,-55,-98
2655,-17,-11,6,33,-24,-16,15,-17
2660,5,9,14,-34,-1,2,-36,25
2665,2,2,-28,-8,1,-5,2,20
2670,2,-12,-11,2,-11,13,36,35
2675,24,5,15,13,-1,24,96,92
2680,-20,-3,-31,3,-12,-17,-106,-127
2685,-2,-4,54,26,-14,-14,-22,5
2690,4,9,-2,-19,-19,-4,60,53
2695,4,-2,-16,35,0,23,-21,30
2700,-5,-4,5,-29,-21,-6,-20,-38
2705,-3,-4,-18,-19,-10,-3,-1,17
2710,6,2,7,-5,11,2,23,49
2715,-1,3,-6,10,13,6,-34,-99
2720,9,6,24,24,6,-8,2,61
2725,-21,-13,-22,-24,8,-14,-6,-75
2730,-3,-6,1,-8,-25,-7,-16,22
2735,6,5,21,-16,-3,-6,45,57
2740,4,4,-16,-3,-16,10,5,-19
2745,13,21,26,-3,-12,18,-1,-38
2750,-10,-4,38,15,-32,5,38,8
2755,-12,-15,2,-34,16,-21,-50,19
2760,-1,9,1,14,15,-10,4,-8
2765,7,1,-4,33,4,3,27,60
2770,15,-1,-5,-3,-25,12,27,66
2775,-23,-7,-32,-19,0,-14,-74,-128
2780,2,-5,19,21,36,2,24,81
2785,-6,-4,-6,-12,-1,3,-48,-70
2790,-4,-3,-16,-7,28,-11,-10,-23
2795,14,8,-7,-8,12,7,30,53
2800,-4,-9,2,-12,-13,1,12,3
2805,-10,2,-8,-16,5,-6,-94,-35
2810,-4,0,1,7,16,2,32,-30
2815,10,-5,-23,1,-6,-1,-12,63
2820,6,14,34,29,-6,5,-23,-22
2825,4,2,1,-19,31,16,48,-7
2830,3,1,12,2,6,-5,-11,65
2835,-12,-7,-9,-6,-1,5,5,-99
2840,5,-2,-19,12,0,3,5,38
2845,-3,-9,-14,-12,-17,-10,-3,21
2850,-9,3,14,12,20,-9,-63,-71
2855,-1,-1,-5,-2,-16,0,26,44
2860,-4,-2,-3,-10,5,3,12,-26
2865,2,1,-2,3,0,-4,-6,21
2870,6,-2,-9,-4,1,5,27,27
2875,3,-8,-8,0,1,6,28,-20
2880,-16,-5,12,-9,-4,-25,-79,-51
2885,7,17,1,0,-1,-1,44,34
2890,2,3,0,5,1,-2,-9,-9
2895,-4,-4,0,-1,6,2,-2,-12
2900,7,-5,-4,-8,2,11,24,61
2905,-3,-8,-10,5,1,4,65,-25
2910,3,14,24,14,-5,-3,-2,-6
2915,-6,1,4,-5,26,-4,-41,-19
2920,1,-4,-7,-4,-2,3,21,28
2925,15,5,7,9,7,8,17,105
2930,-12,-9,-37,7,0,-18,-75,-123
2935,-6,-11,1,-63,-4,-8,12,35
2940,-4,2,4,-2,5,-16,-19,-4
2945,1,-1,-24,0,4,-4,16,8
2950,2,-6,21,5,15,7,21,13
2955,15,11,-36,-1,-57,-2,-8,61
2960,-17,-4,16,-9,40,0,-18,-111
2965,-7,-4,23,7,-14,-9,3,-7
2970,2,2,-9,-48,-11,-4,-5,29
2975,7,2,-15,8,-5,-2,2,13
2980,14,1,-2,-3,-18,26,58,61
2985,-10,-8,-8,-10,20,-9,-37,-71
2990,-3,-3,3,2,1,3,-43,-10
2995,0,1,1,5,-1,-1,30,15
3000,8,2,-9,-2,1,8,34,72
3005,1,-1,10,9,9,3,-37,-48
3010,-19,-10,-6,6,-7,-5,51,-52
3015,-2,7,10,-6,30,0,-14,-13
3020,-5,-2,1,25,13,-5,1,0
3025,5,0,-2,-3,-6,-5,-81,31
3030,6,-16,-46,-17,-44,4,33,49
3035,1,10,55,60,27,18,23,-5
3040,-7,10,13,5,-35,-7,-23,-106
3045,5,-1,-6,-16,-26,-9,30,46
3050,-1,0,-9,18,18,-3,-31,0
3055,-2,-15,-20,-5,-8,-17,-45,-12
3060,3,-3,19,13,7,18,36,83
3065,-15,3,41,20,-11,-2,-19,-108
3070,1,-1,9,-15,20,0,-12,15
3075,5,-1,-9,-9,-17,-2,10,47
3080,2,2,-18,-6,5,-8,-29,-51
3085,-7,-7,-10,-11,22,9,65,32
3090,-1,-1,0,3,-37,-2,12,44
3095,-3,5,6,-8,7,-2,-53,-55
3100,0,-2,-16,-21,-4,-16,-16,10
3105,5,0,-2,8,3,8,50,12
3110,-7,-1,3,-6,1,-6,-19,-19
3115,-8,0,-6,1,3,-15,-77,-26
3120,-1,-4,0,8,-19,-3,42,-23
3125,14,-1,-13,12,1,12,88,105
3130,-9,2,4,-54,20,13,-33,-54
3135,-14,-8,-2,-8,-16,-21,-29,-35
3140,7,-1,3,-7,2,2,-10,39
3145,6,4,-5,-14,-4,5,-15,28
3150,5,-1,-3,10,-6,3,21,50
3155,-3,17,13,24,28,11,34,-88
3160,-13,-11,-9,-25,-10,-1,-37,-44
3165,5,2,-7,8,7,2,-10,53
3170,8,2,14,16,2,-6,7,28
3175,-6,-7,-14,-22,-15,-2,-7,-4
3180,-5,-5,-3,14,8,-9,-44,-5
3185,-7,-4,-3,6,-1,-2,4,-45
3190,0,-3,-3,27,-19,-4,-30,16
3195,8,3,6,-4,18,12,58,33
3200,15,11,0,4,6,10,-9,49
3205,-16,-10,-7,-12,-21,-16,-19,11
3210,-10,-4,-5,-3,9,-1,-15,-128
3215,5,4,21,24,6,5,29,55
3220,1,-2,-5,0,-13,-5,-5,8
3225,0,3,2,-21,-16,8,14,21
3230,5,-4,-24,8,14,4,-8,-14
3235,-6,-4,-1,7,-36,-3,52,-26
3240,-3,6,18,-6,36,4,-6,-8
3245,-2,-1,-20,6,1,-23,-97,-46
3250,6,2,4,-27,-56,5,79,55
3255,4,11,19,20,56,5,14,-4
3260,-5,-12,-18,-3,-11,4,-9,5
3265,6,0,-6,28,-16,-7,-7,-25
3270,5,12,17,-27,29,6,62,39
3275,3,-9,-17,12,-17,-4,-18,22
3280,-14,-5,0,-51,-72,-19,-24,-69
3285,0,-6,-11,-8,34,0,28,-2
3290,-6,-3,2,20,0,-5,-53,-22
3295,8,0,-5,-28,-18,7,50,28
3300,3,4,1,9,7,2,46,25
3305,-11,-6,3,-2,-11,-6,-48,-39
3310,0,6,10,27,11,-5,-39,-3
3315,-2,-7,8,-19,-1,2,57,29
3320,-2,3,-15,-7,20,7,-17,-7
3325,-8,-7,4,-21,2,-6,-38,-50
3330,7,8,1,20,9,4,33,45
3335,-2,-2,-14,7,16,2,-48,-16
3340,6,-7,-14,2,7,1,40,64
3345,-2,4,29,13,-10,2,27,-36
3350,-7,-3,-2,-25,6,-13,-50,-36
3355,-10,-6,-3,12,4,-9,-66,-26
3360,6,3,0,5,5,9,45,46
3365,-9,-17,-15,-15,-1,-7,6,-32
3370,5,4,-10,42,-26,13,21,15
3375,1,10,10,-47,24,-3,-20,-25
3380,-1,-6,-7,3,4,1,-15,16
3385,3,7,13,23,-1,0,5,20
3390,-3,-7,1,-1,9,-1,43,12
3395,1,-5,2,7,-30,4,2,11
3400,-13,0,0,8,12,-6,-23,-39
3405,5,7,5,-12,16,4,-12,19
3410,-3,-4,-2,-12,5,-3,-31,-33
3415,6,-5,-20,6,-4,-1,-44,66
3420,-2,3,8,-5,-17,1,42,-29
3425,1,-2,0,18,37,11,-8,-9
3430,-4,2,-16,-16,17,-15,-23,-17
3435,1,2,-10,-19,11,4,-8,-17
3440,-4,-5,22,43,25,1,-13,-3
3445,11,3,-8,-10,22,12,68,78
3450,-6,0,2,0,1,-6,-24,-32
3455,-2,-3,-4,-8,7,-11,-24,-21
3460,0,-4,-15,-13,-13,-7,4,22
3465,0,-8,-1,-5,-11,11,28,-3
3470,8,11,4,8,9,0,18,41
3475,-9,0,6,-3,-39,-1,-39,-67
3480,3,4,-2,18,8,-10,-35,-64
3485,0,-2,-5,-24,-19,5,48,76
3490,4,-4,1,-3,-6,12,36,34
3495,-8,-2,1,5,-18,-23,-29,-34
3500,3,0,-7,-8,-12,-3,-5,47
3505,-3,3,1,16,11,1,-20,-58
3510,14,-3,-4,-36,7,21,73,84
3515,-23,-4,0,21,-44,-23,3,-67
3520,6,3,12,-15,22,6,9,9
3525,2,2,-1,2,1,-7,-14,-3
3530,-3,-3,2,-2,-18,-9,-14,3
3535,8,2,3,15,10,11,32,9
3540,-2,0,-6,-9,-15,1,15,9
3545,-5,-1,-2,3,-27,-11,-51,-19
3550,5,-9,-2,-18,-22,10,-33,6
3555,1,3,6,32,42,-15,61,8
3560,-6,3,2,18,1,6,27,-8
3565,2,2,-2,-33,9,-7,-45,27
3570,-14,-9,-6,15,11,-10,-23,-62
3575,6,-2,-5,-20,-14,9,21,51
3580,5,-4,5,-3,-24,-3,-22,-3
3585,2,0,-7,19,2,2,-11,-30
3590,-4,-1,1,-6,-1,-8,54,45
3595,-5,-6,-5,-13,-3,3,-36,-30
3600,4,-4,-8,18,40,5,11,11
3605,-7,-5,16,30,14,0,-14,-12
3610,-5,6,-10,10,-10,-12,-5,-31
3615,0,5,30,8,14,9,-11,-5
3620,-4,0,-11,-16,-9,-8,-5,-20
3625,1,0,-4,-9,-12,-3,-1,17
3630,-1,-4,4,20,7,3,-13,2
3635,3,-1,-15,0,11,10,21,13
3640,4,0,3,-8,-14,0,-26,-4
3645,-6,-6,-3,-2,-9,-10,5,6
3650,4,0,3,-1,5,-7,-29,58
3655,5,-7,-22,-57,5,14,55,-25
3660,-11,-4,25,32,20,-5,2,-13
3665,2,19,-5,-21,-34,-3,-52,-45
3670,-7,4,9,9,58,-8,-47,-58
3675,7,3,3,6,2,-3,9,66
3680,-1,-7,-8,-10,-14,6,30,15
3685,-4,-8,-10,-7,1,4,12,-10
3690,3,2,5,7,-6,-2,-42,-4
3695,-2,-3,-13,6,1,0,-17,-2
3700,8,2,10,8,-44,1,54,74
3705,-16,-3,8,-14,75,5,12,-82
3710,1,1,1,-2,-5,15,33,-15
3715,-11,-4,3,-10,11,-12,-38,-16
3720,-2,-2,-6,11,-2,1,-22,-16
3725,13,4,1,8,-7,4,17,57
3730,-1,-3,6,-5,-3,1,6,-16
3735,2,-4,-11,12,-7,1,-7,8
3740,12,20,4,-6,11,3,-8,6
3745,-5,-16,-10,-23,-36,-13,3,27
3750,-16,-9,-18,-6,8,-9,24,-83
3755,4,3,13,31,-81,-13,-40,47
3760,-12,-5,0,-11,29,-1,14,-58
3765,5,8,-3,-37,16,5,5,24
3770,2,-8,3,-3,-24,1,-8,12
3775,5,6,-2,24,10,5,39,6
3780,-3,-8,-33,-36,-43,-4,-16,-7
3785,2,3,24,50,-22,-4,-19,-2
3790,5,3,8,-2,13,0,-2,28
3795,-7,-4,7,-10,-10,1,18,-10
3800,-4,-4,-12,-11,-4,-9,-7,-19
3805,-4,-3,-17,-5,3,-2,0,-4
3810,1,1,0,6,-6,4,-12,-9
3815,4,-2,-2,-2,13,12,42,66
3820,3,0,-2,-2,-18,-8,-19,-1
3825,-4,-5,-2,18,11,3,17,0
3830,-12,-6,2,0,-2,-24,-98,-76
3835,-2,-1,-11,-75,-59,7,35,13
3840,0,2,3,7,26,5,-29,-10
3845,-2,-1,19,11,-5,1,84,43
3850,-5,0,-13,12,-21,-13,-32,-21
3855,2,1,-20,-24,46,7,-11,-6
3860,4,-1,34,4,-3,-3,-23,31
3865,5,2,-21,4,3,-2,1,-18
3870,-8,-5,-2,0,2,8,13,-16
3875,3,-1,7,10,12,-4,24,25
3880,-15,-9,-21,4,3,-8,-29,-53
3885,4,7,-11,9,1,6,52,34
3890,0,-1,7,-3,10,2,-36,23
3895,-1,0,-14,2,17,1,-42,-27
3900,3,1,16,1,-11,4,15,37
3905,0,-4,-13,3,-7,3,-6,-17
3910,2,3,-17,-13,9,13,49,-6
3915,-4,-1,16,15,-6,-8,-80,-28
3920,1,1,7,6,-44,-7,16,29
3925,-10,-3,15,-3,16,2,-22,-69
3930,5,1,-7,-2,1,11,103,72
3935,-4,0,1,16,-4,-13,-34,-20
3940,-2,-1,-3,-26,28,6,7,-13
3945,6,1,-1,-7,-9,3,-42,10
3950,7,0,7,-5,-24,3,59,25
3955,-6,-5,3,23,51,-12,-39,-7
3960,4,3,-3,-7,-12,2,13,-3
3965,-4,-6,0,-22,-9,-11,-82,-20
3970,1,1,-2,-7,2,0,39,22
3975,-3,4,5,0,1,7,51,-23
3980,1,-4,-34,-19,-26,6,4,-2
3985,6,-8,18,5,30,7,3,32
3990,0,12,-12,2,10,3,-6,18
3995,5,6,47,26,24,3,-46,-42
4000,-1,-6,-4,25,-41,1,39,25
4005,-1,-3,-19,-14,-43,-8,3,21
4010,-7,-10,3,-48,13,-11,-18,-32
4015,0,-2,-12,14,-17,5,20,11
4020,1,4,-3,-1,25,-1,-18,-16
4025,0,2,9,16,7,5,-13,9
4030,-5,-2,-3,26,20,-10,-36,-29
4035,1,-7,-22,-43,-62,5,78,72
4040,-12,-7,5,10,92,6,-6,-57
4045,-4,-1,-70,-11,18,-18,-58,-44
4050,6,6,94,45,43,14,22,77
4055,-4,-2,-26,-30,-14,-9,-13,-44
4060,5,3,-19,24,11,1,52,30
4065,-16,1,22,-3,-23,-26,-48,-85
4070,-7,-10,-27,-7,-16,-4,-49,-17
4075,2,-5,-3,-26,-1,-7,-5,27
4080,-2,-13,-1,25,-72,-7,-17,-14
4085,5,10,6,1,74,15,42,16
4090,3,6,-3,8,-20,5,32,35
4095,6,1,10,22,2,3,-2,29
4100,-4,-1,-8,-3,26,-6,-23,-47
4105,-2,-2,-13,-16,-1,11,-4,-11
4110,-5,-3,18,29,-30,-12,1,-22
4115,-3,3,-8,18,44,7,2,1
4120,6,5,9,-10,3,-4,-25,11
4125,-3,-3,29,38,-28,0,22,32
4130,2,-2,-26,-9,3,0,37,22
4135,1,0,2,11,12,3,-8,-13
4140,0,2,2,-12,-55,0,-5,23
4145,4,2,14,-1,-2,4,27,7
4150,-1,-1,-25,-18,-21,-12,-31,-11
4155,0,2,25,24,1,-2,27,-20
4160,-1,-5,-10,-54,29,0,-4,13
4165,4,1,-6,-18,-2,1,33,33
4170,-1,-3,-1,-2,18,4,-46,-3
4175,-8,-6,-19,-40,-39,-19,-12,-12
4180,2,6,11,-5,38,2,7,-18
4185,2,0,1,3,-14,5,6,17
4190,1,-3,-10,-11,7,1,-17,-31
4195,-2,-4,-20,6,-8,3,-24,14
4200,-3,3,23,10,-7,0,15,-48
4205,-1,-10,-4,-8,-31,0,52,53
4210,0,4,-2,-16,-10,-1,-20,-5
4215,2,6,-6,-16,-37,6,-16,-31
4220,5,-1,3,9,17,-2,-53,32
4225,-3,-2,0,29,-17,-1,31,-5
4230,2,-8,-15,-88,-7,-1,11,53
4235,-8,-1,21,-2,12,-7,-8,-73
4240,8,5,-10,-5,-6,-3,-15,83
4245,-10,-4,-9,-3,7,-3,-63,-128
4250,-2,-2,9,1,-65,3,78,59
4255,1,-2,-6,11,34,2,11,46
4260,-5,-5,0,-8,-7,-6,19,5
4265,6,1,-8,-5,-3,-4,-24,17
4270,3,4,-7,9,-1,-5,8,-34
4275,2,1,2,4,17,6,-17,-6
4280,-2,-4,-4,9,-14,-2,3,5
4285,-1,5,2,-16,1,-17,-34,5
4290,-5,-6,3,24,8,0,-17,-59
4295,-9,0,-3,-38,-3,1,9,-26
4300,2,2,-1,14,25,2,8,5
4305,-3,-8,-19,-18,-17,-1,29,16
4310,1,2,29,20,18,-2,-41,-12
4315,5,-3,-5,18,3,2,3,36
4320,1,1,-4,-4,-9,2,-20,-24
4325,10,8,5,-12,18,8,26,16
4330,-12,-10,-10,58,15,-24,-5,37
4335,-5,1,4,-14,29,24,34,-37
4340,-11,-6,-1,0,6,-10,-28,-38
4345,1,-1,7,3,-2,-5,-6,23
4350,4,7,7,22,27,14,13,0
4355,3,-4,3,3,-15,-9,-5,24
4360,0,4,-5,-7,5,-2,-2,-4
4365,0,-2,6,5,-2,5,4,2
4370,2,6,-8,-13,-8,6,-1,-2
4375,4,-3,-23,32,36,-4,-25,-15
4380,-17,-16,29,-49,19,-13,35,-22
4385,-6,7,-4,-6,-47,-22,-37,24
4390,-2,2,9,-27,5,-3,-22,-27
4395,5,2,3,14,-8,-1,-1,3
4400,8,3,-13,12,1,11,29,23
4405,-3,-6,2,-3,13,7,14,-9
4410,1,0,-7,-5,10,5,4,3
4415,7,4,-1,-14,-21,-3,-6,28
4420,-16,-9,-12,2,-21,-23,-65,-5
4425,-13,-5,4,0,-7,-2,-5,-98
4430,2,3,-8,0,-31,-6,11,-38
4435,-6,-7,-2,14,11,5,44,76
4440,8,7,5,-16,-3,10,28,29
4445,10,5,2,5,6,3,-15,38
4450,3,-2,-5,23,19,2,0,2
4455,-7,1,-1,-37,9,0,-27,-79
4460,-8,-8,0,-7,0,-7,-4,30
4465,2,-2,13,35,50,19,13,-6
4470,-3,10,2,-22,-13,-20,-19,-30
4475,-4,-4,0,8,4,-4,-17,24
4480,4,4,-9,16,7,10,7,-2
4485,-1,-5,-6,-14,-6,2,8,10
4490,0,-3,-3,20,6,6,-2,14
4495,2,3,5,4,-14,-5,-4,-16
4500,5,0,-38,-6,-16,1,2,21
4505,1,1,19,35,-15,3,23,32
4510,2,1,17,-9,18,7,4,-19
4515,-17,0,17,30,8,-11,16,-54
4520,-3,-4,-6,-5,13,-7,-18,-4
4525,4,2,-10,-3,3,4,22,15
4530,4,-4,-12,-13,-6,7,9,30
4535,9,1,-2,0,-11,3,19,9
4540,6,6,14,17,1,8,7,0
4545,-6,-1,-10,-19,3,-7,6,-22
4550,-2,-2,7,39,-41,-3,-24,-6
4555,-3,-6,-9,-38,-6,-2,-7,26
4560,8,8,5,20,0,2,-11,-3
4565,-19,-18,-3,-20,15,-8,24,-51
4570,-5,5,-10,-14,-23,-5,-44,-17
4575,11,4,6,40,28,-2,-8,3
4580,-1,0,6,-10,-2,-6,-26,13
4585,0,-2,-29,-86,15,2,-6,-6
4590,1,-5,-2,-4,22,10,31,15
4595,-10,-6,21,47,17,-6,-19,-28
4600,-1,2,1,-3,-5,-5,-10,-35
4605,2,-1,2,25,-13,4,39,54
4610,-7,-7,-19,-27,7,-7,22,-18
4615,6,8,-9,-33,-29,-3,-7,20
4620,-1,0,6,11,-11,3,1,-38
4625,-1,1,3,10,3,0,-3,11
4630,2,-1,-11,-8,-11,4,-36,-14
4635,3,-2,22,48,10,9,86,54
4640,-6,0,-3,-74,35,-2,-11,-11
4645,3,3,-4,10,-22,-9,-22,-7
4650,-4,-11,8,-10,-3,3,-21,-25
4655,-5,5,-19,0,11,-4,-31,-23
4660,2,-7,-8,13,1,2,38,53
4665,3,3,7,1,-11,-3,5,21
4670,1,0,6,5,-3,1,-8,-21
4675,-1,-6,-58,-11,-18,1,-32,-14
4680,-1,4,71,59,-9,4,67,11
4685,-4,-2,-7,-13,11,-1,-11,-11
4690,-4,-1,-4,13,-2,-12,-34,20
4695,-6,-3,-3,-28,28,-5,-29,-56
4700,-1,1,-8,36,-13,2,2,16
4705,-2,-3,5,-19,-3,7,17,-37
4710,8,1,-8,7,43,8,52,67
4715,3,4,6,-44,-1,-1,-24,17
4720,-12,-11,-17,-16,7,-10,-36,-51
4725,6,12,-41,37,0,-9,-35,15
4730,0,2,77,17,-21,-1,25,6
4735,1,-6,-2,-17,-15,2,29,17
4740,3,0,-19,7,-36,-2,-13,-14
4745,8,3,-8,-27,25,3,31,21
4750,-2,0,-13,5,24,7,-33,-34
4755,-7,-6,2,-31,-28,-11,6,-1
4760,0,-1,1,-5,37,2,-12,20
4765,-4,-4,12,11,2,-4,-18,10
4770,-2,2,-21,-14,8,-1,-9,-12
4775,1,-1,24,18,-5,3,35,11
4780,-4,-3,-31,-20,7,-11,-49,-27
4785,2,1,7,16,-10,0,43,12
4790,-2,-9,-9,-40,-7,-2,32,25
4795,-2,7,-5,26,24,-8,-78,-35
4800,4,1,-1,-31,-49,6,67,-8
4805,-9,-5,11,12,1,7,-1,-28
4810,1,-1,-16,-15,-45,-15,-14,1
4815,4,-2,4,-9,-33,5,16,44
4820,3,0,1,29,73,5,10,20
4825,-1,1,-8,-21,27,3,-27,-29
4830,-4,-2,5,6,-13,-7,-6,-6
4835,3,2,3,-2,-19,-3,-14,4
4840,-3,-3,-18,12,6,5,11,-1
4845,2,1,29,11,-6,-4,-4,16
4850,3,4,-3,2,19,0,4,35
4855,-2,-5,-4,12,-3,-8,-16,-43
4860,3,5,0,0,-22,7,22,-10
4865,-3,-5,9,3,2,1,-5,65
4870,-4,0,-11,-4,3,-4,-9,-62
4875,4,3,3,26,-4,13,46,31
4880,-4,-10,-8,-14,-21,-9,-47,-9
4885,-7,2,3,-23,-12,-18,-72,-53
4890,-7,-11,-3,-47,-9,-5,25,13
4895,6,8,-5,-26,-8,2,-1,23
4900,1,3,7,14,42,-2,9,-10
4905,3,-1,-1,34,-2,12,29,27
4910,-2,-2,-11,7,52,7,-13,-30
4915,-7,-5,19,7,17,-4,-16,-54
4920,-2,-1,3,-10,-2,-3,-11,32
4925,1,1,-2,-8,-29,-7,16,2
4930,-3,-2,-24,10,0,-1,-10,-13
4935,1,-1,23,-1,0,0,-5,30
4940,7,7,10,33,-10,11,24,-16
4945,-2,-3,-4,-23,13,-5,-20,20
4950,-5,-4,-7,-1,-22,-7,-5,12
4955,-5,-2,-10,22,2,-7,-7,-24
4960,0,-1,5,-3,-13,-1,4,17
4965,7,-1,-16,-10,-9,3,11,24
4970,2,9,36,39,14,11,-4,-8
4975,-12,-11,-14,-1,-30,-14,-20,-52
4980,-2,-2,-2,-21,6,9,35,-2
4985,-2,-2,-2,9,8,-6,-43,-14
4990,5,7,-4,5,1,-4,1,40
4995,6,0,1,-7,44,3,22,24
5000,-1,2,-4,12,-28,1,-11,-7
5005,4,-2,-1,-25,36,10,51,80
5010,-13,-1,-3,-4,0,-6,-5,-80
5015,-5,-5,-9,-18,-6,-5,-4,7
5020,-3,-5,0,21,17,-8,-27,-13
5025,5,6,9,9,-15,2,4,-3
5030,5,-2,6,12,2,5,16,32
5035,1,-3,-17,-19,-16,-1,-10,-14
5040,1,0,-2,0,6,2,30,9
5045,-1,-2,5,20,-31,-19,-67,-46
5050,2,-3,-23,-15,10,0,30,18
5055,7,10,19,-20,-27,13,50,81
5060,-1,-2,-7,11,47,-2,-26,-26
5065,-11,0,36,-8,20,-2,35,-63
5070,-2,-4,-12,-14,-9,-10,-64,-22
5075,2,-4,-7,1,-12,-6,-14,2
5080,3,2,11,-11,-5,7,18,27
5085,6,2,-15,7,-12,6,-3,8
5090,-8,-6,0,7,-11,-11,-22,-32
5095,-2,1,12,11,22,1,-23,5
5100,-6,-3,-12,-27,-27,-8,3,-12
5105,4,-5,1,41,-18,4,16,40
5110,-9,-1,4,-37,6,4,3,-58
5115,2,-2,-9,3,-3,2,16,43
5120,-3,-3,-1,-11,-8,-6,0,-22
5125,4,5,-7,-2,-55,-1,-45,-4
5130,6,4,9,9,-7,-3,-29,38
5135,-9,-14,-12,1,3,-8,-19,-29
5140,-5,11,12,7,-26,-10,0,-35
5145,-2,-4,-11,-11,32,-5,-21,1
5150,4,0,6,-10,45,16,76,44
5155,2,-6,-5,2,-8,3,-17,-11
5160,-5,-5,-2,5,-6,0,10,34
5165,-7,-4,-3,-3,-6,0,-10,-38
5170,7,3,5,29,9,-3,51,37
5175,-5,-4,-17,-17,5,-4,-64,-10
5180,-3,-1,14,16,9,-6,-29,-2
5185,-2,-3,-21,-24,-2,-4,33,-40
5190,-9,-10,5,5,-26,-8,-42,-31
5195,8,16,6,-2,-2,13,34,26
5200,4,0,-9,-9,-11,-3,-13,2
5205,-3,-3,3,4,4,2,-17,-4
5210,7,3,-8,34,-9,5,51,50
5215,-6,-7,-1,-35,-1,-1,10,3
5220,-3,-3,-11,-18,5,-4,-9,-22
5225,-12,-1,-16,13,18,-16,-43,-62
5230,0,-7,26,19,-4,4,-9,55
5235,-7,7,-9,19,44,0,7,-79
5240,7,1,-5,-9,-30,6,63,82
5245,1,-3,8,-26,25,5,-21,-5
5250,-11,-5,1,-6,3,2,-20,-49
5255,-5,-2,26,15,-16,-15,-35,1
5260,1,0,-20,-16,-7,8,3,-47
5265,-1,2,19,34,39,-6,-27,-45
5270,1,4,-1,-16,-59,4,2,-26
5275,-5,-7,-9,-2,26,5,18,-6
5280,4,-1,2,2,1,-3,18,88
5285,0,-1,1,12,10,1,8,5
5290,7,2,-24,1,-16,-16,-23,25
5295,-2,-1,8,-16,9,0,-3,-54
5300,4,-1,7,0,20,8,27,44
5305,-13,-8,-17,-22,-26,-21,-65,-31
5310,8,1,-7,1,23,14,26,64
5315,-2,-3,3,-18,-29,4,33,20
5320,-3,-1,18,10,14,2,-59,-45
5325,-4,-12,-1,-14,-31,-9,10,4
5330,1,13,-17,-5,-13,-6,-15,-12
5335,10,5,18,22,2,-1,53,32
5340,-7,-8,-11,13,-61,-5,41,0
5345,-4,3,6,8,23,2,-40,-31
5350,-5,-7,-9,-37,3,-2,-40,-46
5355,6,1,-25,2,-12,11,64,60
5360,0,0,28,-7,21,-3,-31,-45
5365,10,4,-13,-18,-87,0,43,67
5370,0,1,21,8,4,1,15,12
5375,-7,-4,-8,-11,0,-4,-35,-34
5380,-5,-3,-6,-15,2,-4,-21,-20
5385,6,1,-3,10,4,4,35,59
5390,-5,-2,-4,-16,-4,-2,-28,-86
5395,-6,0,18,37,0,-11,15,40
5400,-9,-4,-17,-32,-6,-7,-22,-62
5405,-3,-1,6,-1,29,10,38,39
5410,3,-5,-4,8,-78,-4,24,35
5415,1,-10,-10,-28,9,2,-43,-36
5420,6,13,-11,-15,-15,0,6,18
5425,-2,-2,2,-10,12,3,30,53
5430,-2,-3,23,0,22,0,-18,-38
5435,-13,-3,0,11,-13,-10,-62,-50
5440,1,-1,-1,10,9,-3,16,10
5445,9,3,-12,-12,6,10,54,22
5450,-7,-2,-15,7,-34,-1,-55,-7
5455,-3,-5,6,11,-4,-9,15,-5
5460,1,-1,-2,0,11,4,1,5
5465,-3,3,6,11,3,1,3,7
5470,-4,-2,-2,-5,29,-3,26,5
5475,5,2,-7,9,5,4,-24,-13
5480,2,3,-3,-2,-33,-4,-22,33
5485,5,5,17,24,79,17,18,-44
5490,2,-2,-12,-19,27,-2,-9,17
5495,1,1,-9,-20,-25,-2,-9,-3
5500,-6,-13,9,-1,-9,5,68,30
5505,0,12,-10,-27,16,0,-31,-23
5510,1,0,6,16,15,-4,-8,8
5515,2,5,9,26,-15,-6,-17,5
5520,8,5,-7,-8,25,10,24,20
5525,-3,-4,-5,-1,-38,-1,11,-11
5530,-1,1,18,2,7,-1,46,-34
5535,5,4,-10,-11,-8,1,-30,46
5540,-4,-2,3,25,7,1,-33,-22
5545,1,-1,-5,-1,-33,-5,-4,-3
5550,1,3,-1,17,3,-1,28,9
5555,5,-3,-5,-43,17,1,11,10
5560,-5,-5,-20,-17,-4,0,-1,5
5565,2,3,25,9,-18,-1,8,13
5570,-7,-8,-8,-22,-26,-6,3,-22
5575,-1,-5,4,35,3,-3,2,40
5580,-4,9,3,4,7,-3,-47,-88
5585,4,-4,-9,-37,-5,6,52,26
5590,5,1,-5,5,3,10,-4,62
5595,-7,-3,-6,4,-6,2,-14,-42
5600,5,-5,2,-5,13,-5,26,42
5605,-11,-5,-13,57,-2,-7,-27,-63
5610,-3,3,11,-7,25,5,17,-8
5615,9,3,-8,-14,-6,-1,-4,26
5620,-7,-3,11,26,15,-6,-10,-31
5625,4,0,-22,-44,5,1,-8,7
5630,1,-1,15,-19,-23,-3,0,69
5635,-12,-4,-10,-5,0,-10,-36,-57
5640,0,-2,0,21,-1,3,-21,-36
5645,-10,-2,-9,6,-34,-22,-46,-47
5650,7,-6,5,4,53,15,24,91
5655,-7,7,-3,-21,9,12,75,-22
5660,-1,-1,2,-6,-4,-10,-11,20
5665,4,-2,-4,2,0,4,4,15
5670,-6,-1,-17,21,6,-6,-53,-59
5675,4,-1,25,-12,-28,-7,-7,40
5680,-11,-5,1,-13,27,-4,-8,-50
5685,4,-2,17,8,5,3,38,56
5690,-2,4,-35,-18,11,-4,-55,-53
5695,2,0,23,31,12,6,65,71
5700,2,2,-7,-14,-12,-2,2,-15
5705,-3,-6,3,-9,-5,-6,-44,13
5710,-2,-1,-3,18,4,-10,32,-25
5715,2,-1,-12,10,7,0,-19,-54
5720,5,4,-13,-49,0,-1,-20,76
5725,-15,-6,19,38,14,4,10,-96
5730,5,0,0,9,-24,-4,-12,41
5735,0,-3,-11,-46,-30,2,33,51
5740,-8,-4,4,10,59,-9,-54,-63
5745,7,-2,-1,13,3,9,35,39
5750,3,7,-1,6,-2,-2,38,-11
5755,-3,-2,-4,-17,1,-2,1,-30
5760,0,-6,-8,12,5,-5,-10,26
5765,1,3,-14,-22,-56,13,10,2
5770,-5,-7,9,5,2,-12,-71,-23
5775,0,2,16,19,31,6,16,-20
5780,4,2,6,3,-37,3,24,16
5785,1,-3,3,-25,60,0,16,55
5790,0,1,-9,2,-36,3,-15,-26
5795,-1,0,-14,-8,-5,-2,7,-10
5800,4,0,14,32,4,-4,-18,23
5805,-8,-4,-6,14,3,-4,10,-45
5810,1,3,-2,-33,-13,-5,17,19
5815,3,-1,-1,14,-1,4,-15,4
5820,-1,-3,-6,-5,-15,-6,-8,-3
5825,0,2,-2,-6,-5,0,5,8
5830,-3,-2,6,-1,-11,1,27,-11
5835,6,2,-12,14,8,7,19,53
5840,-5,0,10,-8,-14,1,17,-70
5845,-5,-5,0,20,-4,-11,-27,37
5850,-3,0,0,-7,20,4,-5,-37
5855,3,-2,-9,-5,-10,-6,-10,18
5860,5,1,15,9,6,4,36,38
5865,-2,-7,-2,-16,-6,-1,-15,-13
5870,11,10,-16,9,-3,10,10,-2
5875,-9,3,4,-5,12,-2,-16,-61
5880,-5,-2,-1,-8,-18,-16,18,12
5885,-10,-6,-4,-13,-41,-3,-51,-48
5890,3,-7,-16,-9,-3,4,40,59
5895,1,-2,7,10,0,1,-2,17
5900,2,0,-6,-3,-3,8,9,7
5905,7,3,5,1,8,-2,-7,17
5910,3,3,2,0,8,-3,8,7
5915,-7,-4,-16,1,-18,-21,-50,-38
5920,-7,-1,12,19,60,8,-38,18
5925,-11,1,2,0,8,0,7,-68
5930,-4,-6,4,-2,6,8,16,7
5935,-1,-1,-1,6,7,0,11,-7
5940,5,-1,-8,-7,-9,6,-5,43
5945,8,5,-3,-5,0,-3,-6,15
5950,-1,4,9,2,1,2,-2,-11
5955,4,6,5,16,-18,1,-9,-3
5960,0,-3,-35,7,23,9,10,20
5965,-12,-2,35,-22,19,-5,17,-47
5970,-5,-7,-10,14,66,-16,-20,-2
5975,-7,-5,13,2,18,9,52,-2
5980,-1,1,-4,6,-15,-8,-37,-43
5985,15,7,-14,3,-12,10,28,80
5990,3,0,14,-6,9,2,-15,-13
5995,-4,-4,-12,-5,0,-9,10,4
6000,-1,-1,2,-3,-17,5,2,-8
6005,-1,-1,-3,-4,-52,-9,-35,-27
6010,-1,-3,-5,-9,-24,-3,16,33
6015,1,2,-3,9,-2,0,-9,-15
6020,-6,-2,8,-9,-31,1,-1,-3
6025,3,0,-9,2,14,-8,-6,39
6030,-10,-11,2,17,-14,-1,17,-40
6035,0,6,-1,-3,-20,1,-39,-25
6040,2,2,-6,-3,24,-2,17,11
6045,2,-3,2,-15,-8,-3,-36,-18
6050,1,2,16,17,10,7,73,55
6055,-3,-7,-3,-16,3,-10,-52,13
6060,-5,0,13,30,-11,-13,-6,-79
6065,-3,0,-5,-5,4,-1,-7,57
6070,-1,-2,-6,-29,1,4,-10,-43
6075,-7,-7,-6,-14,-11,1,-41,-31
6080,11,5,-1,-10,-9,8,52,67
6085,2,1,-7,36,35,-3,-15,-31
6090,-12,-4,-8,9,44,0,15,5
6095,6,4,22,32,11,7,39,40
6100,-4,-2,-2,-26,-12,-3,-36,-34
6105,0,2,-2,3,13,4,-6,-9
6110,2,-2,-9,-4,-12,0,-11,35
6115,1,8,0,3,12,0,12,-55
6120,2,-8,-14,15,-1,-6,11,53
6125,-3,5,38,33,1,-3,-28,-19
6130,-5,-2,2,-22,-29,-7,-27,-30
6135,-1,-8,-8,-13,-10,-6,-30,10
6140,3,1,-2,-11,-23,5,82,26
6145,4,0,-11,-11,15,3,-6,-11
6150,-2,1,5,17,-8,-4,-47,-56
6155,4,-3,-12,4,3,3,31,99
6160,-6,-1,9,2,-18,8,0,-59
6165,0,-2,-6,10,32,-4,-7,7
6170,-2,0,6,3,-11,1,15,4
6175,1,-3,-11,-12,1,1,31,-3
6180,-2,-4,-14,1,-5,-4,-28,6
6185,2,0,20,-7,-25,2,-20,20
6190,2,5,-3,-12,28,-1,-28,-42
6195,-3,-2,-2,22,18,0,26,5
6200,-3,0,6,-5,8,-5,-43,-10
6205,-1,0,-11,-2,-11,9,43,5
6210,-3,-5,-9,-12,1,-5,7,10
6215,1,-1,6,-9,-2,3,-15,-16
6220,8,7,0,-14,-13,4,4,45
6225,-4,0,-30,19,41,-10,-34,-33
6230,-3,-2,14,11,-21,-1,46,22
6235,0,0,-4,22,1,-5,20,2
6240,1,4,8,-21,-4,2,-7,-14
6245,-3,-4,-14,-11,-9,-3,5,-1
6250,5,-1,2,1,-23,0,-6,34
6255,2,0,1,5,-7,1,-11,9
6260,7,4,-1,12,26,17,11,-37
6265,-17,-10,0,-23,-37,-30,-11,9
6270,-1,-5,-9,-1,0,-6,-27,-3
6275,-2,2,13,1,-6,-10,-28,-37
6280,-5,-6,-4,-36,4,-1,25,42
6285,2,-1,1,-13,-6,10,11,-1
6290,2,2,0,-5,-15,-2,-14,0
6295,4,-1,-4,-12,4,1,1,-11
6300,0,11,3,10,-3,-7,-26,-5
6305,8,-2,-1,4,-9,15,34,10
6310,-13,-5,-7,12,9,-8,16,-6
6315,-7,-6,9,-48,18,3,-15,-34
6320,-6,-5,-3,11,-65,-15,23,23
6325,0,1,-4,-11,1,0,-11,11
6330,12,5,5,2,-3,9,-32,-12
6335,0,-2,-11,-5,-10,4,47,51
6340,1,-1,0,-3,-13,-8,-23,-51
6345,-1,0,10,14,45,0,-59,4
6350,1,-2,-9,9,-11,5,-18,-32
6355,-5,-1,-1,0,-1,0,67,37
6360,-1,-1,1,0,6,-1,-27,5
6365,2,1,-3,-10,-19,-1,27,18
6370,-2,-1,3,-3,0,-1,-43,-33
6375,6,-2,-3,-5,-9,1,-3,38
6380,-11,5,2,11,22,3,12,-31
6385,3,-1,-1,-2,-17,-2,-28,-37
6390,-8,2,0,6,4,-12,16,-2
6395,0,-6,-4,-22,-12,-3,2,3
6400,3,-4,-1,4,13,7,27,38
6405,-2,1,5,26,-4,-8,-36,-7
6410,5,-2,-8,-15,-6,2,50,26
6415,2,4,-3,-6,-5,-3,-25,-13
6420,1,-2,9,25,23,6,-3,12
6425,-1,3,-2,-17,25,5,45,-14
6430,-5,-3,3,-4,-16,-5,-7,2
6435,-8,0,0,12,23,0,-36,-48
6440,-2,-3,-3,10,-3,-6,-34,-7
6445,2,-3,-3,-27,8,11,64,26
6450,5,2,-1,-2,-1,6,14,26
6455,-4,-3,-59,-1,14,-6,-43,-17
6460,-2,-8,67,51,-25,-12,31,-4
6465,-4,9,5,30,-1,4,24,4
6470,-6,-3,-8,-30,10,-12,-13,-16
6475,-8,-4,4,4,-22,-9,-16,-18
6480,0,-7,-26,-17,11,4,15,26
6485,2,-1,-7,-5,-12,3,2,-1
6490,7,3,6,11,1,4,-8,54
6495,-4,-1,10,8,-7,3,3,-87
6500,5,4,-9,-5,1,-5,-2,30
6505,-3,-10,-5,-65,-49,-1,72,27
6510,1,3,-29,-3,1,13,34,-13
6515,-2,-1,39,2,6,-4,-34,45
6520,-5,2,-3,-16,-6,-13,-85,-59
6525,0,1,-8,0,-2,1,-2,22
6530,4,-3,7,13,-8,3,28,-4
6535,4,1,-8,-6,-1,8,-3,-4
6540,-3,2,-30,-21,-27,-6,10,-12
6545,-1,-3,30,58,4,5,9,26
6550,-6,3,2,-33,-5,-3,-54,-50
6555,6,8,2,-6,19,11,29,45
6560,-6,-10,-10,-6,5,-7,23,14
6565,-6,-3,-10,-6,-4,-15,-77,-47
6570,-2,-5,4,6,-6,-4,-16,-8
6575,5,4,3,-4,-12,-4,9,4
6580,0,0,-3,-10,3,5,0,-18
6585,0,0,1,9,-2,-3,-13,18
6590,-6,-2,-1,40,-27,-3,45,21
6595,2,-1,19,-11,3,11,-9,-34
6600,-9,-11,-11,3,10,-17,-43,-30
6605,-3,-5,-8,0,-3,7,50,33
6610,2,1,0,-3,0,-2,-19,8
6615,1,2,-2,17,-9,1,68,32
6620,2,1,2,-7,3,9,-18,-22
6625,1,6,2,-9,10,-3,-37,-30
6630,-4,-5,-4,-3,3,-4,-35,0
6635,-3,-2,-4,11,2,-6,-33,-15
6640,1,-1,3,-11,16,7,21,4
6645,1,-7,-7,0,-7,-6,40,9
6650,3,13,6,0,14,4,0,15
6655,-6,-3,1,3,11,-6,-25,-28
6660,-5,0,-1,-4,-15,0,1,8
6665,-1,-2,-6,2,26,11,18,-1
6670,0,-4,11,21,1,-5,7,3
6675,-8,-3,-6,-21,-9,-5,-27,-24
6680,4,1,-8,-2,-9,10,46,38
6685,1,1,-5,8,18,-10,-60,-43
6690,-2,1,10,-18,-22,-2,12,8
6695,-3,-2,-5,11,16,-1,17,21
6700,-3,-6,-4,6,20,-1,1,-22
6705,-2,-5,-6,-5,-40,-10,-21,6
6710,1,6,-10,-15,15,9,-4,-35
6715,3,1,28,19,0,-6,-20,32
6720,5,4,-1,5,10,15,24,6
6725,-2,1,3,-4,2,-5,-21,1
6730,-3,-8,-19,-15,2,-6,19,-7
6735,-1,1,-9,-11,-13,9,66,22
6740,5,1,8,19,15,4,-13,10
6745,-3,0,-7,-11,-3,-6,-26,0
6750,0,0,8,26,-3,-8,-34,-11
6755,-3,-4,-7,1,1,-4,30,-39
6760,1,1,-4,-12,-18,-2,-21,24
6765,2,3,2,-8,5,6,42,-5
6770,-2,-3,1,13,0,-5,-1,-1
6775,1,-5,-3,1,2,-7,16,22
6780,1,3,-24,-17,0,-1,-1,-7
6785,1,0,24,1,-3,6,17,15
6790,-2,-2,2,-4,11,-9,-69,-8
6795,3,3,-8,16,-30,4,-5,-25
6800,-3,-1,6,5,68,-4,12,36
6805,-1,3,-5,9,-18,4,12,-2
6810,2,-10,-1,-15,7,5,31,16
6815,1,9,-3,-8,-16,3,-16,20
6820,-9,-4,1,0,4,-6,-32,-76
6825,-4,-4,-5,-9,-15,-11,-9,5
6830,1,-2,-23,25,28,-1,-9,18
6835,-1,-3,10,9,-16,-5,16,-38
6840,6,9,19,-26,-5,4,-14,8
6845,-3,-2,2,-9,14,4,8,-13
6850,-6,0,-13,-25,-18,-4,-46,9
6855,6,0,-6,-7,7,4,-4,-1
6860,-8,-6,-28,5,9,-4,11,-7
6865,3,0,30,-11,-4,-3,-25,18
6870,-2,-2,-3,-10,1,2,44,-16
6875,-8,-2,11,1,17,-1,-46,-31
6880,2,2,0,-11,-27,2,60,36
6885,-1,-1,-18,2,6,1,-31,-26
6890,4,1,7,1,-12,-2,34,31
6895,1,-1,4,-11,-2,6,-17,26
6900,-1,-6,-2,34,3,-8,0,6
6905,-2,8,-6,4,-88,-15,-17,-33
6910,-3,-3,6,-6,19,6,9,7
6915,-1,-2,-6,0,3,-3,5,-1
6920,-1,-3,9,7,9,1,-30,-6
6925,0,0,-6,0,19,1,38,6
6930,8,6,8,6,-3,12,24,39
6935,-4,-6,-9,0,-9,-7,-44,-29
6940,-2,-4,3,3,-36,-2,1,0
6945,-2,-5,-12,-47,19,-2,-16,-4
6950,-2,2,10,18,38,10,-19,-46
6955,-5,-6,-21,-19,5,-10,52,49
6960,1,7,21,-7,-11,1,-31,-20
6965,-1,-3,-1,10,2,3,16,3
6970,5,1,-3,3,-8,0,-21,-10
6975,1,0,-4,-2,2,-2,21,8
6980,9,6,-2,-3,-4,8,47,13
6985,-13,-19,-14,19,23,2,-32,-22
6990,-6,6,1,-11,-55,-8,15,-3
6995,-2,0,11,29,7,-3,10,-25
7000,-10,-9,-9,-58,-48,-4,-3,3
7005,4,5,7,17,37,6,25,10
7010,2,-1,-4,-5,-2,-2,2,-17
7015,3,3,-2,-4,-6,3,-20,27
7020,3,0,-1,19,3,2,20,-4
7025,-1,-3,-5,-10,-7,0,11,9
7030,-9,-4,2,-1,0,-14,-16,-16
7035,5,1,-21,-18,-15,9,18,-6
7040,-3,-2,24,16,26,-1,11,13
7045,-1,8,6,-1,-10,-2,-5,-36
7050,-3,-3,-11,-9,-4,-8,-42,-1
7055,7,0,18,9,4,2,56,46
7060,-4,-2,-11,-35,-5,-2,-22,6
7065,4,0,-1,17,-6,0,19,-20
7070,2,-5,-5,6,-1,0,24,101
7075,-5,2,9,-12,-9,-11,-78,-94
7080,-7,-1,-8,0,-7,-8,-4,-36
7085,3,0,7,4,2,2,30,41
7090,-1,2,-1,-11,31,6,18,0
7095,-1,-7,-3,6,-26,-1,43,30
7100,1,-1,5,9,4,-4,-92,-31
7105,-4,0,-6,-7,1,1,30,-19
7110,7,1,7,15,1,5,-2,2
7115,-8,-2,-6,-12,22,-6,2,6
7120,-1,1,-1,4,-4,7,48,22
7125,1,-1,2,6,19,-6,-73,-34
7130,6,5,1,-18,-6,18,50,24
7135,-3,-1,0,-11,-17,-20,-63,-10
7140,-3,-1,-6,4,40,2,3,12
7145,-5,-4,-3,-7,-34,-7,-3,-9
7150,3,-1,3,1,20,11,15,-3
7155,6,3,-10,-5,12,10,-32,17
7160,-13,-6,-2,-3,0,-20,-56,-100
7165,10,10,-4,16,2,8,49,71
7170,-2,-6,7,-3,8,4,10,-16
7175,3,2,1,7,-1,7,21,40
7180,4,-2,-3,0,-1,-3,0,27
7185,2,-1,-1,0,2,-2,-15,24
7190,-11,-2,6,-24,3,-13,-42,-89
7195,5,-2,0,45,27,9,47,24
7200,5,1,-2,-33,-23,13,44,43
7205,-1,-3,-3,25,20,-8,-35,-33
7210,-7,-4,-8,-25,-2,-13,-29,-14
7215,-3,1,3,-5,-15,5,35,-7
7220,2,1,5,21,1,9,4,19
7225,3,-1,-5,-7,4,1,12,30
7230,3,-2,-2,10,-12,-3,-26,11
7235,-2,-1,2,-5,-3,-10,-28,-48
7240,4,3,-9,-3,6,1,28,42
7245,-9,-4,12,-36,-7,-4,-43,-54
7250,-7,-5,1,27,1,-10,36,-9
7255,-4,-4,-6,-29,15,7,-2,-20
7260,11,5,2,18,-23,-10,20,29
7265,-3,1,-14,-10,6,3,-28,-19
7270,1,-3,1,6,-24,-8,-2,-1
7275,-2,-3,-4,-11,-10,0,-7,18
7280,-2,-9,-31,-7,35,8,-13,-6
7285,7,8,31,30,-62,-18,-32,-6
7290,-1,4,-3,-34,-10,2,19,24
7295,-5,-3,5,7,17,-2,-28,-35
7300,-6,-4,-7,-3,-13,0,22,-5
7305,1,-3,-13,-11,12,9,22,9
7310,7,0,4,3,2,-1,5,17
7315,4,0,-8,4,-2,-3,-18,15
7320,0,3,25,-2,-1,3,-16,-30
7325,-2,2,7,30,4,-1,21,7
7330,-4,-7,-4,28,-15,-10,24,2
7335,-6,-5,-2,-45,33,4,-33,2
7340,-7,-10,-10,12,5,-13,-21,-16
7345,-2,10,-2,-4,20,11,4,-3
7350,8,7,7,25,-52,0,-23,-14
7355,3,2,-45,-4,-46,2,23,-8
7360,10,-2,57,-4,1,2,29,102
7365,-14,-13,-9,19,14,-8,12,-93
7370,-1,0,-9,-60,3,4,10,17
7375,-2,0,5,8,-6,-8,-19,3
7380,1,2,-7,-2,-16,1,-4,-12
7385,-4,-8,-4,-16,2,2,0,1
7390,0,1,-1,13,4,1,4,-1
7395,2,3,13,-13,6,-2,-5,-9
7400,1,2,-14,-20,8,3,5,1
7405,3,0,8,5,0,8,13,40
7410,-4,-4,-10,-12,10,-4,-18,-45
7415,-3,0,1,5,-5,-5,18,21
7420,-1,0,5,19,-5,-6,-24,-5
7425,-2,2,-8,-19,-8,-6,-33,42
7430,-4,-12,4,8,16,11,8,-55
7435,-1,8,6,9,-17,0,32,17
7440,0,-2,-16,-22,-51,-2,-1,0
7445,-1,-1,1,9,47,2,-16,-29
7450,0,0,0,10,9,-5,-37,20
7455,0,-3,2,8,-1,-5,-12,-15
7460,-4,0,-5,-4,-12,0,-2,-26
7465,-2,-3,-2,-8,-18,-9,10,13
7470,5,1,-3,-14,19,4,29,56
7475,-3,-2,3,-3,-32,7,-16,-47
7480,-5,4,4,27,1,-8,-37,-19
7485,4,-7,-15,-32,0,9,80,28
7490,-2,3,4,13,-6,-11,-58,-16
7495,-2,-1,26,14,11,-2,25,30
7500,-4,-3,-7,1,11,0,-41,-25
7505,1,-7,-13,10,-39,-3,58,10
7510,-3,12,8,5,20,-6,-26,3
7515,7,2,13,-2,-45,-2,-1,29
7520,0,-2,-4,8,15,4,-20,-32
7525,-4,5,5,-10,-24,-3,27,-24
7530,-1,-4,-8,5,14,8,-8,37
7535,-7,-9,-12,-11,26,0,-32,-21
7540,3,6,8,1,12,1,56,-4
7545,4,-1,-4,12,-6,-4,-51,24
7550,-7,-3,-3,-17,-24,-6,17,-24
7555,-2,3,-1,0,23,-1,-12,-31
7560,-1,-3,-3,7,-38,0,1,29
7565,-3,-1,3,-12,14,11,61,19
7570,0,2,4,8,-8,3,-31,-32
7575,-3,-5,4,42,16,-14,-19,31
7580,-2,-3,-26,-59,10,-2,24,-40
7585,4,4,18,14,5,-2,-14,2
7590,1,1,-27,-7,-16,10,30,11
7595,3,2,39,26,23,15,27,17
7600,-6,-5,-16,-27,-56,-17,-15,-15
7605,-4,-8,-3,-3,-3,-14,-92,13
7610,-4,8,0,-2,15,-5,9,-51
7615,3,1,-20,-24,-7,4,33,34
7620,-8,-6,6,19,8,4,28,3
7625,0,2,6,-10,-1,-1,-10,-11
7630,-3,-9,-2,0,8,-9,-39,4
7635,-2,-1,-7,-3,-9,-6,23,-18
7640,0,0,-4,18,11,-1,-38,11
7645,0,-2,-1,-14,-3,1,34,-4
7650,0,-1,10,6,3,4,-2,-4
7655,-2,-3,-12,-3,2,-1,26,-2
7660,3,0,4,27,19,-5,-42,17
7665,6,7,4,-28,28,4,-4,-8
7670,-8,-6,-19,-34,-18,5,41,-23
7675,-6,-4,3,0,19,-3,6,5
7680,-2,1,19,9,3,-2,-7,-4
7685,-5,-2,-4,11,4,2,-13,8
7690,8,2,9,28,-9,-3,27,39
7695,2,-6,-16,-39,-3,2,-35,-12
7700,-2,4,-2,1,10,-5,-30,-47
7705,-2,3,-21,7,-7,2,16,0
7710,8,1,33,11,26,6,-14,21
7715,-2,-1,-5,22,-13,-12,12,48
7720,-9,-9,-2,-25,4,-7,-72,-80
7725,-5,-6,-10,-6,-8,-7,13,-9
7730,0,-2,3,10,-6,6,49,20
7735,2,1,2,0,5,-7,-21,-11
7740,8,8,-4,4,9,3,19,18
7745,-7,-4,-2,-26,-7,3,12,0
7750,-6,-5,-12,-9,-14,-11,-34,1
7755,0,-2,-4,-8,-1,-7,-20,-10
7760,1,-2,-9,-6,37,11,39,29
7765,5,1,8,19,15,10,5,-8
7770,-4,-1,-9,-10,-7,-8,1,-6
7775,-6,-13,20,-3,-19,2,7,-18
7780,6,13,-4,2,-57,-6,22,23
7785,6,4,7,28,21,6,-21,-10
7790,-4,-4,3,-6,-10,1,-21,12
7795,-1,-1,-14,-2,1,-11,6,0
7800,-2,-5,2,2,11,0,31,4
7805,4,5,10,5,-6,5,15,21
7810,2,-1,-21,7,-11,-6,-48,-56
7815,2,3,6,15,7,15,0,31
7820,-11,-3,5,-17,-3,-4,55,8
7825,1,-3,-7,-13,-5,-5,-15,-21
7830,-4,-4,-4,0,1,-4,33,13
7835,-2,0,-8,20,-9,-1,-18,-2
7840,5,-1,5,8,2,6,-4,11
7845,-1,-1,-2,-8,-3,-4,-45,-21
7850,-4,-4,2,17,36,-3,22,-4
7855,15,10,4,-8,-28,9,15,28
7860,-7,-10,5,-14,24,17,8,-10
7865,-6,2,-10,-6,15,-4,57,23
7870,3,4,1,1,6,-1,-33,-9
7875,-8,-4,9,20,0,-2,2,-23
7880,2,1,-6,5,-4,-2,-12,-2
7885,1,-4,-3,0,-8,6,-24,-5
7890,-2,1,4,0,-22,-11,-34,-8
7895,5,3,-15,-28,36,4,24,32
7900,-7,-7,-5,18,0,0,9,-2
7905,-10,-4,9,-3,-5,-17,-54,-46
7910,0,-1,-18,-30,-16,-1,-32,15
7915,-8,-4,14,-1,15,4,26,-42
7920,0,-2,-1,5,2,0,-10,5
7925,3,-2,-2,-2,-2,2,22,19
7930,0,1,6,5,9,-6,-9,-14
7935,-2,-2,-30,-16,22,0,-30,-14
7940,11,9,22,-14,4,-3,-32,29
7945,-6,-7,-4,15,-30,1,61,20
7950,-3,1,1,13,23,9,-24,-39
7955,-1,-4,-5,-3,0,-9,-14,-2
7960,-5,0,0,8,-6,-8,-36,-40
7965,8,8,0,-3,-6,1,45,34
7970,1,-1,5,12,1,3,12,25
7975,-5,-8,-23,-29,-19,-8,-9,-23
7980,-1,0,14,21,7,1,5,13
7985,0,-6,-15,-8,-18,6,14,7
7990,7,5,29,9,26,4,66,67
7995,-5,2,-3,8,-13,-5,-26,-51
8000,-7,-9,-12,-10,-14,-6,-1,-26
8005,1,1,7,3,15,-2,-64,1
8010,-4,-3,-8,2,-27,-1,-11,-10
8015,2,-2,1,-34,59,0,13,27
8020,7,4,-13,2,-26,10,28,18
8025,-4,1,17,30,-7,-13,-36,-34
8030,2,-1,-2,3,36,13,70,59
8035,-4,1,15,4,4,10,-2,-66
8040,-1,4,-6,-26,-3,-3,13,45
8045,-1,-6,-15,12,10,-4,-8,-4
8050,-3,2,0,-8,-27,-12,-43,-17
8055,0,0,7,17,-8,0,-11,20
8060,1,-2,-20,-10,-5,8,45,-12
8065,-6,-1,6,0,-7,-2,-15,-27
8070,5,0,-14,-9,14,5,37,-5
8075,4,4,22,10,-20,1,-1,34
8080,-2,1,-11,-4,4,-5,-1,-18
8085,-3,0,7,17,7,6,-10,1
8090,-1,-1,-1,-24,-35,-4,-4,-9
8095,2,2,-8,16,11,1,-3,25
8100,-1,-6,0,-10,-2,-10,-13,1
8105,2,0,1,-4,7,3,4,-7
8110,-3,-3,-7,-7,-10,3,-1,-4
8115,2,-3,2,-5,10,-3,72,32
8120,2,7,16,30,11,-7,-47,-21
8125,-8,-5,-8,-19,44,4,79,-24
8130,2,-9,-2,-17,-42,-9,-84,36
8135,-15,3,-5,-16,-4,-9,-34,-90
8140,5,-1,2,13,12,6,6,50
8145,2,-2,-14,-19,-10,-6,-34,0
8150,2,1,12,13,16,6,73,-3
8155,2,-6,-25,18,-14,4,16,59
8160,-6,-4,23,-20,-14,-6,-1,-35
8165,-1,3,0,-14,-15,-2,-18,9
8170,-6,-4,-7,2,-2,-3,28,-28
8175,2,3,0,4,-17,-8,-16,-25
8180,-2,0,-4,1,1,2,-35,-16
8185,6,-4,-12,-19,-4,0,-1,27
8190,-5,0,7,23,17,-7,-6,-22
8195,1,0,-18,4,-55,-5,8,4
8200,-3,2,16,13,45,7,41,6
8205,4,0,22,-29,-7,0,-25,18
8210,0,2,-10,-5,6,3,-23,-1
8215,-11,-5,1,25,21,-8,-35,-50
8220,2,-6,-17,-34,-4,5,6,8
8225,5,1,12,5,-10,-5,-62,0
8230,-5,1,8,-16,-25,-7,55,8
8235,9,4,7,-1,25,11,-7,37
8240,-3,2,-5,11,-17,-11,26,-8
8245,-8,-3,0,4,9,-3,-36,-34
8250,1,-2,-12,-4,-3,4,6,11
8255,-1,0,4,5,-2,-1,6,35
8260,-3,-4,-3,-8,2,6,20,-16
8265,-6,4,-13,-7,-12,-13,-25,-11
8270,1,-4,1,-3,-52,0,50,29
8275,-7,1,5,-1,20,-1,-18,-47
8280,5,-1,-2,19,1,1,-24,5
8285,-2,-6,-7,-17,11,-1,31,23
8290,6,4,0,8,10,-2,-59,-21
8295,-6,-7,-15,-24,-35,2,51,27
8300,-4,0,17,10,15,-12,-3,-10
8305,-1,-2,-5,13,6,6,19,39
8310,-4,1,3,4,18,3,-10,-43
8315,9,-2,-30,-2,-13,4,-12,57
8320,-1,6,31,-12,9,-13,-27,-66
8325,-6,-1,15,36,-27,-1,-8,-27
8330,1,2,-4,-1,15,6,43,36
8335,-2,0,14,2,-4,-4,-26,-1
8340,-1,-5,-20,-10,4,4,15,25
8345,0,-9,0,2,5,0,10,-9
8350,5,12,-2,10,0,-2,-27,-10
8355,1,1,6,-31,-41,-4,-10,6
8360,0,-1,-6,14,21,3,-2,15
8365,-2,-2,-1,2,5,10,42,-8
8370,-9,-10,-10,3,-6,-6,-33,-9
8375,-3,-2,3,-15,13,-5,-13,8
8380,-4,-2,-8,4,-17,2,-9,-44
8385,10,2,-22,-8,-11,3,30,33
8390,-6,-2,27,-19,14,-1,-25,11
8395,6,4,15,31,13,5,-22,-22
8400,-3,-4,-14,-31,-35,-17,-21,21
8405,-6,2,5,26,45,11,53,-19
8410,0,-7,-12,-52,-8,-6,1,8
8415,1,0,2,2,6,5,25,-16
8420,3,6,-5,10,-14,2,5,13
8425,2,-3,0,-34,-18,-12,-25,34
8430,-2,3,-1,0,1,-1,-16,-36
8435,-3,-4,8,7,6,-1,6,-9
8440,3,-1,-20,0,-3,4,-11,26
8445,-5,2,29,15,-10,0,-5,-30
8450,1,-1,-4,13,9,-1,19,18
8455,-1,0,1,-5,-1,7,49,5
8460,2,-1,-6,16,12,5,-55,19
8465,-4,-3,-10,-5,-11,-15,-18,-12
8470,0,-1,-1,10,12,3,-9,10
8475,-2,-2,-7,-13,11,4,-4,-14
8480,0,0,1,3,-10,-4,58,4
8485,-1,-1,0,-2,-5,1,-34,-29
8490,4,-2,-1,-11,9,3,3,-7
8495,1,4,-2,20,5,-3,18,39
8500,-3,-4,3,-9,-4,0,-31,2
8505,-1,-4,-8,4,14,-3,23,-17
8510,-1,-10,-9,6,-26,-7,-18,10
8515,-10,8,31,5,-12,-14,-59,-96
8520,4,-1,-2,-8,20,0,35,35
8525,4,4,-2,-2,-10,-2,-28,17
8530,6,2,-7,9,19,9,34,24
8535,-1,-5,-18,-22,-8,6,18,37
8540,-14,-3,26,32,36,1,-11,-67
8545,2,2,-27,-44,2,0,-13,15
8550,-7,-3,15,5,-1,-5,15,-44
8555,5,0,3,4,1,6,16,39
8560,1,1,-9,9,-15,4,21,-1
8565,-1,-2,-3,3,11,2,-50,17
8570,-1,0,0,17,-12,-12,-67,-37
8575,-4,-8,-14,-41,-16,-19,26,-11
8580,4,0,-3,6,-4,13,45,15
8585,0,0,7,4,-1,4,10,-27
8590,-1,3,-3,-4,-8,3,26,5
8595,4,-2,4,29,-2,-3,-35,-17
8600,-1,-1,-5,-37,-3,-3,13,21
8605,2,4,3,-5,1,2,-1,-26
8610,2,-1,-4,14,-4,-5,-14,17
8615,-6,-5,-6,-1,-38,2,-4,23
8620,3,1,-17,-9,-1,-2,2,5
8625,-8,-6,17,9,0,-9,11,-35
8630,1,10,-1,8,-2,9,2,-1
8635,4,-2,-1,-31,8,-6,-30,9
8640,-8,-3,-5,-9,-20,-14,-78,-31
8645,1,1,-5,6,-14,6,40,37
8650,-4,-4,-27,-5,-28,-14,-2,-22
8655,-1,1,31,20,44,13,8,-24
8660,-1,2,17,42,-9,-2,6,21
8665,0,-3,-7,-38,22,1,24,17
8670,-2,-2,7,2,3,3,-30,-9
8675,1,-1,-18,-8,-1,-1,7,1
8680,3,1,2,3,-11,-4,-28,-14
8685,2,3,8,22,-1,3,17,5
8690,1,-2,-4,-7,-35,-3,20,26
8695,-5,-5,-10,-10,1,-5,12,-22
8700,-9,-5,4,-15,10,-6,-40,-37
8705,0,-1,-4,10,-18,-3,-11,9
8710,3,-2,-1,-48,17,5,28,34
8715,-1,0,-1,11,8,-1,-5,-11
8720,0,-8,-2,-2,-7,5,40,22
8725,2,11,-5,-8,-3,-8,-75,-37
8730,0,-3,6,19,9,6,76,38
8735,1,0,-1,23,-60,-4,-18,0
8740,-15,-4,-6,-35,21,-3,-16,-62
8745,0,-6,-19,11,0,2,-22,-1
8750,-5,0,22,8,9,-3,-41,-24
8755,4,3,11,4,11,5,30,24
8760,7,2,-1,4,-4,-1,31,23
8765,0,1,1,1,-2,-3,2,-4
8770,-2,-3,-26,-16,-28,-4,-19,-1
8775,0,2,13,23,70,7,6,7
8780,-8,-5,-7,-35,-14,-4,25,1
8785,2,0,14,12,5,2,5,12
8790,-2,0,-10,-1,2,-5,-18,-6
8795,-2,0,-2,2,-11,3,-2,-27
8800,4,0,-1,4,8,-2,-9,-6
8805,2,-2,-6,16,-7,-2,-1,23
8810,-2,-10,7,-19,19,0,18,-8
8815,1,9,-16,-14,-88,-3,-9,2
8820,8,5,17,24,22,5,44,12
8825,-6,-10,-4,-14,-6,0,-12,14
8830,-3,-1,4,19,6,-9,-29,-24
8835,-2,-3,-1,-13,25,-1,9,-8
8840,3,2,-5,2,-11,-2,-12,9
8845,5,4,6,8,-13,4,-4,9
8850,-4,-1,4,7,18,0,34,0
8855,5,-4,-14,25,-1,6,13,67
8860,-12,-5,-27,-51,-10,-9,-23,-78
8865,-3,-7,24,9,21,-4,-10,2
8870,1,5,-9,-19,-18,-1,-35,0
8875,1,-4,19,8,18,-3,14,-22
8880,0,9,3,22,6,3,2,24
8885,2,3,-17,-9,-12,2,12,-7
8890,-1,-5,-6,-32,0,-6,29,-1
8895,-1,-1,2,-4,6,-7,-17,-12
8900,1,-5,-4,5,-8,7,-15,19
8905,-6,-3,-4,-14,-1,-1,56,17
8910,1,4,1,-10,-35,3,-55,2
8915,-7,-5,-9,2,3,-19,-30,-37
8920,-2,0,-19,-25,-5,1,-4,-7
8925,4,-2,18,9,1,-2,17,-16
8930,0,4,4,-20,6,5,22,13
8935,1,-1,-4,-9,28,8,-43,0
8940,-7,-8,-11,10,-16,-13,29,1
8945,1,-2,-4,-1,-3,-1,-13,20
8950,-5,-1,3,13,-12,-4,-46,-40
8955,-1,2,5,-6,-26,-4,-16,-10
8960,7,8,3,11,15,13,60,49
8965,-1,4,-10,-11,5,-1,-53,-5
8970,-6,-10,6,13,3,-5,8,-42
8975,-8,-2,-5,13,-1,-11,-39,2
8980,2,-2,5,-27,-8,7,55,8
8985,-2,-5,-4,-10,27,0,2,4
8990,4,8,11,25,-4,12,6,3
8995,-3,-4,-2,-4,-11,-7,-32,-27
9000,0,-2,-7,-14,-19,-21,-26,20
9005,-10,2,13,8,12,-1,19,-32
9010,4,-3,-9,-5,18,5,14,25
9015,1,0,-2,-18,5,9,53,11
9020,4,0,-4,25,-2,-2,-77,-19
9025,0,2,-8,-8,-11,-6,36,9
9030,5,-2,2,16,3,1,51,46
9035,-9,2,-4,-31,-2,10,-10,-43
9040,-2,1,13,13,11,-2,-6,-1
9045,1,-3,-12,1,-17,-6,-38,-14
9050,4,2,-20,14,26,-8,-27,-3
9055,-1,-3,36,18,6,7,34,18
9060,3,-4,-13,28,7,-4,-18,37
9065,-1,1,14,-23,-3,7,-10,-22
9070,-8,-12,-2,-12,5,-15,-33,-50
9075,16,16,-19,21,-10,2,29,53
9080,-6,-4,15,-16,21,11,44,41
9085,1,-1,-1,18,9,4,31,-6
9090,1,2,-2,-3,8,0,-8,12
9095,-2,-5,0,-3,-49,-9,-16,-14
9100,-3,2,19,27,16,-3,-39,-72
9105,-1,-4,-27,-5,-10,1,37,36
9110,2,4,15,-5,-2,12,45,32
9115,1,1,3,-10,31,-8,-63,-17
9120,3,2,-10,3,-7,2,-12,19
9125,-2,-5,-10,-10,-26,-6,-5,19
9130,-7,0,25,18,20,2,-11,-57
9135,-2,-3,-12,-13,-11,2,39,14
9140,1,1,8,30,32,6,-21,-6
9145,3,2,0,-7,-5,-4,0,-16
9150,0,-5,-15,-10,-3,4,-22,20
9155,-3,-1,-4,-4,6,-1,19,-13
9160,-5,-6,0,-16,-31,-12,-2,-1
9165,1,1,3,33,8,-2,6,-1
9170,-3,-1,-16,-4,-4,-2,26,-12
9175,-4,1,3,-2,33,1,-34,0
9180,2,2,-5,9,-4,0,8,5
9185,-3,-5,0,-20,-27,2,3,21
9190,0,-1,1,6,-10,-3,6,2
9195,1,-3,-14,3,14,0,11,17
9200,3,1,-7,0,-10,3,44,-14
9205,-11,-3,14,-2,5,-25,-105,-42
9210,4,5,4,-5,-10,6,35,-1
9215,-3,-4,-9,-12,31,1,23,-7
9220,-5,-1,17,-8,-9,-6,-12,16
9225,0,0,-7,-3,-1,10,26,10
9230,-1,0,-4,-2,-7,-8,-49,-9
9235,7,-8,-10,22,-21,1,44,30
9240,2,14,7,-27,-5,4,-18,-14
9245,-6,-7,-4,-45,28,-4,47,-10
9250,2,4,3,15,26,1,-21,38
9255,-1,-5,-1,5,-6,-1,-37,-20
9260,-13,-14,-6,0,-1,-11,-31,-80
9265,3,5,4,6,-11,-1,0,25
9270,2,-1,-4,-21,6,1,29,14
9275,-4,-4,-9,-8,-13,-8,-45,-21
9280,14,4,15,-4,9,10,40,115
9285,-4,4,-3,2,-1,7,18,-75
9290,-8,-4,1,7,10,-4,13,-4
9295,-5,-2,-14,2,-5,-11,-20,-2
9300,1,-1,23,-4,-1,5,19,49
9305,5,-1,-2,18,-2,7,-5,-8
9310,-6,-8,-32,17,43,2,-4,-44
9315,-2,8,32,-10,-6,-4,13,-15
9320,4,8,-16,-3,6,0,-8,3
9325,5,-3,4,22,-5,7,36,66
9330,-5,-3,-5,7,-14,-20,-106,-24
9335,-8,-11,-12,-7,18,4,17,-29
9340,-4,-5,-10,-9,-11,-4,-21,4
9345,-1,4,0,10,-59,0,43,1
9350,7,-1,3,-33,14,7,13,-6
9355,-10,-4,5,-28,3,-9,-16,-14
9360,2,-1,17,15,-20,8,-29,-23
9365,-8,-6,-16,-38,2,-22,-5,-8
9370,1,-1,-12,-3,-23,8,33,33
9375,13,4,17,0,-15,-6,-15,107
9380,-13,-3,1,12,46,12,27,-112
9385,6,0,-6,-7,-17,-5,-50,13
9390,3,2,12,-34,14,13,48,29
9395,3,1,-10,10,-28,-6,-1,-19
9400,1,-3,-12,0,-12,-11,-23,33
9405,-2,-1,5,17,26,2,-3,1
9410,-8,-10,-1,-8,-51,-12,-14,-31
9415,9,10,-13,-6,37,18,36,66
9420,2,2,7,5,-32,-20,-33,-65
9425,-9,-3,1,-10,29,4,30,-26
9430,1,1,6,-6,13,-2,-23,16
9435,-2,-4,-1,5,-3,-3,-9,-16
9440,-4,-8,-16,5,-12,5,-17,31
9445,1,4,6,15,14,0,29,-4
9450,2,1,-18,17,1,-1,-24,7
9455,7,1,36,-2,20,13,9,50
9460,-10,-2,-5,25,-14,-3,-71,-93
9465,3,-3,-8,-10,1,-2,-9,29
9470,-12,-10,4,-4,-7,-8,12,-19
9475,0,5,-7,2,-12,2,16,-9
9480,11,5,-9,-17,21,5,46,44
9485,0,-4,8,11,-52,0,-18,6
9490,5,7,-15,22,-15,-5,31,25
9495,-10,-8,10,-45,-39,-6,-36,-26
9500,-8,-4,-6,-7,41,4,81,-7
9505,-5,-1,-5,-1,3,-10,-95,-56
9510,2,1,8,13,5,9,46,20
9515,1,-2,-26,-1,-16,2,19,1
9520,3,4,8,-2,-8,0,-10,12
9525,2,2,3,1,17,3,8,17
9530,3,5,-12,-5,-6,-3,-23,32
9535,-14,-10,21,34,28,-8,31,-58
9540,7,0,-8,-9,-10,-1,-3,-4
9545,-8,-4,-6,1,21,-3,-20,4
9550,-2,6,4,-13,13,0,3,14
9555,-4,-5,-9,9,2,0,-21,-37
9560,2,4,-4,-3,1,-2,15,28
9565,9,4,7,24,5,9,12,11
9570,2,1,8,-1,2,1,-50,-61
9575,3,-2,-31,-5,-8,-8,-14,79
9580,-1,-3,28,25,5,7,33,-17
9585,-7,-4,-9,-19,9,-8,-6,-11
9590,4,-1,11,-8,-4,0,-7,9
9595,-1,4,-10,-4,4,-2,0,-37
9600,2,-3,-14,-16,-26,-6,-27,17
9605,0,3,3,-7,0,4,17,19
9610,-3,-6,-3,8,-3,7,30,-8
9615,8,4,-1,41,1,0,-40,6
9620,-20,-10,1,-47,5,-16,6,-33
9625,3,-5,-1,-5,-33,-2,24,2
9630,-7,0,9,21,35,-2,-50,14
9635,2,4,-10,-9,0,3,35,-16
9640,5,1,-4,33,1,2,-10,34
9645,0,2,1,-5,10,2,-1,-14
9650,-1,-3,-5,-9,-29,-2,8,-11
9655,1,0,1,0,42,12,10,20
9660,8,5,36,7,-50,-9,-39,19
9665,-13,-6,2,32,24,-23,-49,-80
9670,-3,-4,-4,-13,12,7,28,6
9675,-5,-2,1,-7,5,7,32,-21
9680,7,-3,-15,-11,-3,6,-6,69
9685,6,0,-25,16,2,5,-6,34
9690,4,6,60,19,19,1,24,3
9695,-11,-3,-5,0,-8,-7,-20,-73
9700,-4,-7,-18,-24,9,-9,15,11
9705,-5,-1,2,3,-4,-1,-32,-28
9710,4,-1,-20,4,1,2,49,40
9715,-2,0,10,-4,-12,-6,-25,-30
9720,-5,-6,-4,7,5,4,16,26
9725,0,-5,-23,-34,9,2,-2,-10
9730,3,7,-14,5,-11,0,7,30
9735,0,1,26,-8,-16,-2,1,-21
9740,-9,-6,-12,2,9,1,-4,-32
9745,-1,-1,9,-34,-18,-1,49,66
9750,-5,-6,-13,-6,4,-1,-34,-52
9755,1,-2,-3,12,-7,4,8,9
9760,-1,5,-1,17,-1,2,-21,-45
9765,13,6,10,-15,13,14,5,3
9770,-16,-12,-6,-3,-32,-20,-27,14
9775,1,1,-2,8,9,-7,33,48
9780,-5,-2,-2,-12,-1,3,-11,-17
9785,-4,-3,6,17,5,2,-9,-3
9790,2,-1,-16,-11,-13,0,36,18
9795,1,-12,-15,-7,-10,-3,-12,-39
9800,2,16,7,-16,15,3,18,-34
9805,-5,-6,-7,23,-14,-9,-41,5
9810,0,1,7,-17,3,-3,6,15
9815,-2,-9,-12,-10,-19,-7,10,33
9820,2,-4,-6,0,13,3,-14,-1
9825,3,7,11,-1,4,6,-10,-22
9830,-5,-1,-2,9,-4,-3,25,-47
9835,6,4,2,-6,-2,-1,-15,40
9840,-7,-6,-11,2,-4,-3,6,2
9845,2,1,-2,-13,-4,1,5,-5
9850,-4,0,2,9,37,4,-18,-43
9855,-4,3,12,11,-50,-4,-13,-5
9860,4,-3,2,1,23,4,41,46
9865,-3,-6,-25,-1,-30,-15,-21,16
9870,-1,9,33,-5,30,1,-21,-31
9875,-2,-4,-4,-1,14,0,0,-1
9880,1,1,-9,-17,-6,5,9,0
9885,4,6,15,1,-6,-7,-24,-12
9890,-6,-9,-18,-6,-45,-8,-6,-21
9895,-3,4,7,1,32,6,-46,1
9900,0,-4,5,21,-7,5,52,39
9905,-5,-2,-3,-33,14,-2,30,8
9910,1,2,4,19,-18,2,7,-31
9915,4,-8,-9,13,7,-10,-47,30
9920,1,-2,-3,-12,-15,-7,-39,-2
9925,-3,-1,6,8,20,12,20,-32
9930,1,-2,-12,7,-13,1,19,15
9935,1,4,-7,-4,6,-1,7,2
9940,-4,-2,22,14,-4,-5,21,-37
9945,2,1,0,28,3,-7,-54,36
9950,3,2,7,-24,-3,1,-19,-4
9955,1,-1,-11,6,1,2,45,17
9960,-2,8,-38,-20,38,-2,-79,-60
9965,-3,-7,22,13,4,6,76,-3
9970,6,0,-3,0,-1,4,-22,14
9975,-6,-1,9,-12,0,-6,-5,-1
9980,8,2,-6,7,6,-1,-25,4
9985,-4,-2,-4,-4,-6,7,33,5
9990,0,-3,-6,0,2,-8,-48,-8
9995,-6,-3,4,-8,-14,-2,35,4
10000,2,-4,-3,18,-2,-5,-7,55
10005,0,2,11,-1,9,8,45,-3
10010,0,2,6,23,-20,-10,-21,-18
10015,-3,1,-14,-21,48,11,-46,-45
10020,4,-1,21,11,-11,4,48,42
10025,6,-1,-5,-14,-9,-10,-10,20
10030,-5,-11,-8,5,-9,0,19,8
10035,0,15,8,10,-10,5,-6,-37
10040,-1,-6,-7,-14,-8,-2,27,20
10045,-9,-4,-8,-4,4,2,-14,-37
10050,4,-2,10,-1,5,-1,-18,20
10055,-7,-10,-14,-15,-10,-1,15,-8
10060,1,1,6,-14,-11,-5,13,-19
10065,1,4,4,28,1,-3,7,12
10070,0,0,-16,-1,-8,3,-7,31
10075,-2,-2,25,14,-30,-3,-28,-55
10080,-3,-4,-4,15,4,4,27,17
10085,2,-1,-8,-33,-4,-9,-18,29
10090,4,5,9,-7,-11,-7,17,38
10095,-5,-1,-4,9,21,-3,-40,-73
10100,-1,-2,15,-9,-11,-6,-1,5
10105,-3,-4,-10,-17,-3,13,22,0
10110,-2,0,-5,-16,8,-12,-88,-20
10115,-2,-3,3,-6,-10,2,66,41
10120,2,-3,-21,-18,-9,-1,18,1
10125,1,5,-5,4,1,-4,-6,-27
10130,1,-4,13,-1,-24,6,49,39
10135,4,4,-4,-3,35,6,-15,17
10140,-10,-3,-2,23,13,-6,-30,-71
10145,3,0,-3,-31,-4,4,5,18
10150,-1,-2,-6,4,8,1,19,50
10155,4,-2,-5,8,-9,4,-3,-8
10160,1,3,11,7,-1,5,-1,-16
10165,-9,-1,3,7,-7,-15,-55,-49
10170,-3,-2,2,-13,16,2,39,-2
10175,1,-4,-3,19,13,1,-15,37
10180,1,4,-4,-12,10,-1,2,-2
10185,-1,0,3,11,1,-3,-40,6
10190,-3,-5,-14,-17,-5,2,-6,-14
10195,-2,-10,4,-8,-9,3,94,17
10200,-2,10,-1,0,-1,-4,-35,-15
10205,7,1,-10,-4,-19,-4,-12,21
10210,-7,-2,1,28,42,4,26,-36
10215,0,-1,-3,-55,-20,-10,-35,-2
10220,-2,-5,-4,0,-5,3,-20,-8
10225,6,3,1,9,1,6,32,30
10230,6,-2,2,-28,-14,4,45,31
10235,-7,2,-1,14,-6,0,-17,-54
10240,-14,-8,-10,-31,-21,-17,-13,-15
10245,-1,0,8,1,7,0,14,19
10250,1,-3,-11,3,-3,5,-10,-10
10255,10,9,5,9,-1,0,-14,41
10260,-2,-2,-6,-4,-7,0,11,-3
10265,-1,-3,8,24,4,13,37,-28
10270,-5,-4,-6,-5,1,-19,-55,-16
10275,6,-2,1,4,4,2,4,49
10280,-11,-8,-8,-2,-5,-8,-3,-19
10285,1,10,1,-15,-2,-2,10,-4
10290,-2,-2,-5,5,18,-6,-36,-50
10295,2,3,19,23,-29,-3,-12,11
10300,-1,-10,-18,-20,-5,-3,-19,36
10305,0,-2,9,8,7,1,-11,-26
10310,-8,0,6,-7,-5,-5,26,-17
10315,3,-3,-36,-7,-3,-2,34,13
10320,3,4,46,2,-8,-1,-45,-14
10325,0,-6,2,11,16,-5,5,32
10330,0,5,-13,2,-1,12,22,1
10335,-12,-10,-4,-27,-4,-11,-20,-20
10340,-4,-3,-8,9,-9,0,-13,-39
10345,-3,-5,-9,-8,-2,-3,16,22
10350,8,3,14,26,1,1,-2,29
10355,0,2,7,-6,11,12,37,-18
10360,4,6,5,38,4,-3,-27,3
10365,-2,-5,-6,-24,-13,-6,-22,16
10370,-7,-5,-3,6,-4,-3,5,-17
10375,1,-4,-2,0,-6,7,40,-10
10380,9,15,1,10,31,7,5,38
10385,-9,-7,-6,3,-10,0,-15,-37
10390,-2,1,-15,-16,6,1,-16,1
10395,4,2,31,-12,-1,-7,-11,8
10400,-5,-7,-4,6,3,5,9,-16
10405,3,3,-9,-3,7,0,17,18
10410,5,2,12,8,-11,1,2,40
10415,3,-1,-30,-9,3,0,40,17
10420,-2,-3,27,7,6,3,-7,-43
10425,-9,1,-11,4,-9,-14,-72,-30
10430,-4,-5,8,-23,6,-1,17,-3
10435,-1,3,-1,26,9,0,-20,-18
10440,4,-1,-6,-57,-14,7,61,66
10445,0,-6,-11,-27,-16,9,25,-7
10450,6,5,8,26,14,-3,-20,-12
10455,3,4,-1,-21,1,-9,-2,16
10460,-7,-3,-11,-1,-10,-11,-14,-54
10465,-2,-3,9,5,10,5,8,13
10470,0,1,-5,-6,-8,-2,2,12
10475,7,1,-12,4,-1,-4,-72,30
10480,-8,-2,5,6,5,8,-11,-88
10485,0,-10,-2,-6,-5,1,96,49
10490,-2,6,-2,6,-8,-3,26,14
10495,1,2,-3,8,7,-1,-36,-20
10500,-5,-4,-8,-28,4,-16,-49,33
10505,1,-1,5,8,-1,1,-12,-23
10510,-1,-2,-5,1,-16,4,-4,-22
10515,-5,-1,8,24,30,8,16,-15
10520,10,0,-20,-38,-8,-5,-49,57
10525,-11,0,16,24,3,-4,-18,-62
10530,-1,-5,-19,-12,17,2,40,39
10535,2,1,18,-1,4,5,22,-2
10540,0,-4,-12,13,-1,2,10,0
10545,2,7,0,11,-1,-10,-26,-5
10550,1,-2,-1,-9,-3,8,15,14
10555,-5,-3,-14,-13,-21,-11,-28,-6
10560,-1,-2,14,-7,-7,-13,-6,-4
10565,4,4,-5,0,13,8,20,50
10570,-10,-12,2,10,-7,-5,-33,-78
10575,8,7,-4,-7,4,8,30,83
10580,-3,-4,-1,5,-16,4,22,-37
10585,-3,-5,-8,4,-7,-10,-43,-14
10590,7,5,12,20,-5,9,14,14
10595,-9,-6,-9,-40,-16,-11,-14,8
10600,-2,0,0,19,5,3,-9,-32
10605,9,5,5,1,4,4,0,9
10610,-14,-8,-5,-5,-7,-10,-45,-62
10615,-7,-7,2,13,-8,4,33,21
10620,1,2,-14,-10,4,-5,-12,35
10625,-1,-6,20,-25,-7,6,44,10
10630,9,6,3,5,15,-4,-17,4
10635,2,0,-2,13,-6,2,2,-14
10640,-5,-3,-4,-23,-30,-8,-1,28
10645,-8,-6,-8,3,5,3,-14,-51
10650,3,9,-22,-14,-1,-3,-17,27
10655,0,-1,33,16,-2,4,-8,-36
10660,1,0,-9,27,3,1,62,29
10665,-4,-3,-8,-6,-7,-2,-6,9
10670,-2,-6,-4,-21,-14,-10,-23,19
10675,-4,-1,-4,23,16,5,8,-77
10680,4,1,2,-19,-14,9,10,44
10685,2,0,-9,-9,14,-3,-10,0
10690,-7,-4,12,5,10,-4,-30,-3
10695,-2,-4,-16,-3,-16,-11,-36,-30
10700,11,4,14,34,19,12,31,81
10705,1,4,-6,8,-9,4,22,-89
10710,-6,-4,0,-4,-9,-7,2,3
10715,-4,-3,-3,-8,0,-8,-7,22
10720,2,2,-1,5,10,2,-22,-17
10725,5,1,-14,-5,8,-1,38,54
10730,3,2,12,3,-9,7,-10,-40
10735,-6,-1,-2,17,-2,-5,-17,8
10740,-3,-11,-6,-14,21,-3,37,1
10745,-2,12,-3,1,-5,-4,-56,-17
10750,8,1,-7,-3,-5,7,49,26
10755,-7,-2,4,-11,1,-13,-69,-72
10760,4,-2,9,3,-7,6,20,27
10765,5,-5,-7,0,-3,-1,34,102
10770,-12,-1,4,-3,1,-5,0,-88
10775,9,2,-14,-8,2,11,27,41
10780,-11,1,10,36,0,-9,-47,-58
10785,1,-4,-8,-1,0,-5,8,12
10790,5,0,6,-15,0,5,-3,29
10795,-5,-3,20,24,-36,-4,42,4
10800,-2,4,5,-8,38,-4,-33,-33
10805,-6,-4,0,-6,17,-1,38,17
10810,-2,-5,0,24,-13,-11,-50,-8
10815,-4,-1,-37,-52,-13,7,1,-47
10820,9,4,15,19,10,5,15,37
10825,4,3,14,9,11,0,-33,-7
10830,-9,-13,-10,3,2,-5,79,-4
10835,-1,10,2,-4,13,0,-59,20
10840,3,0,-6,-3,-21,-2,13,0
10845,-3,-1,1,1,-2,-11,-34,-8
10850,3,-1,-15,-11,-10,5,-13,-11
10855,-2,-5,12,8,13,0,23,0
10860,2,-2,-28,-14,-4,2,5,18
10865,-2,2,29,3,-10,-1,-16,-17
10870,0,5,-3,2,2,-3,-24,-2
10875,6,-3,5,4,14,3,23,63
10880,-7,-4,-21,-6,2,1,11,-46
10885,-3,-1,15,13,-6,-5,-59,-4
10890,4,-3,3,5,4,8,62,20
10895,-2,3,4,-3,-3,-4,-1,10
10900,4,0,-13,9,-5,6,60,15
10905,-4,-1,6,-23,-12,-12,-49,-41
10910,3,2,10,2,17,-5,-6,39
10915,1,-8,6,10,-2,3,18,-22
10920,-7,5,-7,-4,-14,-5,-26,-8
10925,6,1,1,0,4,8,8,25
10930,-9,-2,-12,14,-9,-11,-25,-9
10935,-1,-6,3,-3,13,6,30,3
10940,-6,-3,7,6,-8,-10,-40,-37
10945,3,2,1,-4,22,5,33,7
10950,6,-2,-10,-24,40,7,18,15
10955,-3,4,19,8,20,-4,-31,-7
10960,-1,-2,4,5,-6,1,18,15
10965,-2,-5,-5,1,-10,-6,-34,-10
10970,5,6,-2,20,-16,6,0,1
10975,-3,0,-6,-5,-9,-4,21,-6
10980,4,4,10,-23,2,10,26,46
10985,-14,-11,-17,15,-10,-6,-7,-59
10990,-8,-2,-2,-11,-2,-4,-19,-26
10995,1,0,-10,-3,-6,-9,-27,1
11000,3,-1,8,-9,-8,-4,6,34
11005,10,-5,-12,14,6,14,57,21
11010,-11,4,-8,-21,-17,-19,-25,-8
11015,-1,0,31,6,2,0,-46,-46
11020,-5,-6,-13,-6,-4,2,23,4
11025,-3,-2,-9,0,-2,1,-31,-26
11030,3,2,21,9,16,7,-6,-4
11035,-3,-3,-28,-21,-14,-10,24,24
11040,-2,-1,-21,3,1,-7,-48,-31
11045,2,3,25,-5,-2,6,45,48
11050,2,-3,3,-6,-7,1,31,9
11055,2,2,-8,27,9,0,6,29
11060,-5,-1,5,-25,-9,-3,-41,-72
11065,0,0,-9,-11,3,-4,-2,14
11070,-2,-4,-15,-1,-10,1,15,3
11075,1,1,19,41,-29,7,23,-3
11080,-1,-1,2,-24,-10,-2,-19,-3
11085,2,-1,-32,2,-26,-1,6,37
11090,-13,-3,20,-43,13,-14,-57,-77
11095,-2,-3,-12,-5,3,6,47,33
11100,-2,-4,-4,14,4,0,1,4
11105,-2,-9,-3,-14,-29,-10,16,-24
11110,5,10,23,42,24,7,-9,34
11115,-1,-6,-9,-12,5,-6,-16,-16
11120,-1,-1,-4,1,10,3,25,-14
11125,2,7,11,27,11,-2,-22,5
11130,3,-3,-6,-32,-8,3,8,7
11135,-11,-6,-4,-19,1,-17,-37,-31
11140,0,-3,6,9,-3,16,76,59
11145,0,0,-2,6,5,-7,-68,-25
11150,-2,-3,3,18,-11,-3,9,7
11155,6,1,-40,-32,-1,-2,3,18
11160,3,0,45,-6,-2,-2,0,-21
11165,-7,3,-4,11,6,1,6,-25
11170,-3,-4,10,11,9,2,-16,14
11175,1,-2,-7,-20,3,4,10,-1
11180,-2,-2,-11,7,-59,-14,-44,9
11185,3,-6,-2,-17,0,1,17,15
11190,-8,7,2,12,10,-4,-48,-65
11195,3,1,3,14,4,6,82,37
11200,-1,0,-2,-37,11,-1,-56,-10
11205,-3,0,-5,-12,1,0,14,0
11210,7,-7,-14,-2,-31,2,18,24
11215,6,4,8,-4,-11,2,-30,9
11220,-8,3,-21,25,49,-8,-42,-61
11225,-1,-2,23,3,-10,9,51,38
11230,-2,-2,-10,-9,6,-7,-39,-53
11235,1,3,9,6,-8,10,15,31
11240,-2,-5,0,6,19,-1,-4,-8
11245,-4,-3,-18,-9,-45,-11,-2,12
11250,1,1,2,4,1,2,-1,-9
11255,-2,-2,5,10,-9,-5,-3,0
11260,1,-3,-13,10,-7,-1,59,10
11265,-6,1,14,-31,24,0,-15,-42
11270,1,-1,0,36,-56,-5,5,28
11275,0,-2,-2,-23,-5,1,-8,-5
11280,-1,0,10,2,2,6,19,8
11285,11,13,-7,5,14,-1,19,55
11290,-11,-11,2,4,5,-2,-4,-28
11295,-2,3,3,7,13,-2,-63,-47
11300,-1,-5,-6,12,1,-1,16,48
11305,-3,-3,1,-7,-21,-4,22,-9
11310,2,1,-6,-2,21,4,14,21
11315,0,-1,-4,-9,7,0,6,-3
11320,-2,-1,-2,-18,-2,-5,-15,-11
11325,4,5,9,18,-2,3,-18,-32
11330,-2,-4,-9,-15,35,13,34,11
11335,1,2,7,18,3,1,-9,-6
11340,5,-2,-6,-15,-8,-12,-22,10
11345,-9,2,-11,2,8,-11,-56,4
11350,4,4,6,-5,-15,3,11,6
11355,2,-3,-9,8,8,0,26,1
11360,3,-1,6,15,2,-2,-24,-5
11365,1,3,-36,-13,-5,3,6,-15
11370,2,-2,24,-28,-2,0,37,27
11375,1,3,2,5,-3,-2,-17,10
11380,-4,-3,5,-9,16,11,9,-22
11385,-7,-7,0,3,5,-8,-13,-17
11390,7,2,-15,5,-10,-5,-34,51
11395,-17,-7,0,-5,-9,-2,32,-58
11400,6,6,-3,-1,8,-4,-26,-16
11405,0,-2,-18,3,4,8,20,35
11410,-3,0,43,8,28,-11,-8,-22
11415,-3,1,2,13,-18,-2,-8,-1
11420,-1,1,-7,-30,-14,-3,-33,1
11425,2,-1,6,4,14,1,2,-27
11430,0,-5,-32,-16,-9,3,16,25
11435,4,0,14,9,13,4,-3,23
11440,-12,-5,6,18,-14,7,48,-8
11445,-6,-13,4,-6,-1,-14,-51,-13
11450,0,15,-10,4,0,-4,-16,-1
11455,2,-4,-4,-19,3,8,3,-56
11460,-5,-2,-3,12,-7,-13,-22,3
11465,5,-1,6,-2,11,9,23,-5
11470,-5,-9,-10,-5,-13,-6,70,45
11475,-3,2,-5,-20,7,0,-5,11
11480,9,2,6,13,1,-1,-19,30
11485,-5,1,-6,-33,29,3,4,-62
11490,5,2,20,47,-12,-1,-18,-16
11495,4,-1,-9,-51,3,0,38,40
11500,-4,-4,-4,-2,3,6,-23,-5
11505,-4,-5,-9,-3,-5,-9,35,7
11510,-3,3,5,5,10,2,-63,-37
11515,-6,-6,-9,4,-15,-12,48,23
11520,5,5,9,14,-4,0,21,-3
11525,-3,-3,-4,-11,-11,8,5,30
11530,-5,-10,-29,-39,-10,-5,-8,-2
11535,-2,-1,18,21,3,-2,-49,-51
11540,-2,-1,-12,-2,20,-8,44,17
11545,5,9,21,43,-1,0,-32,-12
11550,-4,-13,-18,-19,-9,9,24,7
11555,6,12,7,-1,10,7,14,58
11560,1,-9,1,16,-9,-6,28,-24
11565,-1,4,4,-39,3,5,11,13
11570,6,8,11,22,-6,-13,-55,-17
11575,-8,-5,-14,-7,4,-9,-32,-21
11580,-4,-6,-4,-39,-89,-5,4,32
11585,2,-1,20,32,14,0,-30,-46
11590,-10,-9,-4,-16,-5,2,58,16
11595,5,3,7,1,-3,-2,-12,-9
11600,-3,5,3,3,10,-1,-21,-7
11605,1,-6,-10,-1,-1,6,22,15
11610,1,3,-2,-13,-5,1,-1,-1
11615,-6,-5,-4,15,-6,-9,-31,-27
11620,-3,-7,-21,2,18,6,9,11
11625,0,10,31,41,-8,0,11,-16
11630,1,2,-3,-5,16,-5,-12,2
11635,4,-5,-3,-1,-2,0,-20,37
11640,-7,0,-6,-10,-8,15,86,-19
11645,-5,-4,-10,3,6,-13,-75,-18
11650,3,3,5,14,13,5,8,12
11655,1,-1,-7,3,-3,-7,4,5
11660,2,1,-10,15,2,-1,-3,-17
11665,-5,-1,26,10,15,7,6,21
11670,3,-3,1,-16,-42,-3,-6,-15
11675,-8,-1,-11,-4,13,-4,-32,-27
11680,13,7,-5,3,16,4,16,62
11685,-9,-5,-9,-12,-20,5,60,-20
11690,-3,0,-8,-5,5,-9,-69,-62
11695,5,1,3,-4,-9,3,12,30
11700,-7,-2,-17,-3,-10,-6,-6,-1
11705,2,2,28,23,27,-13,-64,3
11710,0,-5,-3,22,-10,3,54,8
11715,-7,-9,-18,-51,5,1,-8,15
11720,-4,3,18,14,3,-1,-26,-34
11725,0,-2,-16,-8,-17,1,8,-33
11730,-7,-5,-3,3,4,-4,25,-1
11735,0,-1,17,27,5,1,-7,-25
11740,1,6,1,-31,6,2,0,7
11745,5,1,-9,-7,-9,8,63,65
11750,3,0,-8,-2,3,-7,-84,-16
11755,1,0,3,13,-1,-3,28,20
11760,-6,-6,35,21,2,-5,-14,-53
11765,-2,0,-24,-45,-8,-7,-20,-24
11770,2,2,-5,-4,20,13,55,45
11775,-2,-2,-2,-22,-49,-2,5,1
11780,3,3,6,20,55,3,-41,-31
11785,-1,-3,-9,-6,-18,-11,14,39
11790,3,-2,-15,-5,-2,3,11,3
11795,6,6,22,0,16,7,16,10
11800,-4,-5,-4,0,-16,2,17,7
11805,-1,-6,-7,-20,-7,-3,9,56
11810,-3,2,-2,-17,-4,-6,-43,-18
11815,-2,3,-5,18,2,-6,-6,-37
11820,1,-5,1,-4,-8,-4,-19,24
11825,3,3,-1,-1,2,3,-22,-25
11830,1,6,11,12,-2,4,27,9
11835,-1,-6,-22,-22,-7,-7,14,-37
11840,-1,-2,22,13,6,0,-8,20
11845,-10,-8,-28,-10,-13,-9,-6,-23
11850,7,4,17,6,3,9,37,46
11855,-3,2,-4,2,4,1,-2,-10
11860,5,-3,-9,-42,-10,-4,-15,41
11865,3,0,-7,16,-2,-3,-13,-37
11870,-4,-2,3,-2,-4,-6,-14,-44
11875,0,1,14,1,5,1,-3,30
11880,0,0,-28,2,-4,4,11,-27
11885,6,4,35,6,8,2,22,36
11890,-3,-2,1,0,31,3,-16,-19
11895,-1,-3,-7,18,-3,-15,-35,11
11900,-3,1,-1,-9,2,1,-8,0
11905,-1,-3,-8,15,-9,0,22,-15
11910,-1,2,2,-26,17,2,25,82
11915,-6,-6,-17,-14,-64,5,7,-77
11920,2,0,-13,11,25,0,-12,19
11925,-1,5,31,18,29,6,2,-18
11930,0,-2,18,1,-21,-7,9,1
11935,0,-1,-5,10,17,-5,36,61
11940,-5,-2,-8,9,-27,-8,-13,-48
11945,2,-4,-12,-2,-10,4,-15,-6
11950,-3,-3,-32,-7,-9,-5,10,0
11955,4,6,33,23,5,2,-11,34
11960,2,3,9,-5,1,-2,-6,-64
11965,-9,-7,-10,-13,10,3,42,49
11970,-3,-1,0,19,0,-3,-27,-46
11975,-1,-1,-10,-15,9,5,23,18
11980,8,1,6,-17,9,3,34,67
11985,-7,-2,-6,-11,-9,-1,-19,-42
11990,1,0,3,6,-10,-2,-23,-3
11995,-7,-6,-10,2,-15,0,-1,-13
12000,-4,4,17,15,2,-4,4,-10
12005,3,-3,-16,-20,-11,-6,-45,34
12010,-3,-4,5,-7,-1,-2,15,-17
12015,-1,-9,12,11,11,6,-7,8
12020,-6,9,1,6,15,-2,-8,-12
12025,1,-4,3,9,-11,-3,-16,-28
12030,3,0,-3,5,18,5,21,35
12035,0,-2,-15,-22,2,-4,-37,-37
12040,-1,-5,2,15,-18,0,29,13
12045,2,1,1,-2,7,2,-7,-5
12050,2,-4,-7,14,-73,-5,-31,23
12055,-3,1,9,-3,25,-11,-30,-62
12060,-9,-6,-4,8,17,-2,17,38
12065,2,4,-2,-2,-6,8,66,7
12070,3,0,7,-2,4,0,-6,-6
12075,0,1,-13,9,-12,-1,-45,-15
12080,-3,-6,-5,-38,-18,4,15,-31
12085,6,1,-5,-10,8,-1,-16,48
12090,-8,-1,2,12,-1,-1,10,-18
12095,3,0,-4,-20,13,2,-18,-14
12100,0,-3,-23,-7,8,-2,-27,23
12105,0,1,21,20,10,9,30,-9
12110,-1,6,-4,-13,6,-6,1,-23
12115,-5,-4,-2,9,-3,-2,-1,19
12120,5,-1,-6,2,-1,7,9,6
12125,1,-4,-11,-2,-12,-15,1,23
12130,-10,-7,-1,4,-4,-6,-24,-49
12135,6,4,0,2,20,1,-6,6
12140,-1,4,8,-4,-15,-3,5,14
12145,-11,-8,-5,19,-1,-8,-13,-33
12150,4,-1,-12,-11,11,7,10,-2
12155,2,3,20,4,-11,-2,28,42
12160,-4,-6,9,0,-2,-6,-13,-38
12165,2,7,5,-5,-12,-2,0,4
12170,-4,-6,-19,-17,5,2,7,21
12175,4,5,3,9,3,10,27,-18
12180,3,-2,3,41,-2,-1,-8,27
12185,2,3,-1,-21,11,7,-24,-13
12190,-9,-6,2,-4,-2,-13,-33,-6
12195,-2,-1,-6,2,-2,2,25,-26
12200,0,1,7,16,-5,-2,-18,-3
12205,0,-7,-27,6,8,9,15,0
12210,6,6,38,-18,-1,-4,19,56
12215,-10,-7,-23,9,0,-4,-23,-63
12220,-2,-3,6,-16,-16,2,16,17
12225,-2,0,0,13,7,-2,-5,12
12230,5,-1,-4,1,14,-2,-3,27
12235,-4,0,-3,4,24,-3,14,-8
12240,1,-3,-24,-18,-73,-2,9,-20
12245,1,0,23,12,19,10,25,13
12250,0,1,-3,6,-7,-6,-31,-30
12255,-7,-5,3,37,13,-13,-45,29
12260,-1,-2,-8,-26,17,-2,-33,-42
12265,4,3,2,-13,-9,-1,-5,9
12270,4,-1,-7,1,-9,18,66,-3
12275,2,-1,-7,-5,10,5,3,43
12280,1,-9,-5,8,-11,2,10,7
12285,-2,11,20,-11,-5,-13,-54,12
12290,-6,-4,-16,2,7,-10,-20,-60
12295,-2,-3,23,-1,0,5,-9,9
12300,-1,1,0,-9,25,-1,48,33
12305,3,-2,-10,-8,-4,2,20,-10
12310,-5,-3,-1,9,-12,-6,-72,-41
12315,0,4,1,-6,-9,0,22,-6
12320,0,2,3,-23,16,3,7,34
12325,-6,-5,1,-2,-7,1,29,-3
12330,-1,0,1,7,11,-5,-17,1
12335,5,-2,-13,-57,-19,10,55,42
12340,1,2,14,5,18,-6,-99,-39
12345,-4,-2,-28,-10,-19,-2,34,-16
12350,1,5,19,8,27,8,-6,4
12355,2,1,-7,6,-13,-8,-28,28
12360,-8,-2,10,-6,-10,-8,18,-31
12365,-4,-5,-21,-6,-33,-8,-50,-20
12370,2,-1,28,13,43,14,51,14
12375,6,-5,-21,-2,-17,3,52,68
12380,-3,-6,16,0,13,-1,-47,-32
12385,-1,9,3,7,4,-12,-3,2
12390,0,1,-15,-15,-21,-3,-16,-27
12395,1,-2,7,21,14,-1,-19,-8
12400,-1,2,-3,0,18,7,30,33
12405,-6,-7,3,-13,-26,-5,-8,-47
12410,4,-1,-3,2,17,9,17,50
12415,-2,3,1,1,1,-6,-19,-49
12420,-3,-3,-9,10,-18,-15,9,35
12425,-2,-4,-10,-21,10,3,9,-19
12430,3,2,10,10,-14,3,7,-14
12435,0,-3,-5,-19,-7,7,21,29
12440,2,6,5,16,9,-4,-28,-14
12445,-5,-1,-1,9,6,-16,-83,-1
12450,7,2,-8,-1,-3,14,68,40
12455,-10,-5,2,4,-9,-9,-37,-32
12460,-3,-2,-4,1,0,2,19,-39
12465,-1,-2,-21,8,3,0,-19,20
12470,-7,-1,23,-31,8,-4,28,-12
12475,5,7,0,10,20,4,-12,16
12480,-11,-1,-6,10,-2,2,10,-35
12485,9,-2,2,-26,9,2,-29,20
12490,-9,-4,-13,-3,-18,-2,23,-28
12495,0,-3,-10,-7,-2,-4,3,19
12500,-2,0,4,-1,-6,-2,-1,-6
12505,3,3,8,18,27,-1,11,18
12510,1,0,7,28,-6,0,-1,-9
12515,-3,1,8,-23,-4,1,9,-22
12520,3,1,-6,-3,-19,-7,-39,-6
12525,2,-3,4,1,16,8,97,64
12530,-3,-3,-10,-4,-8,-8,-62,-40
12535,-3,-3,1,3,-8,5,32,19
12540,5,6,-1,-5,2,5,-19,-13
12545,-1,-5,1,8,-9,-2,-26,-7
12550,-3,-3,-1,-5,-8,-10,-5,6
12555,4,6,-15,4,3,-3,-22,-13
12560,4,-9,26,5,0,7,45,54
12565,-7,9,11,-11,-3,-4,-62,-83
12570,4,-5,-16,-14,-8,1,15,46
12575,-3,-1,-1,-5,-7,-3,-16,-44
12580,8,-2,-17,29,10,7,65,80
12585,-6,-3,15,4,-4,0,-22,-24
12590,0,1,16,1,-1,0,-47,-20
12595,-1,0,1,10,-6,-3,22,9
12600,0,3,-10,-33,12,0,6,-3
12605,0,-4,-5,9,-6,3,40,-5
12610,1,2,-3,-9,-11,-1,-42,16
12615,3,-2,8,5,6,4,13,-2
12620,2,3,-4,-4,-4,-3,7,-12
12625,-3,1,0,4,-8,-7,4,12
12630,1,-3,2,-5,4,4,21,13
12635,-3,-1,-7,-2,-9,4,4,-7
12640,-6,4,3,-3,-3,-8,-27,-20
12645,1,-4,1,3,-3,5,28,5
12650,-4,-4,-12,8,0,-12,-48,-40
12655,-6,-9,-1,-11,-3,-5,26,51
12660,-4,0,-11,-5,3,7,27,-58
12665,2,3,15,4,1,2,-10,17
12670,6,2,0,35,2,-1,-22,11
12675,1,-1,-9,-38,5,-3,-19,-34
12680,-12,-9,0,-10,-2,-10,-20,-23
12685,3,0,1,0,4,7,30,37
12690,-3,-4,-24,4,-3,3,59,13
12695,1,1,22,30,-3,-7,-40,0
12700,4,3,4,0,4,7,-2,22
12705,-3,-3,2,-1,4,1,-20,-40
12710,-1,1,0,-20,-1,-7,-2,-7
12715,1,-1,-10,5,-10,-1,11,0
12720,1,-11,-3,0,2,2,7,20
12725,1,13,-8,-8,-3,-1,20,-4
12730,1,0,8,-7,-3,-1,3,5
12735,-5,-4,-8,-8,-9,3,2,-7
12740,-3,-2,14,19,3,-3,10,-14
12745,0,-5,-5,0,-1,-6,-49,8
12750,2,2,-3,-23,2,5,36,35
12755,-5,-1,-9,-27,5,-2,-9,-52
12760,-1,-3,3,-11,-9,-12,-37,28
12765,-5,0,0,3,5,1,27,-19
12770,1,5,-3,2,-2,-2,-1,6
12775,0,-2,0,9,-1,-1,6,-1
12780,3,3,-7,-3,0,4,8,31
12785,-3,-7,14,9,-8,-3,-5,13
12790,-5,-2,-1,7,-1,-9,-36,-41
12795,3,2,4,-12,-4,6,60,-19
12800,1,3,1,-2,-2,7,-23,23
12805,2,-3,-8,-5,-1,-9,-52,-9
12810,-12,-10,-1,-10,-1,-4,3,-17
12815,4,10,-2,5,10,-3,-8,9
12820,2,-1,-1,17,3,-1,19,-6
12825,-2,-4,-6,-39,-15,-7,10,6
12830,2,0,-10,-16,9,-1,-13,12
12835,-6,-2,9,9,-1,-1,-45,-9
12840,-2,-3,-26,-13,-20,-9,-2,-40
12845,5,0,23,21,27,12,18,11
12850,-4,-1,-13,8,3,2,26,17
12855,6,-1,5,2,1,7,-1,28
12860,-4,2,4,0,-5,-3,-9,-15
12865,0,-2,-12,-3,-7,-2,-31,-38
12870,4,1,4,2,-2,11,49,56
12875,0,3,6,15,0,-4,-16,-3
12880,-3,-5,1,-11,-4,-7,-41,-3
12885,-2,-3,-7,3,1,-2,53,6
12890,-1,1,4,-4,-1,-1,-28,-55
12895,-3,-5,-13,-8,-1,0,17,20
12900,2,-6,-13,0,10,3,3,11
12905,-1,13,20,18,-6,-3,27,-20
12910,2,-1,-3,-19,-11,-6,-28,16
12915,-5,-5,-4,-16,2,0,38,14
12920,1,0,-1,5,2,-3,-14,-1
12925,4,-2,-10,-3,-5,7,-20,-3
12930,-12,-8,-6,11,-2,1,9,-20
12935,-1,5,4,7,7,-12,-58,-18
12940,-1,4,6,-7,2,-1,27,35
12945,5,2,-1,0,1,-1,-17,-19
12950,-3,-2,-22,-2,-2,-5,-38,-36
12955,-4,-7,30,8,4,4,25,9
12960,7,7,9,8,-1,0,19,61
12965,-9,-6,-16,-7,-1,7,12,-42
12970,2,1,-8,2,-4,-7,-12,-13
12975,-1,0,14,18,-20,-6,-34,3
12980,-4,-8,-4,-13,19,-5,-23,-32
12985,2,8,-1,-4,19,-1,28,62
12990,0,-5,5,-2,-61,1,51,38
12995,0,1,-13,-3,-4,-6,-45,-47
13000,-3,-2,1,7,19,2,-22,-25
13005,-4,-6,-5,-1,2,-2,-7,1
13010,5,3,4,12,15,2,23,37
13015,1,0,-27,-26,2,6,17,-18
13020,-4,2,21,13,-15,-7,-10,-54
13025,-6,-6,-2,-3,-4,-5,-26,22
13030,4,4,10,8,13,8,19,16
13035,1,-4,-4,4,-13,-1,-29,5
13040,4,4,-9,-10,12,14,33,11
13045,-8,-7,-13,-15,-8,-9,-12,-39
13050,-2,0,-8,-2,1,-7,-4,19
13055,-1,2,25,49,11,5,21,0
13060,2,1,-10,-34,-10,9,1,0
13065,5,0,2,10,-5,-5,-43,40
13070,-9,-4,1,-3,2,0,11,-70
13075,1,2,-6,6,9,-4,28,39
13080,1,1,-14,9,-9,6,31,-9
13085,-2,-2,20,13,6,3,-20,-3
13090,2,1,-3,-5,6,4,-3,3
13095,-2,1,6,-13,-1,-9,-61,-23
13100,2,-4,-2,4,-4,4,41,37
13105,-7,4,-8,-12,-9,-14,-12,-41
13110,4,3,8,2,6,2,-44,23
13115,-3,-1,-4,5,2,2,50,-8
13120,0,-2,-3,-19,-7,-1,5,11
13125,-8,-7,-5,13,-6,-1,-18,-14
13130,-1,-3,4,5,33,4,20,-12
13135,4,0,-9,-28,-34,4,11,19
13140,1,2,-9,-55,6,-15,-4,22
13145,-2,-1,28,11,10,7,21,-12
13150,-2,-3,1,12,13,-2,-29,-18
13155,0,-5,-5,-4,5,4,35,8
13160,2,3,0,18,-5,0,3,3
13165,-1,-1,-14,-7,-6,2,0,35
13170,6,0,9,-21,-23,0,17,6
13175,-5,1,5,19,-7,-8,-28,-13
13180,-11,-5,12,16,7,-7,-18,-39
13185,6,-1,-11,1,5,-1,-25,11
13190,4,1,-3,7,2,6,59,25
13195,-7,-7,-10,-11,5,2,-65,-57
13200,-1,14,9,5,-11,-12,-12,-26
13205,2,-5,-8,-4,-1,1,16,-1
13210,1,0,2,8,0,-6,-17,27
13215,6,0,-4,-33,-13,1,11,26
13220,-9,-7,-2,7,2,-3,-55,-40
13225,3,6,6,29,0,-5,53,5
13230,3,-1,-5,-11,-5,8,31,46
13235,-2,-3,0,-2,-5,-15,-39,31
13240,-4,-3,4,16,-6,-3,0,-33
13245,3,1,0,20,-9,-1,2,10
13250,-7,-3,-2,-21,-26,-7,-47,-109
13255,4,2,1,11,20,9,51,47
13260,2,-4,-5,9,1,-2,-44,-24
13265,-4,0,-33,-15,-12,4,62,35
13270,-2,3,50,19,6,-5,-44,-4
13275,0,-3,-17,-17,-24,-2,58,15
13280,10,1,22,23,39,8,20,59
13285,-7,1,-14,-33,0,-1,-44,-87
13290,-8,-2,7,-3,2,-5,-50,-18
13295,2,0,-2,24,6,-2,2,8
13300,0,1,-5,-25,-17,3,-2,15
13305,-3,-12,2,-7,2,2,-8,-17
13310,1,1,-14,10,5,3,13,9
13315,-2,2,7,-12,-1,-2,-12,-22
13320,0,-5,-11,7,-9,-7,-1,12
13325,5,0,7,-7,10,1,42,43
13330,-2,-2,-12,-13,-10,-3,-32,-21
13335,2,-1,2,-1,19,6,19,20
13340,0,5,3,16,-11,-3,-30,-38
13345,3,3,3,-16,-6,1,-17,-7
13350,-4,-5,-6,19,4,-16,-29,20
13355,-9,-2,-1,10,7,5,53,-35
13360,-2,-9,-10,-21,-6,0,13,23
13365,2,8,6,-7,25,6,1,17
13370,0,-1,-9,4,2,-1,26,15
13375,4,-2,-62,3,-4,-2,-25,-14
13380,-4,5,87,27,1,3,-18,-2
13385,-1,-2,-2,11,-5,-5,-12,3
13390,2,-1,-9,-26,5,1,21,37
13395,-2,-3,3,-3,-2,-6,12,-32
13400,-5,-4,-26,-4,3,8,59,-14
13405,-2,-2,-3,-13,-33,3,-35,-8
13410,1,1,3,10,39,-7,-37,-31
13415,-2,4,15,-2,-11,6,11,32
13420,-5,-12,-18,9,3,-13,-5,24
13425,4,10,9,10,-1,3,13,14
13430,-6,-3,-14,-13,-19,-1,19,-24
13435,1,2,13,13,10,7,19,-1
13440,-4,1,-10,-20,-7,0,-44,-13
13445,-5,-8,-7,-5,0,-2,18,0
13450,-3,-4,-6,18,-1,-4,20,5
13455,-7,-5,14,-49,-8,-6,-41,-30
13460,3,1,-5,-11,36,9,10,1
13465,1,-3,6,12,-45,-8,2,34
13470,5,5,-4,-1,-21,8,-9,-9
13475,-2,-2,4,-9,6,-7,-1,1
13480,-3,1,-10,-16,5,4,35,9
13485,1,1,-2,-2,4,-5,-12,-23
13490,0,0,14,12,2,-2,6,-2
13495,-11,-8,-44,15,-10,-8,-54,-31
13500,-1,-1,36,12,-5,-1,31,2
13505,2,-2,-2,-1,4,-1,18,5
13510,-3,-8,8,9,-3,5,19,30
13515,4,10,-8,-41,-5,-14,-57,-12
13520,-3,2,-14,-8,-5,-2,-6,-28
13525,-4,-4,1,1,-3,0,0,0
13530,7,-1,-9,-7,13,2,6,15
13535,-5,-5,15,9,3,11,54,30
13540,7,2,-13,15,6,-6,-32,14
13545,1,5,13,-7,13,5,-4,-44
13550,-10,-6,-16,-35,28,1,-19,-3
13555,4,-2,7,8,-22,-1,2,18
13560,-3,2,-4,-28,-21,-3,1,-21
13565,-1,-1,-9,21,12,-6,-45,-26
13570,5,2,2,-5,7,15,105,66
13575,2,2,9,6,8,3,-1,6
13580,-5,-7,-16,-1,-9,-8,-71,-16
13585,-4,-2,0,-12,0,-2,-5,22
13590,-9,0,-2,13,-19,-4,8,-53
13595,3,-7,8,12,15,4,31,14
13600,5,13,-23,-16,-12,0,9,14
13605,-4,-6,11,18,1,-8,-8,-14
13610,8,7,6,10,-14,-3,-21,1
13615,-6,-5,-2,6,0,-3,-11,-18
13620,5,-3,3,27,29,8,56,33
13625,-3,-2,-7,-8,57,-13,-70,12
13630,-16,-8,-8,-33,-66,-3,0,-69
13635,3,1,-8,4,20,-5,5,53
13640,-14,-8,-14,-2,-53,-8,2,-72
13645,3,4,17,29,38,7,7,16
13650,-2,-3,-7,-23,10,2,0,9
13655,3,6,12,0,-1,8,11,-12
13660,0,-3,-1,7,-4,-7,-13,9
13665,-7,-4,-12,-11,-33,-3,-14,-36
13670,6,4,3,-5,12,-10,-58,31
13675,6,5,7,26,-14,6,53,40
13680,-8,-11,-2,-37,22,13,-3,-55
13685,-3,3,-5,-13,-20,-11,1,6
13690,5,10,-10,13,9,2,-4,-14
13695,-2,-5,21,-2,-9,-8,-44,0
13700,-1,-1,9,19,1,-3,3,19
13705,-1,-4,-3,-13,35,13,16,28
13710,-3,-7,-19,9,-29,-5,30,-11
13715,1,1,-4,-2,9,5,-1,3
13720,0,0,9,-12,9,4,-12,-16
13725,2,6,10,28,-10,2,36,10
13730,1,-4,1,-49,16,4,-13,26
13735,-3,1,-14,4,-7,-2,-21,-14
13740,0,-3,-9,-3,-10,-5,33,17
13745,1,0,7,-7,-15,-1,9,0
13750,-8,-2,-8,5,-9,-8,-24,-36
13755,-2,-3,6,2,30,4,30,11
13760,-4,-1,-3,-3,-7,-9,-61,-24
13765,6,3,-4,-9,-17,0,-7,3
13770,7,4,7,7,-4,3,17,6
13775,-2,1,2,-11,-6,3,9,-7
13780,-8,-9,-7,-6,29,-10,51,59
13785,-6,-6,-25,-8,-10,-2,-21,-12
13790,4,8,23,31,9,-7,-8,-4
13795,5,3,-3,3,-2,-5,-25,-3
13800,2,2,-2,-16,1,2,-47,8
13805,-4,-9,-28,7,-7,-3,-12,-52
13810,-11,-5,42,23,-64,-7,-10,-19
13815,0,0,-21,-22,39,6,9,-17
13820,6,2,22,18,1,3,15,22
13825,-1,-2,2,-2,-7,-6,-14,2
13830,6,-3,-15,-6,15,14,29,50
13835,-10,2,1,10,-15,-14,-31,-58
13840,5,3,-3,1,-15,5,30,49
13845,2,3,2,-12,-6,-2,5,42
13850,-4,-4,-4,2,21,-2,-3,-68
13855,-2,-7,5,28,-9,-3,-17,10
13860,1,4,-11,-40,-1,8,20,-13
13865,6,-2,9,-31,4,5,6,2
13870,-8,2,-10,2,-17,-13,-31,26
13875,-10,-3,-4,-8,19,-2,-6,-31
13880,4,2,7,35,10,7,9,19
13885,-8,-5,-3,1,-12,-5,-6,-35
13890,0,-3,-2,-2,11,-1,40,21
13895,1,-1,-2,-2,24,-8,-42,-20
13900,-5,-3,-5,1,-4,5,42,-2
13905,2,2,21,9,-9,0,7,-11
13910,3,-2,-5,-1,48,5,14,19
13915,-3,4,0,-3,-11,2,0,0
13920,0,-1,-1,8,6,-4,-30,-28
13925,4,1,-1,34,5,9,41,2
13930,-6,-2,-10,-33,4,-4,-21,18
13935,-6,-7,5,-17,-28,-15,-68,-10
13940,-3,-1,-8,-9,-5,3,17,-14
13945,5,3,-9,6,-3,1,23,30
13950,3,1,5,6,-9,2,6,-36
13955,0,-4,-7,-7,1,4,-16,2
13960,4,3,-1,10,-11,2,-7,14
13965,-4,-7,0,-13,0,-2,1,45
13970,-5,5,-2,5,-3,-12,-50,-78
13975,2,-4,1,-4,-9,2,61,35
13980,8,6,-4,5,-4,1,-46,32
13985,-7,0,1,17,4,5,35,-40
13990,3,-3,0,-1,50,3,13,47
13995,-1,4,0,27,-11,4,-5,-69
14000,-10,-9,-1,-13,-41,-16,20,4
14005,3,-1,-10,28,1,5,7,24
14010,5,5,19,7,-1,4,-47,-3
14015,-6,-4,-9,1,24,1,49,25
14020,6,2,-9,-5,-3,5,-3,-21
14025,-12,-3,3,0,5,-3,-20,-18
14030,7,0,-4,28,-27,-2,12,42
14035,-2,-2,11,-7,-2,-2,-59,-33
14040,-2,2,1,11,6,3,44,-7
14045,1,-1,-9,-35,-3,-7,-52,-9
14050,-5,-17,-9,-12,-11,0,49,15
14055,6,11,-5,-9,-17,7,35,50
14060,-5,-1,-2,35,19,-3,-8,-34
14065,8,3,10,-18,1,4,20,36
14070,-14,-5,-8,1,-8,-11,-28,-70
14075,5,0,4,-3,-3,-3,2,8
14080,3,0,6,-2,8,0,-20,31
14085,-5,-2,-8,-4,32,4,42,-8
14090,3,0,0,-16,-33,4,-17,4
14095,2,-5,-6,-5,-6,-6,3,17
14100,-10,-4,5,1,10,-8,-14,-15
14105,-3,-4,-5,-12,-1,4,23,44
14110,1,0,-4,1,22,3,-1,-32
14115,-4,-8,-10,-16,-18,-2,-13,-40
14120,4,9,16,-1,-1,4,47,23
14125,-5,-3,2,8,0,-15,-51,-13
14130,-3,-3,-1,18,-6,-7,-29,2
14135,0,-2,-8,-21,-49,-10,34,47
14140,-12,-8,-6,-24,9,3,-18,-66
14145,2,1,5,-4,-13,3,6,9
14150,-1,3,5,7,0,1,17,6
14155,6,0,-2,6,19,3,-4,33
14160,0,-4,-6,4,-7,-3,32,40
14165,-7,-2,-6,-26,-20,-11,-58,-69
14170,4,-1,-4,-3,6,4,-17,25
14175,-2,-1,10,17,20,4,51,-47
14180,2,1,-4,-13,17,-7,-79,-5
14185,6,12,6,13,-37,9,41,7
14190,0,-6,-5,-5,-2,5,28,47
14195,-6,-1,0,2,-8,-14,0,3
14200,8,-3,8,27,15,4,-11,-42
14205,-3,-4,-15,-25,-20,-2,24,33
14210,0,6,14,5,14,-3,17,9
14215,-13,-3,-9,-12,7,2,-56,-68
14220,-4,-10,-5,-6,-23,-11,2,40
14225,6,3,10,28,39,3,-18,-27
14230,2,3,-8,-21,-11,7,24,-4
14235,7,-5,-15,35,28,9,49,103
14240,-4,6,30,-17,-47,-11,-40,-79
14245,-4,-3,-4,-1,2,-5,-49,-18
14250,4,-5,-1,-12,-2,3,42,85
14255,-7,1,-10,4,5,0,-32,-104
14260,0,2,-13,-1,6,-3,-12,43
14265,4,-3,5,-1,-1,13,27,-36
14270,-4,3,3,-34,-19,-9,-28,-1
14275,3,-1,8,-13,6,5,-11,25
14280,-2,-4,-12,4,15,-10,5,36
14285,-9,-2,4,21,0,-2,-29,-100
14290,8,-3,-8,7,29,5,27,97
14295,-13,0,13,-5,-41,-2,0,-114
14300,1,1,-2,6,-13,-2,14,16
14305,1,-2,6,-8,18,-9,-35,32
14310,2,3,1,9,21,6,-20,-2
14315,8,-3,10,3,-3,5,26,13
14320,-5,8,-12,5,10,1,-6,-20
14325,4,-6,-7,-8,-14,-3,42,84
14330,-14,-4,-6,0,-16,-2,-22,-124
14335,9,3,7,7,26,6,-14,127
14340,-12,-5,-8,-21,-5,-7,1,-85
14345,1,-1,1,-1,-22,5,44,41
14350,-12,-7,-12,-1,15,-13,-38,-35
14355,2,2,-5,-7,-11,-3,-6,-12
14360,7,-5,3,-9,12,13,30,78
14365,-4,4,-5,5,-5,-2,-8,-25
14370,0,-2,-7,-38,-8,-1,16,-24
14375,3,3,5,-2,-5,-1,-38,-9
14380,2,-2,-4,-8,-46,-2,15,37
14385,-8,-5,-2,12,44,2,-17,-43
14390,5,5,-3,25,42,7,25,31
14395,-10,-8,0,22,0,-18,-38,-47
14400,10,3,-2,2,22,4,-5,63
14405,-7,-3,-3,-1,-2,4,27,-19
14410,-3,-11,-1,17,-1,-4,-44,-50
14415,8,10,-27,-53,-29,-10,37,25
14420,-3,-3,36,28,10,3,29,8
14425,8,1,-4,33,15,-5,-30,57
14430,-11,1,6,-3,-20,3,-5,-91
14435,-4,-6,-3,-6,-1,-1,0,4
14440,8,1,-22,26,-54,-5,0,45
14445,-5,1,18,-36,-5,-7,-14,-67
14450,2,1,7,-4,-12,4,-19,9
14455,3,5,9,11,-4,-1,19,36
14460,-4,-1,-8,-11,24,-2,-16,-40
14465,-10,-10,-10,-12,-17,-2,18,34
14470,5,2,-8,6,0,-8,16,13
14475,-6,-10,-4,-11,11,-2,-35,1
14480,1,8,2,-3,15,8,14,-47
14485,5,5,0,-7,-14,-5,-17,17
14490,-2,-2,5,-2,-11,2,18,24
14495,1,-7,-1,5,18,5,43,8
14500,-3,-3,-1,4,12,-6,-68,-71
14505,6,5,-4,-40,-56,2,71,47
14510,-1,2,-9,-15,-15,-5,24,31
14515,4,2,-9,6,14,3,-16,-6
14520,-6,-10,18,-30,16,-7,-27,61
14525,5,7,8,16,27,8,25,-89
14530,-1,-3,0,11,-11,1,0,38
14535,-1,-2,-10,-4,-12,-3,-3,-5
14540,4,2,-2,-5,11,14,26,9
14545,-4,-4,7,11,10,-4,-1,44
14550,4,1,1,11,-13,-1,15,-29
14555,-3,-2,11,9,36,10,50,23
14560,3,6,-25,-54,-4,-6,-13,-38
14565,1,-9,9,0,-3,3,-5,7
14570,2,8,0,2,-3,0,-5,6
14575,5,1,-1,-13,-12,-1,1,30
14580,-10,-6,7,23,-20,-5,-50,-53
14585,1,0,-10,-1,2,-1,41,49
14590,-8,-4,0,-14,24,5,-25,-68
14595,-4,3,5,17,-41,-6,-21,-12
14600,-2,-4,-4,-14,-32,3,-10,6
14605,-1,-2,-19,3,19,-4,27,18
14610,2,2,32,34,7,0,5,14
14615,3,3,5,-17,1,-4,-25,34
14620,-3,-8,-2,10,14,4,36,-71
14625,5,10,-4,-6,-6,7,-36,65
14630,-10,-10,-19,-23,-18,-19,-31,-57
14635,-8,-6,-5,16,5,1,30,10
14640,-1,5,25,46,5,-1,-14,-1
14645,1,-5,-7,10,-13,-8,-21,3
14650,-3,0,1,-16,24,7,3,-18
14655,0,1,-3,-3,0,5,-32,25
14660,-1,-2,-11,8,5,-3,34,0
14665,6,1,7,3,9,3,-16,12
14670,0,-1,-6,-2,-13,15,73,16
14675,-1,-1,-3,12,1,-6,-49,-48
14680,2,3,11,-2,40,2,35,51
14685,-8,1,6,-2,-8,-5,-74,-70
14690,0,-2,-3,-1,-38,-16,-57,-9
14695,1,-1,-1,-36,32,6,52,27
14700,-1,-3,-8,-5,0,10,20,-7
14705,0,-2,-2,4,15,-6,-18,-21
14710,6,-8,1,8,2,1,15,87
14715,-1,11,4,0,2,4,-6,-60
14720,2,-3,-14,-6,-18,-4,9,28
14725,-8,-6,-1,-9,-10,-10,-39,-35
14730,3,-1,-3,-3,-5,0,15,-7
14735,1,1,8,11,1,-2,-14,6
14740,-3,-2,-9,-19,-3,5,25,5
14745,-5,-6,-4,10,-12,-7,17,-6
14750,3,2,-1,-3,14,-3,-26,8
14755,5,-1,-4,2,-3,7,29,33
14760,-9,0,5,2,4,-14,-56,-56
14765,0,-5,-3,18,-34,-3,6,6
14770,-8,0,-4,-23,28,1,8,24
14775,1,-3,-10,-61,-59,-8,-12,2
14780,4,3,8,18,6,7,-4,-30
14785,6,1,4,6,8,14,72,54
14790,-5,4,-3,-24,-9,-10,-44,-35
14795,-4,-9,-12,10,15,-4,-13,9
14800,5,10,11,20,7,-3,20,-11
14805,-4,-3,-1,7,-4,-2,-33,-7
14810,0,-1,1,17,-4,1,28,5
14815,-1,-4,-9,7,-3,-3,18,18
14820,-3,-7,-20,-17,-21,-15,-50,2
14825,-8,0,26,-18,-1,10,22,-68
14830,4,1,-4,10,5,2,-7,26
14835,-4,-4,6,7,2,-10,-2,-24
14840,0,-2,-1,2,-2,-2,-34,16
14845,6,1,-11,-13,25,3,-6,25
14850,-1,3,3,15,-30,-1,-8,-47
14855,-3,-3,11,-10,-45,6,60,35
14860,-3,-4,-11,10,-1,-13,-32,-17
14865,-2,-2,-9,-8,12,1,9,9
14870,0,-3,1,-2,6,-3,-14,-6
14875,3,5,6,32,21,8,-19,-19
14880,-1,6,3,3,-7,2,53,42
14885,-5,-8,-11,-11,4,-4,-14,-47
14890,-1,1,9,8,22,7,8,-1
14895,-5,-3,1,26,-39,-5,1,-45
14900,0,-5,-19,-87,15,10,26,49
14905,2,2,12,-3,0,-5,-22,-4
14910,4,3,-18,8,-7,-2,-23,-6
14915,-3,-3,20,5,10,3,11,11
14920,-6,-3,1,15,-12,-5,-38,-27
14925,2,-4,-11,28,35,6,43,19
14930,5,3,0,6,8,-2,-30,12
14935,-1,1,-2,-13,8,-4,16,-11
14940,2,-2,1,10,-9,-7,-45,18
14945,-8,-2,-2,-13,-9,-4,14,-53
14950,-1,-3,-16,16,10,0,0,7
14955,7,6,30,-18,26,13,-12,9
14960,1,-6,1,13,11,14,81,39
14965,0,12,-9,-3,-27,-10,-42,10
14970,-7,-8,2,-7,41,-6,-11,-24
14975,0,0,-9,42,8,-4,-19,-25
14980,2,-1,0,-13,-6,4,10,0
14985,6,-1,0,5,-10,1,-42,8
14990,-1,-2,6,-6,-14,1,48,19
14995,-1,-5,-9,14,16,-19,-44,27
15000,-10,1,8,26,9,0,-22,-77
15005,-2,-3,-7,-21,-4,-7,8,-4
15010,3,2,3,-7,-12,2,21,8
15015,-5,-6,-10,-18,0,1,3,1
15020,3,-2,-2,12,-6,-3,8,2
15025,3,0,1,-4,-1,2,46,42
15030,-2,-15,-5,-8,-14,-4,-38,10
15035,-9,4,-1,-13,-1,-9,33,-8
15040,2,3,4,36,-56,2,-14,-44
15045,-4,-1,2,16,-7,-8,-31,-1
15050,3,1,1,-10,15,5,-1,5
15055,-1,-2,-6,0,5,-2,-7,-32
15060,4,2,-1,-9,3,-6,31,44
15065,4,0,2,21,6,5,17,28
15070,-6,-5,-5,9,-31,0,12,-19
15075,0,1,-9,-3,23,4,-8,-20
15080,-7,-6,6,-6,2,-10,-56,-10
15085,-1,0,-6,-41,-4,-6,32,-4
15090,-1,1,1,-2,2,-6,-35,13
15095,2,1,-5,1,-2,11,22,0
15100,5,1,-15,-11,11,9,24,38
15105,-11,-14,16,8,4,-10,-27,-59
15110,1,10,0,17,-11,-6,6,-12
15115,0,4,-10,-57,-49,-5,-29,-8
15120,3,-4,2,18,49,2,16,-2
15125,1,4,-5,-13,-16,4,-1,-1
15130,0,-5,3,5,13,6,42,72
15135,-2,0,5,13,-6,1,32,-3
15140,-7,-1,-2,-19,6,-3,-6,10
15145,3,-1,-8,-7,1,3,-33,-27
15150,4,6,13,10,-8,-4,3,10
15155,-5,-1,1,11,-4,-2,-18,-20
15160,-6,-5,-1,-16,-21,8,36,-16
15165,-1,-4,-2,18,37,-7,15,40
15170,-1,-1,1,10,-28,-8,-42,-18
15175,1,-4,2,1,28,5,20,15
15180,6,6,6,19,1,5,-16,-8
15185,-5,-1,-5,-62,-25,-6,-8,-5
15190,2,1,-27,3,17,-1,-10,15
15195,-2,-6,21,-13,-22,-6,5,-8
15200,-8,-7,6,-3,-10,-5,-18,-14
15205,10,8,-4,13,21,10,17,29
15210,-7,-3,1,-15,-83,-10,-7,-49
15215,4,-2,-5,12,31,8,24,32
15220,6,1,-2,-15,-18,-2,0,53
15225,-10,-4,-2,21,31,0,-66,-83
15230,0,-3,-2,-20,-2,-6,30,34
15235,-3,-2,-4,32,5,-8,-20,-46
15240,0,-2,-2,-40,-17,-6,-13,1
15245,1,0,0,0,-9,17,17,43
15250,0,0,1,-11,-8,-2,50,24
15255,1,1,3,20,22,-10,-55,-36
15260,3,0,-6,8,15,0,18,60
15265,-10,-1,2,36,-13,-2,-26,-95
15270,1,-5,2,-30,7,12,-6,11
15275,1,1,4,7,-50,-4,3,12
15280,-8,0,-22,-27,-18,-8,-39,-50
15285,13,10,25,20,45,1,26,115
15290,-7,-6,-19,26,-53,3,63,-68
15295,2,-2,26,-8,61,26,21,38
15300,-2,-1,-13,13,0,-21,-74,-48
15305,-1,-2,-4,-12,-20,-8,7,11
15310,0,8,7,0,22,-12,-55,-19
15315,-6,-6,-21,-1,-14,-6,5,13
15320,-2,-2,2,-10,19,11,41,-18
15325,-2,-5,-7,22,-4,10,93,44
15330,1,1,7,-13,56,-7,-53,-19
15335,-1,0,-4,51,20,4,-18,-22
15340,4,2,7,-3,-4,3,-9,25
15345,4,2,-3,-20,-29,-7,-5,7
15350,-5,-8,-19,-3,21,1,16,-10
15355,-5,-1,12,-4,-15,-13,-20,9
15360,0,-1,3,18,15,5,18,-30
15365,-4,4,-23,-12,19,5,-29,-47
15370,2,3,12,6,-4,5,65,31
15375,4,2,23,-8,2,4,16,27
15380,-1,-3,-4,3,-4,-4,-37,-16
15385,-1,-8,-6,-7,-19,-12,-35,16
15390,-7,-1,12,8,-14,0,-59,-52
15395,4,1,-23,-38,-27,3,15,52
15400,-3,-5,-11,58,8,6,46,2
15405,-2,3,25,-6,-29,-9,18,-29
15410,-2,-1,-16,0,1,0,-14,-3
15415,0,-5,11,-13,3,-5,-32,-13
15420,-3,-3,2,-3,14,2,12,16
15425,-2,-5,-1,-15,-26,-7,-20,14
15430,-5,-4,2,4,10,4,49,-22
15435,4,5,-31,-6,6,-10,-31,-4
15440,-6,-2,28,-19,-21,-5,-6,-17
15445,6,2,-7,8,32,11,44,33
15450,-2,-3,1,-15,10,-2,5,-15
15455,-3,-5,-18,7,-8,4,-15,-15
15460,1,-1,-6,-1,-9,-10,7,21
15465,-9,-2,-2,4,3,-2,-71,-60
15470,8,-6,-1,19,6,5,49,60
15475,-2,3,-12,-19,14,3,-4,17
15480,12,8,4,-15,11,6,18,38
15485,-13,-6,2,33,6,-7,-17,-63
15490,-1,-1,7,-14,2,3,-16,2
15495,-8,-4,8,-20,-40,2,53,-17
15500,3,-7,-6,12,30,11,46,28
15505,0,7,14,-5,20,-6,-44,-24
15510,4,2,4,66,38,-5,-65,5
15515,6,4,5,-2,1,12,3,17
15520,-2,-1,-32,1,-37,0,67,-11
15525,4,0,26,-20,54,7,1,19
15530,0,3,9,0,-6,-12,-16,-9
15535,-3,3,3,9,-2,-3,-6,-20
15540,0,5,0,-6,-2,8,-5,33
15545,-1,-15,-32,10,-1,0,-26,-54
15550,6,11,9,-55,-38,3,46,103
15555,2,-4,-6,63,23,3,-17,-74
15560,-10,-5,-6,-70,11,-4,-38,-16
15565,4,2,0,26,-36,-5,-23,30
15570,-5,-7,-6,-41,27,16,78,-14
15575,4,-1,-15,8,5,-3,-41,18
15580,1,4,19,20,-10,-1,1,-3
15585,-16,-14,-44,-6,-13,-8,0,-26
15590,3,5,-8,-1,-47,6,11,-18
15595,-6,-6,31,-9,18,-7,-66,-8
15600,3,7,7,0,-4,-4,65,29
15605,7,2,7,15,-17,-8,-3,85
15610,-10,-11,-20,-19,-8,6,-33,-83
15615,6,3,-4,1,13,3,18,29
15620,-5,5,1,20,-21,-4,-50,-70
15625,6,4,33,-15,17,4,13,7
15630,-1,-8,-13,-12,5,-13,-5,64
15635,-1,6,5,-15,-10,-6,-5,-23
15640,3,-3,22,37,33,5,15,68
15645,-8,-10,-21,-24,-26,4,49,-45
15650,5,3,27,-7,40,5,-67,-5
15655,3,1,-6,-23,-26,-13,-8,1
15660,-4,0,-13,25,-11,-1,12,-21
15665,-4,5,-2,-59,-1,-1,-33,0
15670,0,-10,2,-4,-6,-8,-6,-9
15675,-7,-10,-25,9,-37,-2,39,34
15680,-3,3,52,15,51,0,-33,-3
15685,-2,3,7,41,7,6,17,-75
15690,-4,2,-7,-5,-13,1,-23,19
15695,-9,-11,-19,-7,-4,-16,13,-18
15700,0,-7,-15,-24,-57,-6,1,21
15705,6,1,-20,1,-6,-3,11,39
15710,0,11,29,11,-14,3,-1,-29
15715,9,-2,-23,7,33,0,9,28
15720,-2,10,30,-52,4,-4,-67,-53
15725,-4,-5,-9,-9,-18,1,62,30
15730,2,-6,-20,23,7,-9,16,8
15735,0,2,5,-8,-16,0,-24,-4
15740,-7,-3,-17,27,-13,-15,-68,-73
15745,6,-1,-10,5,17,16,10,81
15750,2,6,39,26,24,13,7,-45
15755,-8,-3,14,-16,7,4,11,11
15760,6,-5,-29,-11,-31,-5,27,20
15765,-4,2,24,16,1,-2,13,-34
15770,-8,1,-12,20,21,-3,-43,-17
15775,5,2,4,-11,-59,3,45,41
15780,-6,-10,-6,2,18,9,-25,-28
15785,5,1,-13,-51,-23,-17,-1,69
15790,9,6,-9,-5,-12,15,100,6
15795,-22,-2,23,7,50,-11,-54,-104
15800,-6,-6,-33,-16,-7,-24,-23,-19
15805,4,1,17,1,7,8,25,49
15810,2,-6,-15,9,-14,-14,-35,-30
15815,-6,0,5,-25,-23,7,25,29
15820,10,-1,-17,24,42,25,39,22
15825,1,-1,-9,-11,9,-10,2,18
15830,-8,1,28,15,-9,-15,-46,-34
15835,10,5,0,-16,-1,1,14,-21
15840,-14,-9,-3,-2,5,-9,35,-2
15845,6,-7,-2,5,-11,15,29,17
15850,-9,-4,-12,-8,-9,-8,-28,-19
15855,3,10,0,-2,12,1,13,31
15860,0,-4,3,-14,13,8,15,21
15865,-6,-3,-20,24,6,-2,-13,-33
15870,-5,-5,17,13,14,-2,-9,30
15875,5,2,5,8,-1,2,6,13
15880,7,4,-14,1,-27,8,7,-27
15885,-11,-2,-3,4,18,-5,-37,-68
15890,10,2,4,6,18,9,31,70
15895,0,0,15,0,20,-3,-25,-55
15900,1,1,3,-4,-26,1,11,64
15905,1,1,7,-12,-26,-5,-7,23
15910,0,1,-41,16,-9,-3,-7,-27
15915,7,-1,18,-23,-1,12,14,37
15920,-11,-4,25,15,-4,-4,14,-46
15925,-5,3,-7,-6,1,-11,-50,-66
15930,-4,-4,0,8,3,1,47,29
15935,-6,-8,-17,27,-22,-8,-19,6
15940,5,-1,11,2,10,4,4,32
15945,7,10,-7,-5,44,12,-8,3
15950,5,-1,-19,-19,34,-4,-35,-24
15955,-2,-8,4,13,2,9,43,28
15960,0,5,-12,-14,30,2,-4,-7
15965,-6,-2,24,19,-2,-6,-31,19
15970,3,-3,-3,29,22,9,4,-14
15975,-4,1,-10,-5,-6,0,-44,-59
15980,0,-2,-5,5,-4,-5,-1,18
15985,4,-2,-2,-9,-14,-1,13,13
15990,5,3,1,-3,-11,3,-49,43
15995,-7,-2,-1,8,-1,-7,21,-58
16000,-12,-9,-9,-24,-17,1,67,28
16005,-11,-5,1,1,-25,-35,-83,-38
16010,-7,0,-9,-25,-13,-1,29,-18
16015,8,8,22,15,-38,-5,-38,12
16020,8,0,-5,-15,-9,9,0,14
16025,-3,-11,4,-34,5,10,20,-10
16030,2,11,-10,4,4,12,28,19
16035,-1,-6,-26,6,-9,-11,-12,28
16040,-2,-3,3,-42,-4,-16,-13,-17
16045,-7,9,24,19,16,7,44,-43
16050,-4,-2,9,-17,-7,-5,-5,25
16055,-7,-6,-18,8,11,3,8,-50
16060,1,-4,-5,15,-14,-1,-14,11
16065,11,4,-10,5,5,4,-1,11
16070,-5,-6,-3,-59,-41,-3,-18,3
16075,10,7,-10,13,64,8,51,44
16080,3,3,22,9,-21,3,-24,66
16085,-9,-8,-27,-24,-15,-3,-4,-69
16090,-2,7,27,14,1,-16,-82,-22
16095,-8,-6,-4,11,-15,0,49,5
16100,-4,2,-3,-37,18,-6,-9,-24
16105,7,-4,-14,9,-6,12,46,69
16110,-3,-10,-2,-3,-15,0,8,3
16115,13,13,21,-32,9,-2,-44,9
16120,-5,-6,-15,36,1,7,52,-20
16125,-11,-4,-1,-2,-25,-16,-48,-18
16130,2,-4,13,-11,-2,-8,1,-28
16135,-7,-8,-12,-7,8,2,-19,-23
16140,4,4,-2,8,5,5,12,22
16145,7,4,14,15,-2,-1,-13,33
16150,-3,-1,-8,10,9,0,1,-18
16155,-1,0,-9,-11,-14,-3,22,17
16160,6,3,-6,1,-46,1,-41,-29
16165,-2,-6,19,-46,20,-8,-24,5
16170,-6,-3,-35,1,10,-2,19,19
16175,-3,7,57,5,-15,-6,-40,-53
16180,-1,-3,-1,5,15,-3,37,13
16185,3,2,1,34,-7,2,44,23
16190,3,-2,-7,-29,-7,5,-12,-2
16195,4,-5,-7,4,3,-1,-25,2
16200,-4,2,-19,14,13,-2,-36,-11
16205,2,0,29,24,13,1,53,10
16210,-3,6,10,14,-32,-8,11,28
16215,2,-4,-22,-9,-3,-1,-4,4
16220,-2,3,8,13,14,-3,-36,-60
16225,-2,-4,-16,-5,-16,-9,-55,0
16230,-5,-6,-2,1,4,0,74,18
16235,-1,-4,-8,-2,0,-1,-22,30
16240,2,4,5,24,-4,4,5,-14
16245,3,6,1,-42,36,11,-13,-21
16250,5,1,-14,2,-41,7,-3,44
16255,-20,-6,7,-10,34,-9,40,-63
16260,-11,-9,1,12,11,-4,-24,1
16265,1,0,-8,4,-2,1,-55,-27
16270,-1,-5,-4,16,-1,-13,26,38
16275,1,2,-8,-25,-25,1,-5,21
16280,6,0,6,-10,5,2,18,-15
16285,-3,2,-16,9,-9,-2,16,1
16290,7,2,42,30,-12,5,-31,-8
16295,-11,2,-40,-28,21,-6,33,-21
16300,-5,-4,43,-21,17,-8,-3,6
16305,0,1,-5,5,-16,13,4,-13
16310,1,-5,-8,-1,9,-5,-6,17
16315,0,-4,-6,14,-2,2,-7,21
16320,5,9,-9,-6,-8,0,-20,-5
16325,-2,-5,-7,-6,-3,-5,16,22
16330,0,3,5,-7,22,11,11,-25
16335,16,0,5,19,-3,1,1,57
16340,-7,6,-6,4,42,14,27,-57
16345,-13,-11,25,0,-28,-24,-37,36
16350,-6,0,-8,-6,27,-1,-13,-37
16355,1,-1,-2,40,-11,5,23,48
16360,8,-3,-5,-51,-5,-2,-22,15
16365,6,4,-8,5,-1,12,57,12
16370,-1,-1,-2,-10,5,-5,-43,-56
16375,9,8,0,17,5,-8,-16,48
16380,-13,-7,10,23,8,4,7,-45
16385,-6,1,-5,-16,-8,-13,-75,-32
16390,-7,-9,-21,-16,4,-6,1,-15
16395,-2,-2,9,-13,-12,6,1,-14
16400,4,-2,-11,7,32,-9,-12,34
16405,3,-2,1,17,-48,4,25,-4
16410,5,2,-11,-13,37,5,-11,2
16415,-10,-8,19,-12,-22,-4,19,-60
16420,5,1,2,10,-7,-9,-47,22
16425,7,1,-6,6,22,14,109,71
16430,-10,-7,2,-9,-21,-8,-18,-6
16435,3,13,-6,-6,2,6,-41,-50
16440,-5,-7,-18,-14,-45,-12,-39,3
16445,0,0,16,5,42,1,13,17
16450,-3,-1,0,9,-2,-3,25,2
16455,-6,-14,2,0,-8,-4,-9,-27
16460,2,4,-16,1,-28,-4,1,35
16465,2,9,-10,17,13,8,20,-37
16470,11,3,5,-50,-7,1,5,50
16475,-4,-5,-1,23,2,1,3,14
16480,3,-5,3,12,5,-1,-15,19
16485,-6,3,-8,-11,11,-6,-49,-54
16490,-3,2,8,14,-15,10,35,-34
16495,0,-7,-6,13,-10,-7,13,25
16500,3,7,-18,-29,-4,6,33,-5
16505,0,-8,-5,10,0,-4,-42,5
16510,5,4,29,36,-7,0,1,22
16515,-4,0,-4,-18,22,3,-85,-43
16520,-13,-6,6,31,24,-7,33,-17
16525,-1,0,-11,-5,-23,5,53,39
16530,8,3,1,-28,-5,9,-53,25
16535,-1,0,-9,-44,5,0,64,-3
16540,-1,-3,6,13,-1,-5,-69,-24
16545,0,0,3,3,7,13,30,-6
16550,-5,-2,-15,23,0,-10,-18,-61
16555,0,-4,16,14,-11,6,28,54
16560,6,14,1,-15,1,-4,44,3
16565,9,-6,7,-10,-2,-2,-18,23
16570,-8,3,-3,-3,-12,3,45,19
16575,-1,-3,-13,0,37,1,-26,-12
16580,-9,-6,5,15,-39,-6,48,-49
16585,-3,-5,-24,-47,-21,-7,-84,-31
16590,2,1,30,20,-6,-5,37,24
16595,-1,-1,1,-6,-25,6,38,23
16600,-5,-4,-1,0,17,-2,-52,-36
16605,2,4,-1,21,-36,-9,10,-8
16610,-1,-5,6,36,-2,4,3,-6
16615,5,4,-3,-51,12,-1,9,30
16620,-4,-2,0,-18,-23,-5,-42,-13
16625,-6,-9,-30,-3,40,0,3,9
16630,-9,-10,11,8,5,-5,20,-43
16635,10,10,27,4,-6,6,-24,30
16640,6,4,-6,-7,2,-1,27,4
16645,-4,-3,9,1,16,-2,4,23
16650,5,7,-14,21,-8,6,-18,-52
16655,0,-5,-12,-35,33,9,17,9
16660,5,-3,4,-20,-25,-3,6,56
16665,-9,-1,9,-2,1,-3,-63,-13
16670,-5,-12,-19,-15,-5,-4,35,22
16675,4,5,-2,25,22,0,5,6
16680,-6,-1,1,15,7,4,-46,-20
16685,-3,0,11,5,-13,-3,31,-44
16690,-3,-2,-8,-21,-14,-3,4,4
16695,-5,4,-2,19,28,-7,-25,22
16700,-2,-15,-1,0,-2,3,34,-10
16705,6,14,-3,-33,-11,9,35,20
16710,4,2,-2,-16,20,-6,-39,13
16715,-3,-3,-5,0,-37,-2,34,0
16720,-4,-8,1,-1,3,5,-35,-13
16725,-1,-7,4,49,-3,-15,4,0
16730,-1,9,-7,-19,15,3,-23,-24
16735,1,0,-6,-8,-38,-8,16,27
16740,3,3,-8,-2,32,15,-2,-37
16745,-12,-10,-20,-10,22,-12,-32,-18
16750,5,1,27,22,-2,1,-3,25
16755,-9,-5,-13,14,22,-5,-25,-58
16760,4,2,8,1,-2,7,87,67
16765,9,15,14,5,3,-2,-25,3
16770,-2,-8,-22,-15,21,5,15,16
16775,-1,-3,4,11,-40,-1,-35,-58
16780,0,4,4,11,13,-5,-2,33
16785,-4,-8,0,-27,-11,0,5,-15
16790,2,-7,-16,-7,-4,-6,-7,85
16795,-4,3,-7,18,11,13,51,-82
16800,2,2,2,3,-18,-8,-36,24
16805,-2,-5,12,15,1,0,2,20
16810,-3,0,-10,-5,-6,-8,-5,-8
16815,3,-5,-6,-2,-4,-3,-10,39
16820,-5,2,6,-14,-40,-10,2,-40
16825,2,-2,-9,-8,-4,4,-19,-23
16830,-4,-3,9,-3,-3,4,10,-26
16835,0,2,0,25,-16,-5,15,26
16840,1,1,3,-27,14,2,11,23
16845,10,2,6,-1,-18,13,67,41
16850,-5,-1,-3,31,7,-13,-17,-10
16855,-11,-7,-4,-9,-3,-8,-17,-63
16860,1,6,-3,14,0,1,-7,4
16865,0,-5,-2,-13,-40,-5,13,8
16870,2,2,-5,-34,20,-3,-68,-27
16875,-4,-5,0,-7,-11,-1,-1,25
16880,-3,-5,-5,3,7,-5,-7,-9
16885,2,3,1,21,6,2,-14,0
16890,2,2,-4,-4,-49,7,75,27
16895,-1,-4,-2,-16,-28,-14,-48,3
16900,9,2,2,-9,-12,6,34,37
16905,-12,-3,-14,-12,23,0,-33,-62
16910,-7,-7,19,-16,-14,-8,41,3
16915,4,7,1,24,23,-5,-45,-18
16920,-8,-8,-9,-15,5,-10,-1,26
16925,4,-3,10,-20,-7,-1,0,-19
16930,0,13,-8,1,26,7,7,-16
16935,4,0,-2,-2,1,7,18,21
16940,-2,0,-9,32,-5,-2,6,5
16945,-4,-3,22,9,32,9,20,5
16950,5,-4,-5,23,-7,1,-19,3
16955,-13,-3,-4,-77,74,-10,-36,7
16960,9,2,-4,14,9,6,-36,-15
16965,-4,0,0,6,12,2,64,-17
16970,-3,-4,-11,9,-15,-6,-10,1
16975,10,6,8,25,12,6,-29,-1
16980,-10,-3,7,19,36,10,19,-24
16985,3,2,-7,-21,-13,1,21,35
16990,3,3,11,12,10,3,-44,-17
16995,1,-3,-10,-13,-28,-5,65,43
17000,-15,-6,-1,-10,-17,-20,-76,-82
17005,6,3,-34,39,-14,1,6,29
17010,-4,-1,30,-18,25,9,21,-2
17015,-1,-11,12,7,-33,5,25,13
17020,7,16,15,1,63,1,-13,3
17025,-7,0,-14,-1,24,-6,-30,-15
17030,-8,-6,-1,21,3,-4,-16,-32
17035,2,3,0,9,-25,4,5,9
17040,6,-5,-10,6,15,9,15,22
17045,-4,-3,7,-5,0,-17,-23,40
17050,3,4,0,-10,13,4,8,-34
17055,-9,-13,-5,12,-16,-2,-18,-47
17060,-2,3,-6,-11,-23,-2,36,10
17065,7,5,11,7,3,1,-10,9
17070,0,-5,-7,-5,-10,3,-7,10
17075,0,9,0,7,-6,-4,-20,-79
17080,5,-3,-3,-1,-17,-9,-32,27
17085,-4,-3,7,-7,-10,-3,16,-1
17090,2,-1,-14,-12,13,-2,13,43
17095,3,1,0,1,-24,-10,-24,-1
17100,-6,-6,-5,-7,-24,1,4,-11
17105,-7,-5,-21,-27,-29,2,55,-15
17110,-1,-5,12,20,8,-11,-38,-7
17115,0,11,56,-3,18,4,-46,-19
17120,5,-1,-5,-22,-5,2,49,21
17125,4,-1,2,38,-24,6,12,24
17130,-3,-3,-21,3,-23,-13,1,-33
17135,-3,-4,-17,-2,17,-7,-22,-12
17140,-4,3,-6,1,21,6,-3,12
17145,1,-3,5,1,25,-3,-4,2
17150,-6,0,-10,9,-13,5,1,-22
17155,-1,-4,-9,6,-22,-11,43,29
17160,-5,-13,-3,31,24,9,-18,-39
17165,0,5,-2,-75,-18,0,26,37
17170,-2,3,1,-8,0,3,-45,-47
17175,-1,-4,-4,17,-8,-11,2,33
17180,-1,-3,9,11,-20,4,70,46
17185,-4,-4,-15,7,2,-1,-59,-90
17190,3,-1,9,-7,-30,-7,-6,61
17195,-5,2,-10,-17,16,4,18,-7
17200,0,-5,-9,-11,-21,0,20,16
17205,-5,0,10,12,50,-6,2,-2
17210,2,4,-11,-5,22,6,-3,-23
17215,0,3,12,6,5,12,25,12
17220,3,1,15,-6,-11,-15,-84,-10
17225,0,-4,-19,20,6,6,51,16
17230,3,0,48,-33,-8,10,54,33
17235,-7,-1,-22,-21,28,-8,-52,-30
17240,0,6,26,-7,16,1,-30,-31
17245,2,-1,10,11,-2,2,13,8
17250,-11,-9,-25,2,-21,-22,-45,-37
17255,5,-4,-8,1,-10,17,82,68
17260,-3,-1,-5,-16,-15,10,7,5
17265,-5,1,5,1,-59,-11,-41,15
17270,-1,-3,-10,0,14,9,57,-15
17275,-3,0,6,0,10,-7,-87,-51
17280,-8,-5,-18,-22,-12,-4,60,-5
17285,7,4,19,13,3,-1,-26,1
17290,-5,-10,-10,13,7,4,7,24
17295,7,16,1,14,26,9,-1,14
17300,6,2,-1,13,-18,-12,15,18
17305,-3,1,2,-28,8,1,-50,-33
17310,6,-1,-3,-4,9,0,-15,29
17315,-2,-4,-7,2,-8,7,85,5
17320,-5,1,-4,14,4,-7,-85,-31
17325,-9,-7,13,-30,12,9,76,-20
17330,4,3,-8,16,15,-8,-60,10
17335,2,-1,18,-1,-23,3,36,14
17340,6,3,1,2,33,-1,23,38
17345,-9,-5,-26,-4,-12,-7,-34,-52
17350,9,7,33,19,17,9,13,32
17355,-6,-10,-2,-29,-16,10,54,-28
17360,3,7,-8,-7,16,-10,-88,-2
17365,3,2,7,17,-9,-5,-4,7
17370,2,-3,-19,-25,-14,11,72,48
17375,-7,-4,-6,30,-3,-6,-44,-26
17380,3,-5,2,-6,-7,-2,28,1
17385,4,1,-3,7,15,2,-21,23
17390,-3,-1,-4,-2,-19,-8,-25,26
17395,3,1,7,31,33,4,2,-10
17400,-8,-3,-10,-57,42,4,6,-53
17405,-2,0,10,11,-21,-11,-15,19
17410,2,2,-10,9,7,1,16,9
17415,-4,-8,-17,-29,-40,-7,-39,21
17420,-1,-3,6,-3,20,6,5,-9
17425,8,4,5,12,-1,-1,10,-26
17430,1,10,7,-10,12,1,-10,-7
17435,-3,-1,-22,-4,0,-4,-42,-4
17440,-2,-4,2,12,-36,5,110,30
17445,0,-5,2,26,-6,5,0,24
17450,-6,-3,-10,-5,15,6,-33,-34
17455,3,3,0,-16,-5,-9,-2,-10
17460,0,-4,-3,5,-22,10,12,12
17465,10,3,11,14,12,-8,-32,24
17470,-14,-11,-10,-15,-6,-9,-21,-55
17475,0,5,2,16,4,0,17,16
17480,2,-2,-4,-28,-10,4,43,33
17485,-6,-5,-12,-31,53,7,4,-8
17490,5,6,8,12,-5,-4,-15,-47
17495,-5,-5,0,-15,-11,-10,-22,36
17500,-7,-3,-4,20,-27,-4,-28,-37
17505,-1,3,-6,4,13,4,-10,-25
17510,-8,-9,4,2,-31,1,25,-20
17515,6,-2,-3,-23,52,2,13,27
17520,6,5,-3,5,-1,-5,26,49
17525,-10,-4,-6,-21,-23,-6,-1,-34
17530,2,0,0,-8,-5,2,-37,8
17535,3,-2,-12,7,-21,-7,8,35
17540,-10,1,33,29,31,-3,-44,-70
17545,7,2,3,-50,-47,-4,7,24
17550,1,-1,-19,-14,13,4,54,10
17555,-2,-1,-3,15,-3,6,8,13
17560,-2,-5,-4,-26,27,-4,-13,-2
17565,2,2,-3,10,13,6,26,29
17570,-6,-7,4,7,6,5,-40,-28
17575,3,14,6,10,-27,-14,-28,-30
17580,1,-3,-5,6,7,-2,14,22
17585,0,0,-4,11,-8,7,17,7
17590,-6,-2,8,5,4,-6,-4,-22
17595,-2,-8,10,-4,13,-3,-10,-18
17600,4,2,-11,3,-27,0,-3,21
17605,-5,-4,-1,11,-28,-12,-19,-17
17610,4,2,1,-5,31,2,7,39
17615,0,0,4,33,6,9,23,7
17620,0,1,-2,-5,-14,-10,-47,-20
17625,-5,-4,0,-3,4,5,17,-2
17630,2,4,4,9,23,-3,15,13
17635,-11,-9,-5,6,-5,-4,-37,-82
17640,5,1,-12,6,-6,4,-14,14
17645,-2,-2,29,-1,17,1,38,10
17650,4,1,-30,-21,12,1,-12,25
17655,4,4,35,4,3,-2,-20,-18
17660,-9,-15,2,0,-14,-3,40,-12
17665,7,11,-18,7,-10,6,23,14
17670,5,-2,2,5,-7,-8,15,31
17675,-1,-1,-4,-27,-11,-2,1,-8
17680,-3,1,-5,2,-15,-2,-5,-10
17685,-6,-9,-2,31,11,5,19,16
17690,1,7,6,12,-39,0,-8,-21
17695,8,-1,-12,-36,15,6,41,47
17700,-3,2,0,-1,15,-10,-47,-14
17705,-1,-2,3,10,7,-5,-14,-15
17710,-8,0,2,1,-17,-11,-39,-29
17715,4,-4,-9,-11,-33,0,-2,26
17720,1,2,10,9,-2,5,1,-27
17725,-3,-2,1,1,8,-1,-36,-13
17730,2,-5,-9,-14,-28,-1,46,31
17735,-6,-1,-6,12,50,-2,-15,-32
17740,0,4,-4,25,7,11,66,47
17745,12,0,9,-21,-14,-2,-69,-14
17750,-7,-3,5,-35,-17,-5,30,28
17755,5,1,-18,-18,-12,8,17,33
17760,-4,-3,6,12,-28,-6,-43,-41
17765,-2,-2,-17,8,1,-6,39,0
17770,-2,1,2,26,26,-5,-72,-45
17775,-2,-6,5,2,-8,-1,17,11
17780,-4,2,-7,-26,12,4,39,-10
17785,3,0,0,-2,2,5,-8,17
17790,2,0,-2,-5,-12,-8,-56,-6
17795,-14,-7,-9,-2,-26,-3,-25,-29
17800,6,0,12,21,-9,5,55,28
17805,-1,0,-4,33,22,-1,2,15
17810,-12,-7,1,6,4,-6,-16,-7
17815,6,5,-17,0,5,6,32,-27
17820,-8,-10,5,-22,-21,-11,-40,-12
17825,-4,10,-18,18,-42,-3,-1,-36
17830,0,0,7,-11,-8,0,-6,0
17835,4,1,24,0,3,-2,-2,43
17840,0,-4,-8,-7,-12,8,32,3
17845,-5,-7,-4,-17,57,-2,-9,1
17850,5,1,-11,-7,6,2,-10,-6
17855,-4,1,3,5,-1,0,24,10
17860,2,7,4,10,-4,-6,-32,-20
17865,4,-1,4,2,4,1,4,66
17870,-4,1,-5,6,-9,2,-1,-57
17875,-1,-2,11,26,6,-2,-4,23
17880,6,2,-5,-29,21,12,2,49
17885,-10,-2,-3,-5,-3,-5,29,-87
17890,0,-5,-1,5,-10,-5,0,50
17895,1,2,-2,-2,-8,2,-7,-4
17900,-6,-5,-7,1,-12,-8,-23,-31
17905,4,1,4,-16,-15,4,24,27
17910,-3,-2,3,17,1,0,6,-37
17915,-7,-6,-2,-4,-10,-13,-39,-19
17920,5,0,-9,-33,-8,2,17,58
17925,8,-1,7,13,42,-7,-4,21
17930,-3,3,14,12,37,10,21,-46
17935,-5,-2,-16,-4,-4,-2,1,-13
17940,3,-5,-4,16,14,0,-25,9
17945,-4,1,-13,-15,-14,-3,-29,3
17950,-2,-4,39,-57,-17,7,38,16
17955,4,-2,-13,2,5,-7,-52,-16
17960,-4,0,1,8,-20,-14,5,-24
17965,7,4,1,-9,-3,8,49,25
17970,-7,-5,-21,8,-17,0,1,20
17975,5,3,4,-12,17,8,-30,5
17980,-3,1,2,0,1,9,58,11
17985,-8,-6,-8,-5,-33,-9,-85,-66
17990,12,4,0,4,11,-1,2,58
17995,-7,7,5,13,-3,-13,-8,-41
18000,4,3,-6,2,24,4,3,41
18005,-11,-10,6,21,-16,-7,13,-43
18010,-3,-3,-9,-12,10,5,12,27
18015,-5,-7,-4,-5,-10,-8,26,-23
18020,6,1,-6,10,5,1,-52,0
18025,1,0,0,-1,25,3,13,1
18030,1,3,5,35,-1,-8,-21,-28
18035,1,2,2,-1,41,6,28,22
18040,0,-1,-12,-4,-19,-1,-14,28
18045,-5,-7,22,23,1,-1,-1,-7
18050,-3,-4,-13,-2,28,6,29,-6
18055,7,4,-1,2,11,7,-27,13
18060,-1,4,7,12,1,-7,-37,-71
18065,2,-3,-9,-18,-4,6,48,77
18070,-1,1,-10,-16,-29,-2,19,-17
18075,-8,-4,6,-2,-35,4,8,-14
18080,0,-1,2,21,19,-2,0,-29
18085,-5,1,-4,-50,-10,-6,-31,-29
18090,-1,-6,-20,0,-7,1,-12,76
18095,2,-5,16,-3,-6,-1,11,-12
18100,-1,7,-2,-13,7,-7,1,-23
18105,5,5,-1,17,-19,0,7,6
18110,11,5,4,16,-2,3,-4,34
18115,-9,-2,0,-3,7,8,34,-34
18120,0,-9,-8,-31,1,-7,-55,13
18125,2,2,8,8,-2,-3,15,13
18130,0,-1,-4,-7,0,-5,-13,-4
18135,4,2,-12,0,-19,4,22,23
18140,-10,-2,17,8,35,-9,-22,-43
18145,1,2,-7,9,-1,11,9,13
18150,-1,0,6,-12,-9,-8,-28,-1
18155,-8,-7,-25,1,9,-3,20,-16
18160,1,1,9,-18,-2,1,15,15
18165,0,-4,2,-10,-10,-6,-31,11
18170,-1,2,0,2,22,3,28,-21
18175,0,-1,-5,14,-17,1,-15,5
18180,4,-1,5,-12,46,18,40,44
18185,-4,-3,-3,3,-44,-14,-38,-18
18190,-2,-1,3,0,8,-12,-35,-35
18195,6,3,1,4,4,-1,-7,77
18200,-2,-8,1,17,-15,4,27,-45
18205,-1,5,-4,-16,8,0,-12,-17
18210,-2,1,3,43,-9,-3,-8,3
18215,-8,-7,-20,-34,19,-7,-3,0
18220,-1,-4,14,0,-46,2,-1,29
18225,-4,1,5,14,40,0,-37,-60
18230,4,2,-1,10,-6,1,7,2
18235,7,4,5,-13,-16,2,21,55
18240,-11,-4,-28,-24,-39,-11,21,-24
18245,1,1,23,25,-1,2,-29,-16
18250,-4,-2,-8,-1,-23,11,46,-40
18255,6,2,23,9,33,15,-18,5
18260,0,1,-9,8,-10,-17,-20,14
18265,-5,-6,5,-12,-3,-9,-46,-6
18270,3,-1,-6,-26,-34,-6,25,30
18275,-2,1,-2,5,16,-3,9,-51
18280,2,3,2,7,-10,4,-13,9
18285,3,-1,-9,-3,19,4,16,34
18290,0,-6,2,-5,-3,0,16,-22
18295,4,7,9,-20,-13,-4,-11,33
18300,-8,5,-2,-17,-7,-12,-1,-64
18305,-4,-7,-12,-48,-9,5,51,49
18310,-3,0,-8,-3,5,-3,-46,-50
18315,6,-6,4,3,-19,-4,-48,44
18320,-8,-5,-3,7,-1,-1,28,-9
18325,1,1,-6,-6,-7,6,-4,-65
18330,3,2,13,10,16,-2,54,12
18335,-4,-7,-4,6,46,1,-17,-23
18340,9,3,2,30,-9,7,11,26
18345,0,0,-4,-6,-11,-1,24,63
18350,-7,-12,-45,-4,7,3,-21,-46
18355,-2,11,81,22,2,3,48,17
18360,-2,-7,-9,5,-19,-17,-76,-4
18365,1,4,3,-7,37,5,25,-18
18370,1,3,-6,0,-1,2,-23,-11
18375,3,-5,-24,-16,-31,3,63,53
18380,-6,-7,-6,-2,-2,-7,-36,-36
18385,-3,1,1,-29,-20,-4,-18,-32
18390,0,-7,7,-3,31,-3,8,59
18395,-5,4,-19,-3,-4,0,-43,-103
18400,11,-1,1,-9,15,10,48,90
18405,-9,-3,-16,-4,-66,-5,-22,-3
18410,-4,2,9,-8,-8,0,32,19
18415,-2,0,3,9,-2,-3,-20,-17
18420,1,0,-4,4,3,-4,-43,-34
18425,-5,-10,-6,12,13,0,10,-1
18430,5,2,14,20,32,-3,24,15
18435,-1,-7,-31,1,-26,-9,-9,17
18440,0,1,16,11,10,7,23,15
18445,7,2,-2,-1,9,2,-20,12
18450,-1,1,-7,-26,5,4,-14,-8
18455,-3,-5,-18,7,3,-13,-17,-22
18460,0,7,22,0,10,-1,-17,28
18465,-8,-4,7,25,16,4,61,-22
18470,10,2,-4,13,-34,10,26,26
18475,-12,-5,-10,-30,-60,-20,-39,-17
18480,-3,-8,-12,-26,-9,-1,14,-34
18485,13,9,4,14,2,2,3,45
18490,-7,0,8,13,-18,-2,-3,-40
18495,-1,-4,-1,-15,9,-3,-38,-22
18500,-4,-7,-6,16,-12,10,83,40
18505,4,3,-2,1,11,-1,-12,30
18510,-2,-1,-1,-19,9,-7,-35,-24
18515,-3,8,13,25,10,3,6,-27
18520,0,-6,-12,-1,-13,-9,-27,34
18525,5,1,-5,-9,37,5,10,-46
18530,-13,-10,3,-4,-58,-16,2,-23
18535,-1,-4,-10,-30,9,7,18,2
18540,8,8,2,38,27,20,68,20
18545,-16,-11,-3,-14,-28,-11,-53,-29
18550,4,4,20,1,29,-8,-26,25
18555,1,-3,-6,11,40,4,7,-16
18560,3,0,-40,38,-34,8,16,-26
18565,1,-1,42,13,5,-8,-77,24
18570,-6,-1,-1,-4,9,10,81,9
18575,3,0,4,-5,-5,-5,-26,-3
18580,8,5,5,18,9,12,24,-3
18585,-5,-2,-10,5,-1,-6,18,28
18590,-1,-3,-4,-24,-12,-3,-51,0
18595,3,0,7,18,-5,-1,37,-6
18600,-5,-6,0,-24,7,-10,-12,-12
18605,6,3,-6,6,8,10,29,20
18610,0,-2,-1,-11,-9,-13,-53,-12
18615,7,-2,-3,-2,-7,10,81,54
18620,-6,0,-1,-21,2,-9,-83,-48
18625,1,4,2,11,-10,-6,47,-14
18630,-5,-2,-4,-9,49,10,31,3
18635,0,3,-1,2,-8,-10,-83,-22
18640,4,3,9,18,3,1,55,6
18645,-2,-6,-17,-15,-3,-5,-22,33
18650,7,5,10,4,6,3,-3,27
18655,7,0,0,3,-4,1,37,25
18660,-16,-14,2,-31,-18,-9,-40,-50
18665,4,15,6,23,20,4,-10,-27
18670,-3,-5,-7,8,-13,2,34,-15
18675,-2,-8,-32,-17,-13,-10,-22,36
18680,-2,9,35,14,9,-1,-26,-48
18685,0,-5,1,4,-11,-1,29,23
18690,4,-2,-9,-38,-13,12,-4,7
18695,-8,-2,0,-10,-19,-4,16,0
18700,7,2,-3,11,41,-3,-46,28
18705,-5,-4,-10,-39,-44,1,27,-29
18710,2,4,12,11,-70,-8,-22,34
18715,-7,-6,-5,13,7,5,9,-60
18720,-3,-2,-13,-46,-13,-7,6,41
18725,-4,-2,7,10,14,0,1,-70
18730,6,-1,-15,11,10,10,1,34
18735,-3,2,7,-12,-15,-5,-9,6
18740,1,-3,-5,-20,-28,2,-20,11
18745,-4,2,-2,5,28,-1,4,-24
18750,3,-3,-4,8,3,-3,11,47
18755,-10,1,21,24,8,7,23,-61
18760,-4,-3,1,-27,5,-12,-69,-28
18765,4,-2,-10,0,-12,6,-9,30
18770,-2,2,4,9,23,-13,-26,-50
18775,0,-2,-4,-2,6,4,43,79
18780,6,6,3,11,-2,15,50,9
18785,-1,-1,-1,-4,-12,-8,-50,6
18790,5,4,10,7,-5,-4,-20,-26
18795,-4,-2,-1,-7,-4,-6,2,17
18800,-6,-7,-8,-1,36,2,15,-54
18805,0,-3,-8,0,18,7,24,42
18810,2,6,4,10,35,9,18,20
18815,-8,-6,0,15,9,-6,-41,-81
18820,3,3,1,-7,15,2,15,26
18825,0,0,4,11,-20,-10,-44,-8
18830,2,-4,-5,20,6,4,46,39
18835,1,5,0,-33,-8,-9,-34,-4
18840,3,-8,-13,-40,-14,8,50,75
18845,-10,-1,4,7,14,4,-13,-72
18850,-11,-1,-2,-1,-10,-18,-54,-41
18855,2,0,-1,3,-4,1,22,21
18860,2,3,-18,11,-21,-15,-46,-17
18865,0,-6,23,-5,-17,0,4,14
18870,-1,1,0,-13,10,14,44,-7
18875,2,3,0,14,1,3,-11,18
18880,0,1,5,-1,-7,0,12,-1
18885,4,-7,-14,4,6,-1,-3,17
18890,-9,4,2,5,-13,-9,-70,-57
18895,10,3,10,-14,-7,6,36,49
18900,-10,-4,-7,-29,21,4,13,-58
18905,1,0,-11,-13,-2,-12,-50,4
18910,3,-6,-1,-19,-69,3,59,49
18915,-6,-1,-13,-3,19,-11,14,-32
18920,2,5,9,14,-15,-2,-27,10
18925,3,0,-3,-4,9,-4,13,39
18930,-1,-3,-7,-10,-7,1,35,-33
18935,-2,1,-7,4,-1,-4,-50,-7
18940,-2,-3,6,15,-14,-7,6,8
18945,-4,0,1,5,-9,-8,-35,-65
18950,-2,-7,-4,0,-1,7,33,35
18955,4,-4,-4,6,20,3,20,12
18960,2,4,7,20,12,-1,-24,-11
18965,2,2,-4,-20,-1,-2,-7,-6
18970,1,0,-14,-8,15,0,37,29
18975,-1,-2,8,-2,32,9,-32,-24
18980,-6,-5,-17,39,-12,-12,25,5
18985,5,1,18,1,14,6,16,54
18990,-12,-5,-2,9,5,-1,-46,-88
18995,-6,-9,-4,-6,2,-11,-22,-10
19000,4,13,-7,27,-7,4,-5,-3
19005,1,-4,2,1,8,2,16,1
19010,-7,-6,7,-5,26,-3,10,17
19015,6,4,1,-9,-63,11,80,18
19020,-1,-7,9,7,8,-9,-23,15
19025,-2,1,-15,-11,-3,6,16,-1
19030,-1,0,-6,-3,-5,-9,-95,-23
19035,9,4,8,11,12,9,18,22
19040,-12,-9,-14,-40,-13,-2,12,-25
19045,1,4,2,26,-10,-12,-71,-79
19050,-6,-5,-10,-31,23,14,80,65
19055,-3,-3,2,-1,-53,-14,-57,21
19060,4,0,2,-1,22,3,-7,10
19065,-4,-1,-1,6,2,2,13,-1
19070,8,3,8,17,1,-4,-42,-17
19075,1,3,-4,-3,4,1,6,-7
19080,0,-2,5,-9,-7,6,24,25
19085,2,-1,-4,3,-5,-2,1,23
19090,-7,-16,-14,-52,-47,-17,-28,-31
19095,-9,5,-6,1,47,3,30,8
19100,-5,0,-6,-10,10,0,-17,-75
19105,3,2,15,-4,-34,0,9,22
19110,4,3,2,9,-6,-7,-41,14
19115,4,-5,7,6,5,0,-9,19
19120,-3,-3,-15,-3,4,2,5,8
19125,4,0,-10,-4,6,10,40,22
19130,-1,0,5,10,3,-11,-60,-28
19135,0,0,-6,11,-3,-6,-28,-35
19140,4,-5,7,-25,-6,17,81,107
19145,-10,-1,-5,-8,-5,-8,-8,-76
19150,3,6,9,18,34,2,12,-1
19155,-6,-4,-3,-8,-34,-8,-26,-11
19160,0,1,7,7,-11,-14,-61,-11
19165,-2,-7,-3,-35,15,6,44,24
19170,2,2,-5,5,11,4,3,-1
19175,3,1,1,10,8,3,-9,-19
19180,-2,-12,4,-2,-2,-1,4,-3
19185,9,6,-20,5,-8,14,65,62
19190,-5,7,7,19,-21,-21,-37,-46
19195,-6,-1,1,-21,29,5,17,-8
19200,-5,6,37,48,12,-19,-13,-29
19205,-4,-9,-20,-7,10,1,-3,17
19210,7,-1,17,28,-5,13,39,47
19215,8,-1,-12,-5,-18,4,12,41
19220,3,-1,4,-11,14,18,-1,-65
19225,-11,5,-1,7,4,-20,-48,-8
19230,-2,-2,-4,-9,-11,-6,14,11
19235,-4,-1,1,10,3,1,-26,-19
19240,5,1,-7,-2,5,1,10,22
19245,3,-1,8,0,5,9,15,18
19250,-4,-7,-5,-9,1,4,7,32
19255,5,10,3,-3,9,-10,-49,-100
19260,-1,4,-9,12,-5,20,60,81
19265,-7,-10,-1,-14,-14,-16,0,27
19270,-5,3,0,30,3,1,-5,-53
19275,2,-4,0,-52,2,5,13,34
19280,-4,-2,-2,7,-12,-15,-39,-37
19285,4,5,6,0,-4,11,-22,-18
19290,3,-2,-4,-4,19,-6,5,3
19295,-3,-2,7,5,-16,-9,6,-34
19300,2,-1,-5,2,3,1,22,30
19305,-2,0,3,-6,18,10,7,5
19310,4,1,-2,-16,15,4,-1,0
19315,1,-2,-4,13,-55,3,26,17
19320,4,2,5,-11,7,-2,-37,15
19325,-8,-7,-2,-10,19,-14,-24,-35
19330,0,2,-3,-17,-1,4,4,26
19335,-5,-5,-4,1,20,0,35,7
19340,1,3,0,13,-9,-2,-46,-27
19345,0,-4,-3,3,16,7,8,-27
19350,-6,7,-3,-4,1,-5,13,-13
19355,5,-5,-5,-8,-10,1,4,53
19360,3,6,4,49,15,-7,-3,-32
19365,0,-5,-20,-47,-10,5,48,28
19370,-8,-5,27,-8,-6,-7,-7,-19
19375,2,2,-2,8,4,5,-20,19
19380,-10,-2,-4,-15,-31,-10,-7,-27
19385,3,4,7,17,3,-6,-21,-26
19390,9,1,-27,7,40,14,41,11
19395,0,2,9,5,7,3,-42,13
19400,-8,-7,19,-5,1,-1,46,-10
19405,-5,-1,-2,-1,-19,-9,-12,23
19410,-4,-3,-11,11,10,-2,-33,-58
19415,0,1,-1,2,-24,6,20,-3
19420,7,1,-16,-31,-17,0,9,37
19425,-4,-3,10,19,-10,-11,-63,-5
19430,3,5,13,21,-28,1,24,-4
19435,-7,-4,-1,-2,43,-5,-7,-15
19440,-1,0,2,-3,4,6,0,-2
19445,1,0,-4,8,-14,2,40,-5
19450,9,4,2,-8,-26,4,-18,61
19455,-10,-3,-3,8,3,-7,-18,-46
19460,-1,-2,-5,-11,-2,-1,2,15
19465,6,6,9,45,17,6,10,-9
19470,-4,-2,-7,-39,-8,-7,-34,-45
19475,1,-3,13,40,4,4,100,77
19480,-11,-5,-16,-72,8,-4,-9,-31
19485,0,1,11,13,-33,3,-27,38
19490,-5,-4,1,10,-1,-2,-13,-49
19495,2,9,-2,-6,-1,-7,-25,-23
19500,1,-5,2,13,-5,1,-6,31
19505,5,0,-7,-4,25,-2,-1,10
19510,-3,-2,-4,-12,-3,-2,-8,3
19515,-2,-6,-23,-2,-6,-5,11,-3
19520,0,4,5,-20,-3,4,-11,27
19525,-3,-7,-6,-34,-25,8,46,8
19530,-3,-3,5,23,6,-10,-1,-48
19535,-7,1,-1,-16,3,-14,-88,-32
19540,2,1,-5,11,-11,-1,28,16
19545,-4,-4,-16,-21,-17,-19,38,12
19550,1,-3,10,3,-3,3,13,25
19555,7,1,0,0,2,9,-8,20
19560,2,-3,-1,-4,43,-2,1,-3
19565,3,9,5,33,12,3,1,-12
19570,-5,-7,-12,-35,-17,8,25,13
19575,-4,-6,3,-21,3,-6,-14,-31
19580,3,5,3,16,18,2,20,9
19585,-1,-4,-9,1,2,-7,-40,-32
19590,2,1,3,9,-5,1,-25,37
19595,0,1,1,-9,1,3,-5,-35
19600,-7,0,-6,-1,-15,-6,-19,-22
19605,1,-2,5,1,-13,2,32,32
19610,-4,-1,-38,-10,22,6,44,-1
19615,-2,1,42,18,-26,-5,-15,4
19620,7,-2,-9,-16,22,10,59,68
19625,-4,-2,7,37,22,-6,-122,-121
19630,-2,7,15,7,5,16,47,52
19635,2,-1,-24,-3,-29,-6,-2,10
19640,-6,1,11,-2,-8,-6,3,-3
19645,3,-2,-8,9,-63,-1,-18,-11
19650,7,0,7,-3,7,0,27,32
19655,-5,-3,-4,-5,4,1,-24,5
19660,5,2,6,27,-9,1,-39,-10
19665,-8,-4,-6,-2,12,-3,36,-2
19670,1,3,1,-34,-14,-4,-27,-21
19675,-3,-2,1,10,21,5,52,-11
19680,-3,-7,-10,13,-3,-6,-48,-28
19685,6,5,5,-9,18,2,4,39
19690,-5,-3,9,29,-10,-4,-48,-36
19695,-1,0,-8,-14,21,14,57,68
19700,-9,-7,-8,15,-8,-12,-94,-89
19705,0,0,4,1,3,-2,110,37
19710,-4,-3,-1,-1,10,-10,-73,-18
19715,4,0,-18,3,1,-2,-61,5
19720,-5,1,27,4,-41,-13,-16,-42
19725,4,0,-14,-20,-43,12,5,61
19730,-4,-3,2,-16,-44,-18,11,1
19735,4,3,13,5,13,4,36,10
19740,-1,-1,2,-2,-13,11,-6,-33
19745,-8,-8,-1,-23,6,-12,-31,-15
19750,3,8,-7,4,3,1,-5,18
19755,-5,-5,-2,27,-10,-9,-20,-27
19760,-3,-3,-16,-48,-1,4,52,20
19765,7,4,14,18,26,11,60,56
19770,-6,-8,-6,5,-14,0,-37,-40
19775,-8,-1,0,-1,27,-11,-57,-65
19780,-6,-4,-11,9,8,-2,33,23
19785,-7,-5,-3,-8,46,-5,10,-39
19790,7,2,-25,-1,-45,-2,24,53
19795,6,3,29,3,-17,7,25,0
19800,-1,-4,-1,4,15,2,16,26
19805,-9,-1,-5,-9,-2,-5,-25,-58
19810,4,2,13,29,17,-2,0,27
19815,0,-3,-17,-15,-2,6,40,-6
19820,-3,-1,-2,-1,-9,-10,-9,1
19825,-5,1,0,0,-4,-2,-38,4
19830,1,-2,-3,-9,18,0,-9,-7
19835,-11,-7,-4,10,-8,-4,-8,-20
19840,6,5,-5,-39,16,1,-28,49
19845,-1,2,3,-2,-3,6,-7,-53
19850,-7,-8,2,6,11,-2,25,12
19855,6,3,-7,-4,-7,8,55,18
19860,-1,1,8,13,24,-6,-29,-22
19865,1,-4,-14,-9,-21,1,24,-7
19870,1,10,22,-12,1,-3,-71,-22
19875,-2,-2,0,31,16,7,73,49
19880,2,-1,-11,-5,4,7,53,15
19885,1,4,16,-2,5,-6,-76,5
19890,3,-7,-11,-17,-61,-2,21,3
19895,-10,-1,5,8,1,-20,-94,-72
19900,1,-2,-3,1,-8,4,2,18
19905,4,4,15,11,-3,5,11,21
19910,-4,-4,-25,-33,-11,-4,32,-30
19915,3,1,-3,-20,17,0,6,66
19920,-5,-7,2,21,-14,-9,5,-4
19925,-3,-3,-23,-9,-5,-5,-29,-39
19930,-4,6,27,2,-9,5,10,-11
19935,8,0,-3,6,24,2,23,26
19940,-3,-1,-3,-14,-13,-6,-59,-26
19945,-1,-5,3,12,24,-2,3,0
19950,-1,-3,-6,67,-21,-2,15,10
19955,3,5,13,-37,-53,-9,-41,-15
19960,2,0,-4,7,-7,3,25,31
19965,2,-5,-7,-6,-4,-3,-15,55
19970,-3,2,-4,-10,21,16,52,-64
19975,-5,-4,-1,4,-18,-4,-1,25
19980,1,2,20,8,11,0,-12,-7
19985,3,6,-8,-51,-14,4,18,-17
19990,-2,-6,-5,-1,33,-2,-19,29
19995,1,-3,-2,8,4,2,5,23
20000,2,7,-10,-18,-2,-7,-22,-31
20005,-6,-3,0,22,-6,-3,35,15
20010,1,0,14,-3,16,0,-39,-6
20015,-1,-2,-15,-5,-6,5,13,1
20020,2,-1,2,13,-2,-13,-41,17
20025,-7,4,-1,-2,-1,13,22,-32
20030,2,-1,-5,8,31,-19,-24,33
20035,-12,-7,-7,-39,-1,1,28,-41
20040,0,-2,-4,5,28,8,21,6
20045,9,5,12,20,5,10,14,45
20050,0,0,-1,-21,2,-2,-27,-35
20055,-4,-2,3,17,-37,-2,25,12
20060,1,-2,-6,-7,15,6,0,-2
20065,-5,-3,-6,-12,-1,-9,-19,15
20070,2,3,-4,-1,-12,2,27,-17
20075,6,0,-11,34,24,-1,2,29
20080,-9,0,5,-3,-8,8,10,-32
20085,-1,-3,-33,12,-6,-13,-29,-12
20090,1,-2,58,-11,22,7,22,29
20095,2,1,-9,5,2,0,21,-17
20100,-2,-1,-2,4,-18,-12,-46,0
20105,1,1,3,-17,7,3,-4,-16
20110,-1,0,-23,17,19,-3,-11,2
20115,4,1,13,-7,14,8,-1,33
20120,-6,-5,7,20,-16,-1,7,-36
20125,-3,-6,-10,-3,-2,-4,26,-4
20130,-1,-1,-2,5,-13,-3,-5,16
20135,-1,-2,6,-25,7,-2,-19,-10
20140,3,-10,-15,-62,-85,-2,23,37
20145,-3,9,11,6,-26,-7,-39,-60
20150,-9,-8,-4,13,44,-1,-2,-28
20155,1,2,0,-13,-7,-1,-25,-27
20160,-3,-6,-6,10,7,0,47,44
20165,0,-7,5,-3,0,-2,39,35
20170,2,0,-3,-11,-25,5,28,20
20175,6,4,-4,8,-4,-7,-32,-47
20180,0,2,-29,10,-11,-4,-50,-13
20185,-1,0,42,13,18,16,26,0
20190,0,7,-1,37,13,8,28,6
20195,-4,-4,13,-3,-18,-16,-84,-39
20200,-1,4,-3,28,23,-5,3,-20
20205,4,2,-6,-22,5,1,-9,52
20210,2,-4,-8,0,-10,3,20,36
20215,0,1,-12,-13,7,7,20,10
20220,4,2,15,-4,-16,-8,-6,-41
20225,-6,-2,-5,2,19,6,5,21
20230,2,-2,-9,-12,12,-5,0,7
20235,-14,-6,21,-10,-1,-6,-38,-41
20240,-8,-1,-2,6,13,-5,30,-41
20245,2,-1,0,8,-11,0,23,34
20250,-3,-9,-12,-25,-14,-1,12,1
20255,8,9,-12,7,14,2,8,28
20260,15,13,13,6,11,14,-6,37
20265,-6,-6,3,21,15,-4,-10,-77
20270,-9,-10,-23,-32,-37,-4,46,50
20275,-6,-4,10,11,3,-4,-15,-13
20280,-8,-5,15,3,13,0,-7,-16
20285,4,5,-9,4,-3,-7,-20,0
20290,4,5,6,10,9,1,-18,-9
20295,8,1,-8,-1,-5,4,29,66
20300,-4,0,-9,10,-14,8,33,-54
20305,-4,-5,17,-63,12,6,-32,-16
20310,-13,-4,0,0,-5,-9,-31,-55
20315,-8,-2,-8,-2,5,-9,38,15
20320,8,4,3,-19,3,1,-10,44
20325,-1,-4,-15,15,-17,-12,-17,-8
20330,2,-1,0,-6,3,2,-13,-13
20335,3,2,-5,-6,-9,2,10,20
20340,0,2,3,-12,0,-1,-22,2
20345,8,4,9,54,35,15,33,34
20350,-10,-1,5,-3,7,-7,18,-53
20355,-8,-11,-7,-3,3,-2,6,7
20360,1,-6,-12,-16,-1,3,-3,-9
20365,1,11,2,1,-29,-13,-28,-32
20370,16,6,-1,-10,28,14,1,55
20375,-6,-4,-33,1,46,1,-1,-16
20380,-7,-5,26,18,8,-4,9,-27
20385,-5,-2,0,-19,10,-3,-7,22
20390,3,2,-7,5,11,-1,-28,24
20395,0,1,-1,-10,-8,-4,-18,-27
20400,-5,-3,-8,8,0,-4,-6,-29
20405,0,-5,-6,-4,-7,0,15,23
20410,-2,1,-2,4,-7,3,14,-34
20415,5,4,12,7,-16,1,-18,25
20420,6,2,-2,20,-2,1,19,37
20425,-7,-11,-1,-1,-9,-5,-37,-34
20430,4,17,12,1,5,2,-2,15
20435,6,1,9,5,-22,5,68,34
20440,-2,-4,-17,-3,6,-12,-34,-39
20445,3,2,-10,-4,-1,3,0,60
20450,-4,-6,4,4,-13,-1,-24,-74
20455,3,1,-3,-7,-5,3,37,36
20460,-8,-6,16,1,7,1,33,17
20465,-4,-3,-4,9,-4,-10,5,-3
20470,5,-1,6,33,-9,0,-44,-20
20475,-1,1,1,-15,-10,-7,3,-13
20480,-2,-4,-13,-2,12,5,-6,17
20485,1,2,6,-5,-12,-1,-4,-29
20490,3,3,-1,-7,-3,4,26,53
20495,-2,-5,-29,2,5,-6,-3,-22
20500,-4,5,27,12,-7,4,6,-8
20505,-1,-9,-9,-9,-13,-6,2,-55
20510,0,9,19,6,16,-1,-21,18
20515,-7,-7,-10,-19,-13,1,13,-8
20520,10,7,-5,-16,-1,4,28,58
20525,0,1,2,1,-4,-3,-9,16
20530,-4,-7,-14,-8,-12,-7,-35,-47
20535,10,3,7,16,35,14,-25,74
20540,-20,-13,13,12,-30,2,27,-79
20545,0,4,-3,-48,4,-7,6,1
20550,0,-4,-8,-8,-10,-5,35,27
20555,-8,1,11,9,11,-10,-65,-58
20560,7,3,-10,-2,2,2,13,40
20565,3,2,-4,10,-9,9,13,13
20570,-1,-3,3,-6,-6,-1,-3,19
20575,2,0,3,-2,-7,8,22,-35
20580,-14,-14,-21,-13,-8,-12,-19,1
20585,-1,3,1,6,-5,-3,-2,3
20590,-2,1,1,-8,19,-3,24,1
20595,2,11,1,7,-6,4,-24,-12
20600,3,-9,-22,-18,0,-7,-29,5
20605,-2,7,20,17,18,4,-22,18
20610,-8,-13,-4,3,-29,7,52,2
20615,-4,0,10,15,20,-3,27,-36
20620,4,6,-5,10,14,4,-37,11
20625,1,-3,-15,-58,5,-3,53,27
20630,-1,-4,-2,3,-31,-2,-1,4
20635,-1,-1,3,-7,14,-6,-14,-15
20640,-6,1,7,13,-11,1,-46,-15
20645,3,-6,-31,17,23,9,37,40
20650,1,3,24,7,5,-5,-41,10
20655,-2,-1,-1,3,17,7,66,-33
20660,3,2,2,-14,-5,-4,8,-1
20665,-5,5,4,19,-22,-11,-76,-10
20670,-2,-7,-14,-5,20,7,44,7
20675,-6,-3,0,2,-26,-14,-70,-2
20680,4,-4,-5,1,10,1,29,12
20685,-2,3,3,-18,-16,4,10,-35
20690,15,8,-10,1,4,-4,-27,55
20695,-17,-10,21,6,-11,-5,11,-39
20700,-2,-1,-3,4,1,-8,-10,10
20705,-5,-5,5,3,7,2,-11,-6
20710,6,3,-10,2,4,-1,-30,-39
20715,-5,-5,-9,-11,-33,1,6,15
20720,4,3,4,12,47,12,-1,28
20725,2,-2,3,13,-74,-8,23,-15
20730,-3,-4,-25,-17,19,4,4,-5
20735,-3,1,4,46,-4,-10,-61,-7
20740,-2,-4,26,9,1,-1,-5,-5
20745,2,5,7,-24,26,-4,16,18
20750,-2,0,11,4,20,1,3,24
20755,-2,0,-23,-8,-3,7,4,-48
20760,6,5,16,10,-28,0,4,32
20765,-3,-3,-3,23,41,5,-1,-36
20770,-4,-4,-3,-25,-33,-3,74,42
20775,6,3,20,-16,11,4,-12,16
20780,7,1,-23,-17,-17,-5,-13,2
20785,-8,-6,13,13,17,0,-20,-31
20790,-6,-1,-6,-4,-8,-9,-20,-25
20795,7,-1,-2,-3,-10,1,32,37
20800,0,3,-9,-27,1,3,29,0
