time,emg1,emg2,emg3,emg4,emg5,emg6,emg7,emg8,hand,pose,orientation,testPerson
0,-28,-4,8,-12,1,-11,-8,-84,1,1,45,BueBaby!
5,30,-3,-42,-23,3,-34,-8,60
10,-9,0,-13,-3,47,61,2,-16
15,-9,-10,-4,22,-47,-43,-20,9
20,13,10,-3,5,-6,8,16,16
25,-23,-4,9,45,0,53,1,-41
30,-21,-12,-10,-11,8,-18,-8,28
35,3,9,23,2,13,-29,-1,24
40,-4,-5,-11,-28,-9,-19,-4,-32
45,4,1,10,-15,-14,2,-3,-15
50,-5,-1,-11,6,-22,-2,7,17
55,-30,-7,-9,-52,-12,1,2,-51
60,7,4,-1,58,40,-21,0,23
65,-3,1,15,-2,-27,-9,-1,-8
70,11,2,15,27,-32,2,7,-34
75,-1,-2,-20,0,27,50,6,57
80,-15,-5,-24,-16,-10,14,-11,9
85,13,0,5,5,14,-27,9,-24
90,-13,4,11,-30,-1,-7,-18,-7
95,21,3,3,45,2,25,5,8
100,-37,-9,1,6,24,11,0,-12
105,2,5,12,0,-12,12,-2,-2
110,2,-1,10,10,-10,-60,-4,-13
115,32,7,-33,-38,36,13,6,19
120,6,-6,-16,13,31,-10,1,28
125,0,-2,-2,8,-29,-11,3,8
130,4,6,1,-7,9,10,-3,-26
135,-18,-10,-4,5,21,24,-12,16
140,17,-1,2,26,-12,-7,3,-9
145,-11,-4,-1,-10,-4,31,1,15
150,12,-4,-4,6,5,9,-1,16
155,4,4,-12,9,-3,-18,3,-33
160,-5,3,1,-50,-10,46,0,-24
165,-27,-4,14,-18,10,-51,-21,36
170,22,2,6,1,-23,-15,9,23
175,-7,-5,-2,-8,0,-3,5,-32
180,-35,-7,-8,-17,0,27,-5,-74
185,14,4,-16,19,17,-31,7,6
190,-25,-1,-8,-6,6,-11,-6,-41
195,29,-4,-6,-7,13,23,-3,81
200,-23,-5,-12,2,-2,3,-5,-47
205,-5,1,1,43,-8,-18,2,11
210,17,-1,-17,-10,-14,-14,5,4
215,-4,1,6,59,12,28,-3,16
220,-4,-3,-7,-32,-41,-22,-7,-18
225,16,10,-11,12,23,35,-8,-13
230,25,4,-19,-22,11,20,18,51
235,-20,-6,-11,-8,-25,-55,1,-45
240,-6,2,5,-27,17,40,-8,46
245,-17,-4,20,-4,-8,-15,-3,-10
250,-11,-5,7,42,19,-34,-7,-19
255,33,11,16,3,-18,53,7,21
260,-17,-1,30,61,29,-46,6,-7
265,37,8,-11,-42,-25,12,-1,-17
270,10,4,1,5,-4,3,2,61
275,-6,-6,-3,2,22,-6,-5,-29
280,-26,-9,4,2,-2,1,5,33
285,24,5,-3,7,7,-8,-9,-9
290,-8,2,36,2,1,60,-1,-14
295,0,1,4,-24,-28,-35,-8,-3
300,9,1,-4,-9,18,2,6,12
305,-39,-14,14,-31,-24,-23,-3,-41
310,-17,-6,-10,25,11,-18,-10,66
315,24,14,4,-62,16,-2,9,7
320,5,-4,4,-2,-10,-3,-9,-18
325,-2,-9,-14,17,25,9,1,13
330,-22,-7,9,-18,-18,3,-5,-68
335,-24,-7,-11,-5,19,27,3,-14
340,15,10,8,13,-29,-79,-3,32
345,15,-2,8,-80,-18,24,5,2
350,-3,3,-17,32,21,-18,0,-10
355,-7,-1,19,-4,-9,-14,-8,18
360,18,10,-10,8,-16,12,9,-32
365,-9,-7,-2,90,43,18,3,4
370,9,0,7,-5,-28,-26,-2,-24
375,-14,-7,-34,2,-17,7,-5,11
380,5,-3,-26,-43,7,3,11,89
385,-1,5,-17,-14,16,-48,0,-45
390,-1,1,15,9,7,39,-2,5
395,10,5,-9,38,17,-35,-1,16
400,3,-4,3,0,-24,-31,-11,-16
405,-13,-2,-16,-14,5,29,0,3
410,-10,-2,20,-19,6,16,-5,-18
415,-8,-4,5,-3,-6,-38,0,-26
420,-22,-12,9,33,-4,8,2,12
425,35,16,16,31,5,-1,-6,8
430,-17,-9,-11,-9,-10,17,-2,-29
435,6,-5,-16,-36,-27,-21,0,43
440,12,7,15,27,19,34,7,-24
445,-21,-8,4,-7,-52,-15,-10,-54
450,38,8,8,3,41,14,4,78
455,-22,-6,-29,-52,-21,34,-5,-28
460,-8,-6,-2,14,5,10,0,-34
465,11,0,-2,-10,-15,3,6,18
470,3,0,-12,-20,16,-30,4,14
475,1,4,28,23,-21,20,-5,-25
480,-11,-16,-29,11,15,-14,-17,-9
485,9,8,3,9,12,65,13,15
490,-10,-4,-16,-1,-22,-55,-1,-13
495,-7,0,3,37,38,22,-2,9
500,42,12,22,-36,-5,10,7,21
505,9,-6,-23,-47,-4,4,-2,-21
510,-8,-8,7,3,5,28,-1,49
515,6,1,16,9,4,-26,-1,-37
520,-7,-3,-13,3,7,-6,-1,-17
525,-16,-3,23,-27,-14,-42,-1,3
530,10,11,15,-54,-11,29,9,-26
535,9,-2,-15,75,21,30,0,18
540,-3,-3,1,-2,-2,23,2,10
545,20,2,-7,-50,-39,-21,0,29
550,13,6,6,40,24,-7,6,-9
555,1,2,13,-4,-49,29,-1,-4
560,-4,5,1,-6,0,-35,-8,-5
565,-27,-12,-2,14,9,24,-1,-14
570,-3,-6,-12,2,-8,-25,-14,1
575,6,1,2,-16,21,-23,7,-13
580,10,7,1,-2,-13,20,-1,32
585,-29,-10,-3,22,3,-5,-2,-3
590,-18,-9,-5,-23,-14,2,-12,-10
595,8,-2,-21,6,8,-36,8,22
600,5,-1,0,-12,-23,-15,-7,-13
605,7,5,1,24,26,31,6,24
610,-27,-4,0,-43,-16,-24,-11,-58
615,-3,2,-1,-17,25,7,5,25
620,15,1,-7,-30,-17,25,3,9
625,-20,-6,11,51,11,33,2,-37
630,-4,-3,-5,33,-30,-62,-6,14
635,-2,-2,16,-34,-28,-30,-9,-1
640,15,18,5,7,11,-12,1,11
645,-4,-1,10,22,11,37,10,22
650,-40,-16,-30,-9,-3,-13,-22,-77
655,27,5,-6,1,24,-27,3,9
660,-8,-11,-4,6,-6,12,0,0
665,3,3,7,-4,0,-7,0,10
670,7,1,-10,13,3,21,0,-4
675,-33,-8,14,2,7,3,-3,-46
680,-8,6,-8,-15,-26,-14,-1,47
685,36,3,22,-7,64,-53,-4,-1
690,11,-8,-30,-4,-35,1,12,29
695,-5,-1,20,-13,27,23,-6,14
700,-6,-3,4,1,-12,-13,10,-38
705,2,5,-6,7,-2,-36,-8,8
710,27,6,14,19,20,16,1,10
715,-4,1,-8,-61,-37,-3,-1,4
720,-15,-7,-13,-30,12,7,-3,-3
725,-29,-10,-3,75,32,5,-7,3
730,38,9,-17,-32,-9,-3,4,-2
735,-12,-2,-10,-20,-13,48,0,-4
740,17,-1,-12,18,22,-11,-4,9
745,-1,-1,-18,-33,-3,5,-4,-3
750,-32,-4,5,-4,-33,17,4,-22
755,-11,-2,12,35,-16,-16,-2,-10
760,5,-5,44,-21,-3,8,-3,-2
765,50,23,-33,57,17,56,14,25
770,1,-13,25,21,3,-10,2,23
775,23,7,-10,5,-5,-15,-6,0
780,-22,-6,6,24,-2,2,0,-22
785,-38,-8,-1,-47,-31,-9,-9,-20
790,2,6,1,20,47,44,13,-24
795,-6,-5,-6,17,-20,-72,-10,14
800,5,-1,22,42,7,30,-5,-5
805,-2,-6,-16,-87,-42,-8,-1,-1
810,17,7,-4,35,20,-28,-4,-6
815,9,10,3,12,22,44,18,8
820,-1,3,-8,19,-3,-62,-11,-2
825,-18,-6,31,-25,-23,-7,1,-18
830,5,4,19,-5,-6,5,3,43
835,-17,-8,-3,32,2,47,-4,-34
840,1,-4,-15,11,6,-52,-4,18
845,2,-3,-17,-3,-7,-23,-3,-5
850,27,6,8,10,18,16,-4,3
855,-18,-11,-37,-85,-30,-28,-7,-7
860,20,11,0,33,17,15,11,42
865,-20,-10,-18,-6,-29,-50,-10,-45
870,-20,-7,-6,-14,-11,10,-2,-18
875,27,3,3,22,6,7,10,45
880,-4,2,-10,-57,-11,19,-3,-40
885,-7,3,12,63,21,8,6,36
890,-22,-8,-15,2,-35,-84,-10,-11
895,-13,0,9,-2,0,11,-11,-16
900,-6,-4,-4,8,15,35,12,-40
905,31,9,13,-19,-1,3,-3,45
910,-32,-11,-1,-7,-8,9,4,-52
915,0,4,14,49,8,4,-9,13
920,10,0,-19,9,-21,-24,2,23
925,-5,-4,8,-68,-16,4,-5,-22
930,-18,-7,-18,12,16,34,10,-35
935,24,9,1,7,-13,-44,-1,62
940,-12,-4,12,-32,12,28,-9,-4
945,17,-1,-25,31,10,-13,4,-2
950,-17,-4,-7,-12,-6,-8,-1,-15
955,-9,-4,11,-24,-28,6,-3,-5
960,5,5,24,2,31,31,-5,18
965,-5,-6,7,35,0,-8,5,-17
970,9,14,-12,-42,11,17,-6,64
975,-6,-9,-18,-5,-14,11,12,-29
980,10,-1,12,32,10,-4,1,-29
985,-6,-3,-11,-10,-33,-3,-10,20
990,2,0,12,4,-13,-22,-4,-2
995,12,7,7,19,21,-21,2,-5
1000,-23,-11,-22,-17,1,5,-4,-18
1005,2,1,4,-5,-4,-1,4,-7
1010,-21,-7,-6,17,34,17,-2,-11
1015,22,6,32,7,4,20,-1,30
1020,-7,-4,-14,10,7,11,3,-57
1025,9,4,-4,5,8,-3,0,30
1030,11,-1,4,-13,-15,-1,1,2
1035,-20,-6,-11,6,5,-7,2,-24
1040,7,-1,3,-25,-2,-21,-3,21
1045,7,0,8,20,-10,15,4,16
1050,-14,-8,-8,-43,-13,-23,-8,-9
1055,-6,-6,-5,16,10,5,2,-12
1060,1,8,13,-4,-3,5,3,21
1065,10,4,-7,5,27,27,0,-22
1070,-7,-5,-4,-8,-36,-27,-9,-6
1075,-1,-3,2,-14,20,23,-1,-28
1080,-4,-3,-10,-18,-28,-37,-3,89
1085,-12,5,6,-5,16,23,-4,-49
1090,46,11,14,26,19,29,8,74
1095,7,4,-3,-19,-16,-5,-5,-9
1100,-35,-19,10,9,1,22,-6,-61
1105,16,1,1,-39,-17,8,3,49
1110,17,3,-20,-26,10,6,-1,11
1115,-20,-2,-8,4,-17,-14,1,-43
1120,10,2,5,12,8,7,-3,5
1125,-6,-3,-1,-11,-23,-33,-1,-16
1130,-3,7,21,22,27,40,-1,-14
1135,-2,-6,-5,-33,13,-4,4,37
1140,1,-6,-3,11,-12,-20,-17,-32
1145,-4,-7,0,24,12,12,6,-5
1150,19,5,2,6,-1,3,-2,14
1155,-35,-10,-8,-3,-1,-9,0,1
1160,34,11,-8,-27,-17,1,6,21
1165,-16,-4,16,2,9,-4,-5,-15
1170,15,2,2,-6,1,-3,-1,1
1175,-15,-4,-6,39,30,21,-4,-17
1180,17,-1,-16,15,-7,-15,7,20
1185,-1,-2,-11,-26,11,-7,0,0
1190,-15,-3,-1,-2,-29,-25,-3,-16
1195,-22,-8,18,-34,-7,0,-11,-41
1200,23,12,-3,25,25,26,10,45
1205,-17,1,5,15,-6,7,-5,-34
1210,-3,-1,-2,9,2,10,2,17
1215,16,3,-2,-1,-4,-9,0,-2
1220,-33,-11,-9,-23,-21,2,-8,-11
1225,10,2,15,-24,-11,-12,-2,-11
1230,-12,-5,-18,-33,1,-8,-3,-22
1235,27,7,5,53,27,34,4,39
1240,-19,-7,-18,6,-6,-11,3,-17
1245,-14,-1,1,26,7,-9,-1,-45
1250,27,7,16,-70,-12,-15,-1,59
1255,16,1,2,-34,-24,-17,2,-15
1260,-1,1,-13,20,17,-43,2,15
1265,-10,-1,1,-5,-2,9,-4,-15
1270,-18,-9,9,23,-3,10,0,0
1275,-18,-3,2,-44,-10,-32,-1,-18
1280,51,13,12,32,-3,7,0,41
1285,-11,-5,-21,-4,16,-14,-2,17
1290,-6,-2,6,25,-13,32,-2,-30
1295,1,-2,-11,12,-13,-15,-3,15
1300,-32,-8,-11,13,12,25,-3,-22
1305,18,4,-20,2,11,-29,4,17
1310,-13,-3,-13,-7,-19,-13,-2,-21
1315,-10,-10,-4,-17,3,35,1,0
1320,-1,8,7,-31,-22,-10,-3,-21
1325,14,-3,-13,10,-6,26,-1,40
1330,-6,-3,-4,13,27,21,4,-15
1335,-4,3,2,16,4,-31,-6,-3
1340,-6,0,19,-32,-30,-4,-1,26
1345,0,-6,-8,9,1,7,-3,0
1350,2,0,0,14,10,-1,4,14
1355,19,4,-18,3,-4,-3,-4,-31
1360,5,-3,0,-1,12,11,3,9
1365,-4,1,-7,-57,-27,-23,-7,-2
1370,-15,-4,-2,3,8,-6,0,-11
1375,1,-2,-5,38,8,21,1,14
1380,-3,4,-10,-43,10,-8,-3,-6
1385,8,-4,3,36,-52,-33,-3,31
1390,-12,-6,-12,36,16,-6,-6,-29
1395,1,0,1,-11,-6,-2,-3,-25
1400,-14,-3,-7,-5,17,32,1,29
1405,18,4,30,29,-13,39,5,-1
1410,-4,1,10,1,-4,-22,1,-12
1415,-6,0,8,16,-6,2,-3,-10
1420,24,2,-5,-13,-18,6,4,-1
1425,-3,-4,-2,-7,17,1,2,6
1430,6,8,-2,17,2,-5,0,22
1435,6,-2,3,-11,-11,-20,-4,6
1440,-22,-6,4,0,0,-4,-3,-46
1445,-13,-8,-5,-8,6,-5,-5,-36
1450,-8,-5,1,-29,-18,-8,0,11
1455,25,13,-7,24,24,9,8,65
1460,-35,-14,0,25,-8,8,-6,-30
1465,55,16,-11,-26,34,-14,6,21
1470,-6,-6,-6,-24,-14,11,-5,-20
1475,-2,-2,-12,-22,0,-6,-1,-5
1480,0,0,4,1,1,-8,2,18
1485,-28,-5,9,6,12,17,-5,-14
1490,-9,-1,0,-25,-1,12,-2,2
1495,30,8,5,10,-15,-2,9,52
1500,-7,2,5,-13,-9,-14,-6,-47
1505,-40,-21,-27,-18,33,7,-2,-13
1510,25,6,20,64,5,-42,-9,40
1515,42,8,-3,-18,13,61,6,0
1520,0,-7,-7,25,-17,-76,-4,-2
1525,-8,0,-10,-1,0,17,-1,-40
1530,-17,-3,5,4,-3,-10,2,0
1535,-15,-2,11,-14,-15,11,-6,-1
1540,16,9,-1,12,11,-8,2,4
1545,-1,-3,1,-14,-21,-5,-2,26
1550,-1,-5,-12,-22,6,-4,-1,-26
1555,-33,-14,15,36,-5,-19,-7,7
1560,16,7,-1,-5,3,53,8,-16
1565,14,12,11,-2,-25,-73,-2,13
1570,9,-4,-9,0,21,77,1,18
1575,-23,-3,-11,-36,-7,-26,-2,-19
1580,-9,-5,27,12,-9,-7,-4,-19
1585,19,5,1,42,44,31,4,9
1590,21,12,14,-22,-3,-29,3,14
1595,-18,-11,-15,-15,3,-5,-5,-20
1600,-12,-7,-12,-5,13,1,0,-4
1605,-11,-2,-14,-84,-9,47,-2,6
1610,4,6,-1,23,4,-20,0,-10
1615,-35,-10,-3,12,9,8,-3,-67
1620,27,5,-6,7,12,-15,1,61
1625,25,6,4,25,-18,3,3,25
1630,-14,-6,17,26,0,8,-3,-11
1635,12,-4,-15,-39,-15,-7,1,0
1640,-11,5,2,3,11,19,-3,-17
1645,-11,-1,14,17,0,-14,-2,-5
1650,-13,-6,-3,4,-2,-5,1,7
1655,16,3,5,9,7,-4,-1,-1
1660,-11,-6,-4,-37,0,37,2,10
1665,-2,0,4,-4,-10,-72,-5,7
1670,-1,2,6,26,-9,6,1,-27
1675,1,-1,4,1,20,4,3,30
1680,-4,-3,-2,2,-13,5,-2,-9
1685,1,-3,-1,-4,-7,-3,0,-9
1690,-29,-8,-7,-2,-3,-17,-4,-57
1695,37,15,10,-1,-14,-23,3,90
1700,6,4,-22,44,17,25,0,-13
1705,-16,-5,-11,8,16,30,0,-10
1710,35,11,-9,-28,-5,-15,3,6
1715,-17,-6,4,19,5,24,-3,-22
1720,-2,0,6,-27,-19,-29,-6,7
1725,-8,-3,11,29,-7,0,-1,-11
1730,-11,-4,-26,-5,-5,8,-4,0
1735,-17,-1,3,2,-7,-21,-4,-24
1740,-13,-7,10,-13,17,18,-4,3
1745,22,9,28,18,8,19,3,46
1750,24,3,-11,-10,-14,7,8,5
1755,2,1,-8,-4,-18,-20,-3,-6
1760,-17,-8,-2,17,-1,-11,-3,-32
1765,-22,-6,-5,-13,-3,27,-2,-18
1770,-2,1,4,-9,0,0,-3,22
1775,-2,-2,9,7,3,5,1,-14
1780,-3,-4,0,-23,-7,-17,-2,0
1785,-22,-2,8,6,-10,1,-10,-22
1790,35,0,-19,-41,14,-8,8,0
1795,-5,13,7,26,34,1,3,50
1800,3,-5,-3,-15,0,8,-5,-37
1805,10,4,-4,2,15,-7,5,34
1810,-15,-8,5,8,-18,7,-5,-13
1815,-7,-6,-6,-4,1,-10,0,-21
1820,2,5,1,2,-3,0,2,8
1825,-5,-4,0,-16,-6,-12,-4,-6
1830,-19,-6,3,22,2,15,-6,-14
1835,-5,-4,-13,-16,-10,2,1,-14
1840,17,4,-7,46,4,1,2,72
1845,1,-3,18,-16,-6,21,-2,-60
1850,-4,-10,-22,-39,-1,-16,-1,34
1855,23,15,-3,-11,-16,38,3,-9
1860,1,-5,5,-5,16,-15,-4,1
1865,-10,-7,-21,-2,-31,20,4,-2
1870,5,5,15,6,-4,-15,-3,4
1875,-23,-13,-4,-15,-8,-6,-4,-16
1880,-4,-2,-4,-8,-10,-12,-1,-16
1885,-7,3,4,7,1,0,2,8
1890,6,9,4,23,34,12,2,6
1895,10,-5,-13,4,-9,-14,-2,-3
1900,4,5,8,0,3,14,5,4
1905,4,-5,-15,-23,15,-15,-3,-30
1910,-9,1,18,17,-26,-24,-2,8
1915,-3,-4,-3,11,21,14,0,3
1920,-3,0,-4,-9,-12,-33,-4,-7
1925,-12,-3,5,-7,0,23,-2,-42
1930,15,-1,-14,-15,10,4,-1,62
1935,9,13,10,11,17,-9,1,1
1940,-14,-7,4,0,1,23,0,-15
1945,10,4,1,10,-43,-39,-2,26
1950,5,2,-4,-13,-12,15,-4,-14
1955,-16,-12,-13,-29,-4,12,-4,-33
1960,-45,-7,-15,-3,-10,-44,1,21
1965,53,11,2,7,12,8,-1,57
1970,6,-1,8,-2,-2,-3,3,-41
1975,-3,-1,-9,-2,16,38,1,37
1980,-3,1,4,5,-1,-34,-1,-9
1985,-21,-5,-1,-20,-11,-14,-7,-22
1990,-24,-10,-20,-11,-14,15,-2,-8
1995,13,0,34,15,5,-2,0,-4
2000,27,3,3,6,12,17,4,1
2005,-3,2,-5,19,0,11,-2,4
2010,-1,0,-4,18,23,-23,-7,0
2015,-10,-6,-9,-24,-12,-3,-2,-18
2020,3,0,-11,12,-14,-11,-3,-11
2025,-14,-5,-9,8,3,7,3,-23
2030,-10,-1,20,-9,-14,-29,-4,20
2035,18,6,4,8,-7,-2,0,10
2040,10,1,1,-6,13,18,3,2
2045,-2,0,-2,8,21,17,8,2
2050,-16,-6,-5,-16,-5,0,-4,-31
2055,-12,-3,14,-15,2,-6,-3,32
2060,14,3,0,4,-5,-5,-2,-9
2065,-30,-10,-17,8,7,-6,-5,-20
2070,44,10,10,-24,0,8,6,23
2075,1,-2,-2,28,1,-13,-1,41
2080,13,3,6,-38,-17,26,-1,-23
2085,-1,-8,-23,9,8,-1,2,13
2090,-14,-3,4,19,-12,8,-2,0
2095,-14,-6,9,-34,8,-20,-4,-23
2100,-24,-9,-17,12,5,46,-6,-41
2105,42,15,30,-3,-7,-48,2,58
2110,-5,2,-17,-26,-6,32,4,-8
2115,0,3,-14,-45,-15,-27,-3,-21
2120,-12,-6,-15,38,36,45,4,-3
2125,3,-4,-11,-15,-60,-50,-6,0
2130,-21,-6,-7,7,10,7,-5,-32
2135,-7,-5,7,30,13,5,-2,10
2140,48,9,20,-9,-16,-40,1,49
2145,-7,3,5,7,21,24,-1,0
2150,-9,-3,-12,6,8,-3,4,-13
2155,-3,2,-7,61,2,30,5,-23
2160,-13,1,2,-22,-22,1,-3,-33
2165,7,-1,4,22,7,-13,-3,36
2170,5,2,-10,-50,-6,-10,-3,-4
2175,-4,-2,-12,18,15,12,-1,-6
2180,-3,7,-14,-17,1,-20,-3,7
2185,-2,-3,8,4,3,17,4,6
2190,-24,-5,15,31,-25,11,-6,-33
2195,19,-2,-16,-31,-17,-37,0,14
2200,31,4,2,34,18,1,1,28
2205,-25,-4,-3,0,13,16,3,-24
2210,21,1,5,15,8,7,3,31
2215,-6,3,20,-5,-18,-28,-5,-48
2220,-16,-4,11,2,-17,-37,-5,12
2225,-2,-4,-8,-37,14,8,-3,0
2230,3,0,21,31,15,2,2,-37
2235,7,-1,18,17,-14,4,-2,33
2240,-4,-4,-32,9,3,-19,-4,-12
2245,1,-4,-9,-11,-10,-30,3,-4
2250,-22,4,6,-18,-2,-4,-6,-16
2255,15,-1,-16,57,21,20,3,7
2260,-11,-3,13,-25,-37,2,-1,29
2265,12,-1,1,0,-11,-27,-4,-15
2270,0,-5,-5,-10,-9,-1,-3,3
2275,-13,-2,-1,-16,-3,-20,-2,-16
2280,-6,0,5,-8,2,6,0,-20
2285,-9,0,-11,-16,11,19,1,6
2290,11,4,6,6,5,17,-1,19
2295,-9,-4,23,-51,-18,-5,-5,-17
2300,7,-8,-14,23,11,8,5,37
2305,3,5,2,7,13,10,-1,-39
2310,18,-1,-17,-2,6,6,2,32
2315,-10,-3,-1,-9,-8,-21,-2,-19
2320,-5,1,4,-18,-7,-8,-2,-13
2325,-16,-2,6,-16,-15,20,-5,2
2330,-8,-1,-5,-1,22,-32,1,-27
2335,-11,-6,-22,13,-6,20,-2,15
2340,19,0,18,6,1,6,4,18
2345,9,8,-22,-16,7,9,2,-4
2350,-4,-1,2,22,6,-17,-1,-27
2355,1,-3,-5,-7,-7,5,-1,16
2360,-8,-1,0,-11,3,3,-2,-18
2365,0,1,2,-8,3,-3,-2,9
2370,-20,-3,7,95,0,2,-1,-23
2375,7,-7,-15,1,-7,11,-1,15
2380,-2,0,6,-18,-4,10,-5,-22
2385,60,19,-8,25,14,-5,9,55
2390,-3,-7,12,-27,-19,-5,-5,-8
2395,-6,4,-4,12,10,8,-1,4
2400,-12,-1,18,-23,-2,5,0,-9
2405,-22,-11,-4,-26,-4,21,-5,-19
2410,-2,-4,-25,7,38,-4,0,10
2415,-9,-12,-17,-23,-34,-40,-4,9
2420,8,4,15,3,9,-23,0,-9
2425,5,-3,-5,3,-13,-10,1,20
2430,6,4,15,-8,-3,6,1,30
2435,6,4,-10,-4,16,19,-1,-4
2440,-15,1,-5,-11,2,-9,-2,-3
2445,-12,-8,6,16,-11,-11,-4,-7
2450,-4,5,36,19,4,13,2,3
2455,-15,-4,-9,-25,-21,-59,-9,-46
2460,-1,-5,-26,34,16,30,7,14
2465,31,13,21,27,8,-9,3,8
2470,44,6,-1,-10,-8,-20,-1,11
2475,-14,3,19,-27,-17,38,3,-34
2480,-4,-8,-12,0,-6,10,-5,23
2485,-22,-7,-6,2,7,0,-1,-26
2490,-16,-3,-8,-28,-18,0,0,-3
2495,3,-2,4,17,4,2,3,22
2500,6,21,30,39,18,27,-5,-33
2505,-2,-13,-12,23,-30,-43,-2,18
2510,38,9,-10,8,4,0,4,60
2515,19,8,2,7,10,3,5,-22
2520,-15,-6,-4,13,3,15,-1,-8
2525,-28,-5,10,-13,2,0,-6,-27
2530,-24,-9,-9,8,-1,1,-3,-54
2535,-3,-2,-6,6,18,18,2,56
2540,5,8,-7,-14,-16,-16,2,31
2545,20,1,3,12,-7,4,-6,-23
2550,-13,-4,-5,-4,-37,-45,-2,5
2555,-14,-12,9,-36,10,51,-1,-24
2560,18,7,-15,-29,-4,-37,-8,25
2565,-16,-3,0,-8,29,15,-1,-18
2570,13,5,-20,-7,-37,9,4,26
2575,-16,1,-12,-26,-7,-3,-3,-45
2580,-23,-19,1,32,7,-11,-1,-35
2585,-11,-5,-7,-9,-12,-10,-7,77
2590,-1,0,-4,-56,-17,8,-9,-4
2595,2,3,1,26,6,-12,5,6
2600,9,-6,3,-38,1,35,-2,-29
2605,5,6,7,50,-1,-2,6,-7
2610,-30,-12,-13,-91,6,3,-9,-35
2615,20,5,10,66,24,-9,-1,51
2620,-15,-3,10,-28,-33,-19,-4,-19
2625,-13,-1,-12,-22,2,27,-1,-7
2630,-5,-5,11,20,15,-8,-1,19
2635,22,9,1,11,27,-1,4,-14
2640,-4,-6,-14,-9,5,1,-1,5
2645,-10,-5,9,-8,5,-3,-7,-5
2650,-5,-1,-2,-9,-8,-18,-1,-2
2655,-12,-5,1,-31,-14,23,-4,-14
2660,13,8,24,36,-1,-15,2,4
2665,-10,-7,-9,-25,5,1,-2,-31
2670,-5,-1,7,19,-9,35,3,14
2675,7,-4,4,2,-12,-88,-4,8
2680,-13,-3,-5,10,-6,21,-2,3
2685,-2,3,22,-17,-2,-4,-2,-31
2690,4,2,-8,11,30,34,6,51
2695,13,5,-14,-19,-37,2,2,-5
2700,-22,-9,5,-21,-2,-19,-1,-77
2705,41,6,-9,-2,6,-14,1,74
2710,-9,-3,6,25,27,24,3,-30
2715,1,4,-3,-21,-32,-9,-5,25
2720,2,-1,-2,-3,5,-20,4,1
2725,-30,-7,-2,-7,-9,24,2,-26
2730,21,6,5,-2,2,-26,-4,4
2735,-19,-10,9,0,10,60,-3,-14
2740,17,0,3,30,-1,-59,-3,32
2745,-6,4,5,54,0,-4,4,-30
2750,-6,-3,4,-5,-21,-16,-4,-18
2755,9,-1,2,42,51,31,1,-14
2760,-7,-3,-12,-29,-7,28,2,45
2765,15,3,9,25,-8,-25,-6,-5
2770,1,6,-4,3,18,24,6,-35
2775,5,0,-12,-7,-19,-43,1,21
2780,18,5,-8,9,29,-3,-1,5
2785,-7,-4,-12,3,-3,7,2,-5
2790,-14,-7,-3,-7,-3,-41,-4,-13
2795,0,-5,17,-11,-13,-7,-1,-33
2800,-1,8,-29,-12,5,19,1,50
2805,2,-2,-1,-17,-4,5,2,20
2810,14,-2,-8,-2,-1,-3,-2,-15
2815,-5,-2,-3,16,12,-7,1,30
2820,-3,-7,-10,-25,-23,5,-8,-33
2825,-12,-1,14,-14,6,15,1,-3
2830,17,7,1,24,-14,-10,1,6
2835,-19,-7,4,-5,15,-7,-6,18
2840,32,10,4,4,-7,26,6,1
2845,9,2,-15,-50,-7,-19,-2,8
2850,-4,-4,1,18,5,16,2,0
2855,0,4,3,1,0,-33,-4,-34
2860,-16,-6,4,2,3,17,-1,5
2865,2,0,-13,-26,0,-44,-4,-13
2870,-37,-15,7,3,-19,7,-4,9
2875,26,17,0,-9,12,49,6,14
2880,10,-5,-1,-18,3,-13,-1,26
2885,5,-1,-5,43,14,21,1,-13
2890,-11,-7,-16,-46,3,3,-4,4
2895,-14,-1,-4,14,-3,1,-5,-29
2900,8,-2,-10,4,10,-11,0,-1
2905,-27,-6,33,-1,-13,21,-3,-37
2910,31,17,2,27,13,-11,4,54
2915,29,1,-17,6,-7,-65,3,34
2920,5,7,9,-2,4,3,1,-15
2925,-6,-3,-4,0,-9,4,1,13
2930,-1,-1,2,-8,16,9,-3,-23
2935,-18,-6,-9,4,-13,22,-3,-9
2940,-14,-3,2,-17,-27,-25,-5,-25
2945,-14,3,35,1,-26,-21,-4,30
2950,11,-11,-30,74,52,16,7,5
2955,32,18,5,-33,8,21,2,-2
2960,-15,0,4,7,30,-2,-2,-13
2965,18,2,-1,5,-8,9,-1,-5
2970,-6,-1,0,-11,-13,1,-6,-9
2975,-15,-9,0,0,-19,-33,-2,8
2980,-12,-3,1,16,4,10,-1,-21
2985,-3,6,-1,-38,5,9,0,-2
2990,-27,-14,-3,20,-11,-26,-9,40
2995,21,5,-13,12,-16,18,14,13
3000,10,3,-5,19,-13,15,-3,-5
3005,3,-3,-8,7,2,-43,-4,3
3010,-8,0,10,-18,-17,12,-2,-33
3015,-20,-7,10,0,10,9,-4,-1
3020,0,-1,-3,5,-3,-4,3,11
3025,0,-1,-5,3,-2,17,2,-8
3030,-12,1,5,-14,-12,-13,-5,-38
3035,-23,-13,11,0,27,-2,-6,28
3040,20,23,15,15,-23,6,7,44
3045,27,3,-14,14,9,-10,1,21
3050,14,5,6,-3,-6,7,4,-5
3055,-7,-4,5,17,4,8,-1,-19
3060,-31,-15,-9,-18,6,14,-4,-47
3065,-5,0,-1,2,1,3,0,16
3070,11,6,1,-23,-12,-5,2,19
3075,-5,-2,-2,-5,-12,-2,-4,-20
3080,-12,-11,14,-17,-19,-11,-7,-6
3085,-7,3,-21,-4,29,34,3,-19
3090,20,7,16,-15,4,-3,5,33
3095,8,-1,14,-10,15,9,-2,-17
3100,16,-1,-16,6,-27,6,-2,8
3105,-9,-7,-4,-11,3,26,-2,-4
3110,-15,-4,-2,-7,-2,-9,-3,-22
3115,-18,-5,15,-4,-2,-5,-1,-21
3120,2,3,8,-36,-12,-24,-2,9
3125,-12,1,10,17,10,22,-4,9
3130,18,1,5,26,3,-22,4,49
3135,5,-3,-20,-12,10,46,-1,-2
3140,0,-1,-5,-4,-16,-38,1,-6
3145,-10,-7,8,25,4,1,-5,-26
3150,-13,-7,-13,-14,-12,-9,-5,-31
3155,9,0,-7,-6,-5,-8,3,35
3160,-33,-10,3,-9,7,19,-4,-84
3165,28,10,-13,23,-12,-5,2,70
3170,3,4,8,2,21,-18,-6,-8
3175,-4,-5,-17,-2,-22,-24,-1,-11
3180,3,-4,-3,25,10,-4,0,8
3185,-9,-5,-7,-15,-8,-6,-2,-16
3190,-10,5,-2,-4,-3,-8,-5,-4
3195,5,3,-1,3,-5,7,-1,-3
3200,0,1,-7,-6,10,0,-2,6
3205,-1,-12,-6,-31,3,-9,0,11
3210,1,-5,-33,-5,-7,-7,0,-4
3215,-12,1,3,14,0,-18,0,-52
3220,26,6,30,-6,-7,20,2,57
3225,7,-3,-30,-14,8,3,5,-15
3230,1,0,4,-12,-3,20,-3,-8
3235,-7,1,-1,-2,-9,-9,1,-1
3240,0,-2,-2,-2,14,14,-1,1
3245,-6,-1,6,-12,-8,11,0,-27
3250,-5,-8,11,3,-4,-1,-2,37
3255,7,13,-7,-11,4,-22,-3,24
3260,12,-1,-13,-32,12,4,7,-13
3265,9,5,7,33,12,-21,2,4
3270,-7,-6,-9,7,-3,13,-3,-23
3275,-9,-5,5,5,-15,27,-4,7
3280,-13,-3,-6,2,8,-47,-2,0
3285,-7,-4,0,-23,-15,6,-5,-5
3290,4,4,8,4,4,28,2,-41
3295,9,-3,-25,23,0,-13,4,6
3300,3,3,0,10,4,11,2,7
3305,19,-1,-4,-37,11,-4,-3,-12
3310,2,3,9,3,-6,-3,2,22
3315,-6,1,17,23,-14,-9,-7,-1
3320,-12,-6,-17,-9,1,-6,2,2
3325,-6,-7,16,16,-1,2,-3,-21
3330,2,8,-6,-2,4,11,3,-1
3335,2,0,-6,1,7,-6,3,9
3340,-17,-8,13,23,-9,-13,-7,14
3345,8,3,-2,-28,-8,15,1,2
3350,-1,-4,-8,-10,-4,1,-2,-4
3355,-4,-2,18,-12,-2,-19,-3,4
3360,-2,2,-12,36,8,30,-3,2
3365,-2,-4,-9,16,-20,-36,0,3
3370,-4,-2,2,-19,-3,2,3,6
3375,-9,1,0,-37,-2,39,6,-10
3380,-6,4,10,19,21,-8,-1,10
3385,4,5,-5,25,-10,14,5,23
3390,0,-1,23,-2,-4,-11,-5,-8
3395,8,-3,5,2,10,17,-2,13
3400,-11,-6,-4,-6,-17,-5,-1,-31
3405,-32,-12,-2,20,33,10,-1,-10
3410,37,16,-9,4,-18,7,2,17
3415,13,2,6,8,3,-19,1,3
3420,7,-1,-2,-4,-9,-6,-6,8
3425,-1,-1,0,24,19,-4,1,-4
3430,-24,-7,11,-59,-11,-2,-8,-25
3435,-2,-1,-16,10,10,-7,5,-15
3440,2,-1,-3,1,-4,-20,-2,34
3445,17,3,-5,-33,-5,-24,-1,-18
3450,1,4,20,46,-2,-5,0,8
3455,-3,4,22,43,4,6,-7,-9
3460,-6,-8,-15,-17,14,19,7,3
3465,-14,-1,24,-8,-16,-1,-4,-35
3470,12,-3,-20,-2,1,1,-3,6
3475,9,-1,-17,-46,-7,-9,-6,9
3480,2,-2,2,22,-1,20,3,1
3485,-8,6,8,3,-6,0,-4,13
3490,0,0,1,16,1,-13,3,-8
3495,-15,-8,-6,-42,-5,11,2,-5
3500,-1,-1,-15,-4,-3,-17,-5,-4
3505,-5,-3,9,-4,-4,-6,-5,-18
3510,-5,-5,2,8,10,12,9,43
3515,6,5,-10,-5,-2,13,-5,-31
3520,-4,-3,7,-16,-13,-12,-2,3
3525,-2,2,-6,11,-2,6,-2,2
3530,-5,-5,-13,19,19,-29,-2,-5
3535,-3,-1,18,4,-28,-31,-3,-18
3540,2,-2,-3,2,10,14,-5,10
3545,-4,1,0,-21,-8,5,-3,-50
3550,17,6,7,49,10,0,1,79
3555,1,-3,-15,-3,4,10,4,0
3560,-11,-1,-5,-23,1,3,2,-25
3565,-8,-5,13,14,-9,-12,-4,-6
3570,-21,-3,-20,-3,3,22,-6,-33
3575,-5,-2,-32,-36,4,-3,3,2
3580,21,3,-1,52,-8,-34,-5,-3
3585,9,6,-2,-13,24,32,8,23
3590,-5,-3,-10,1,-43,-37,-3,-12
3595,-9,-6,16,-12,9,12,-9,6
3600,0,-1,1,-17,-2,-9,-1,-3
3605,-7,-4,-6,13,-3,-1,1,-37
3610,-3,-3,1,-40,1,3,-2,-5
3615,-8,5,12,50,-6,-7,-7,17
3620,6,6,-2,10,8,27,9,16
3625,29,6,3,28,2,-37,-1,28
3630,-12,-13,-14,-19,2,6,2,-11
3635,1,-5,-6,-8,14,6,-4,-13
3640,-12,4,-4,34,7,23,5,-30
3645,0,4,10,-9,-12,3,-1,35
3650,1,1,6,-10,15,4,-3,-5
3655,-13,-5,-10,3,-21,-68,-1,-22
3660,34,10,15,-13,-10,-1,-2,30
3665,-7,-16,-20,-56,0,28,-4,14
3670,-13,0,4,1,-4,32,-1,-16
3675,11,13,12,9,20,-10,1,22
3680,1,-6,-5,4,-9,13,2,-15
3685,-1,-1,-10,8,-8,-26,-5,4
3690,11,3,4,-24,3,13,2,10
3695,-19,-5,14,13,2,20,-1,-19
3700,5,-1,-21,-3,11,-17,-4,8
3705,-3,-3,-24,8,-6,-9,4,24
3710,5,-1,-7,12,9,2,-1,-11
3715,11,0,-5,3,-7,14,0,1
3720,-9,-4,15,-17,4,0,-1,-5
3725,-3,0,9,-11,-18,-56,-2,-14
3730,-2,-2,-7,-2,-5,8,2,-2
3735,-18,-6,-5,-1,-5,9,0,17
3740,32,3,8,-23,4,6,-4,20
3745,-23,5,-12,-3,-10,28,3,-18
3750,24,2,17,30,6,-15,0,9
3755,16,-3,-1,-7,1,8,-2,-4
3760,-27,-5,-10,-13,-10,-16,-4,-12
3765,6,-3,2,0,3,10,0,4
3770,-4,0,6,5,-2,-8,0,-20
3775,-23,-7,-28,-10,-10,-17,-1,-5
3780,32,8,25,20,-6,-7,-2,16
3785,12,1,-16,-12,3,-13,4,10
3790,-11,-3,-14,1,0,-17,-7,-3
3795,8,1,3,-17,11,9,1,4
3800,-25,-6,6,8,-18,4,-7,-24
3805,0,-3,7,13,6,14,1,8
3810,-7,-6,13,-1,-6,-7,-3,-16
3815,-1,8,-8,2,3,13,2,8
3820,0,0,-5,-29,-1,-30,-2,5
3825,7,-3,5,20,6,10,0,-10
3830,-8,-4,-9,-8,13,4,2,14
3835,23,-4,-1,-4,-14,1,-3,-9
3840,-22,-1,-3,-20,8,3,1,-16
3845,5,1,-11,7,7,-3,-4,12
3850,-19,-4,10,20,17,15,-2,-64
3855,6,2,29,-33,-37,-29,0,57
3860,0,2,-23,-16,29,36,-2,-16
3865,4,-3,-13,11,-9,14,3,4
3870,3,0,-5,-15,-15,-4,-4,-13
3875,-14,-6,21,15,9,19,0,-16
3880,-9,-6,6,-19,-4,-1,0,6
3885,-11,1,3,15,-14,-1,-5,-3
3890,-11,-14,-16,-41,-12,15,2,-25
3895,-13,5,0,44,19,10,-2,46
3900,27,9,5,10,2,-2,8,-24
3905,16,1,1,3,7,8,1,24
3910,7,5,-5,-43,-19,-22,1,17
3915,-8,-3,-7,43,23,3,-4,-42
3920,-14,-7,-3,-13,-8,-7,-3,-14
3925,-6,-3,7,-5,-7,-31,-5,7
3930,-1,0,-3,-16,-33,-49,-2,4
3935,-9,-4,-6,6,34,36,2,-45
3940,-31,-13,31,22,-18,-41,-10,-13
3945,68,27,-4,0,19,35,10,79
3950,-6,-1,10,13,-4,9,1,5
3955,4,-4,-27,-36,-6,-10,-2,-10
3960,-13,-6,3,-1,1,10,0,-10
3965,-34,-12,17,11,0,-19,-7,-39
3970,8,9,18,3,10,13,2,12
3975,4,-4,2,3,14,20,1,3
3980,-6,-6,-12,2,-10,-29,-2,10
3985,2,1,-2,-45,-7,-2,-7,-16
3990,11,6,3,55,18,23,3,15
3995,7,2,-4,-9,-16,-20,1,-9
4000,4,-1,-15,-10,10,5,2,14
4005,-17,-7,7,9,9,-7,-2,-7
4010,-30,-15,-25,14,-23,-12,-6,-86
4015,31,13,-1,-28,-11,1,-4,74
4020,18,8,4,53,8,44,13,-2
4025,-7,2,-5,-28,7,6,0,14
4030,3,-1,-17,-29,0,-1,0,0
4035,-35,-12,3,24,-10,-17,-4,-30
4040,20,-2,-6,1,5,12,-2,3
4045,-7,-3,-2,-6,-15,-38,-10,-32
4050,-3,4,4,-2,-6,-19,0,34
4055,13,8,10,-22,3,-1,-2,-11
4060,-13,-3,10,9,-5,10,0,28
4065,-15,-8,-15,29,16,-2,1,-53
4070,1,2,0,-17,3,1,-4,5
4075,7,-1,26,-10,-3,19,4,82
4080,5,0,-16,-25,17,-10,-2,-44
4085,2,4,4,7,-5,-7,3,29
4090,-8,-7,5,7,18,32,-2,-6
4095,2,3,-27,-5,-7,16,0,-24
4100,-6,8,9,19,-11,-31,0,-2
4105,-15,-8,5,5,7,7,1,-25
4110,16,4,8,-7,-1,2,-2,38
4115,4,-5,-7,-19,-13,-21,-3,-39
4120,-13,-4,-6,6,12,6,-3,22
4125,2,2,3,-23,-4,4,1,-35
4130,4,-7,-6,-47,-14,-34,-5,68
4135,-4,0,26,28,16,-13,-3,-11
4140,-5,-7,-34,-12,0,12,4,18
4145,28,7,13,-10,5,45,6,-16
4150,4,4,5,0,14,-19,-3,-10
4155,0,0,-8,8,-13,-11,1,-1
4160,0,-1,-5,-14,-20,-42,-4,19
4165,-19,-5,2,3,2,25,0,-3
4170,-10,-1,-3,7,-9,-18,-1,-65
4175,7,0,-14,3,-5,-20,-7,21
4180,10,0,1,4,10,28,6,16
4185,-3,-3,4,-5,-20,1,-2,16
4190,-6,2,-7,-13,7,5,-1,-28
4195,-25,-12,-13,14,2,-21,0,-36
4200,0,2,23,-1,-5,4,-4,-23
4205,10,4,-3,0,22,20,4,61
4210,34,7,-3,41,-26,-60,1,17
4215,-15,-2,18,-2,59,55,0,-37
4220,-9,-7,-6,-31,-63,-65,-8,-7
4225,4,-3,-17,-23,6,-45,-10,21
4230,4,1,-3,34,49,57,11,14
4235,9,3,-6,1,-25,12,0,-7
4240,-9,-4,8,6,32,60,-4,8
4245,-13,-3,0,15,-18,-40,-6,3
4250,-2,-2,-22,-48,-15,6,5,-23
4255,27,3,0,25,15,52,0,35
4260,-28,-4,10,-48,57,13,3,-36
4265,10,-6,-13,21,-88,-62,-5,2
4270,-10,6,5,-1,-23,-27,-6,12
4275,-6,-6,11,-12,12,30,5,-32
4280,27,8,-9,3,-5,-21,-4,14
4285,-40,-8,23,-49,34,24,3,-40
4290,22,1,-12,39,-58,-25,-7,77
4295,-13,-6,-10,11,32,-42,-2,-6
4300,-10,1,-3,-14,-45,-19,-6,-4
4305,26,8,-7,19,70,113,14,-3
4310,-51,-20,-5,-9,-42,-20,-16,-39
4315,44,17,3,14,10,23,12,36
4320,-15,-5,5,8,-44,-69,-12,-38
4325,-13,-7,-2,-3,26,61,6,17
4330,12,7,34,-29,-4,-57,-3,-2
4335,-4,-6,-30,-4,-31,17,-4,0
4340,-2,2,3,16,10,-25,6,-16
4345,3,-1,-11,-1,-30,-30,-9,-10
4350,-5,-6,4,15,43,48,3,3
4355,-28,-1,18,-35,-54,-57,0,-14
4360,53,8,-3,68,19,49,6,43
4365,-2,2,0,-11,-3,7,-5,-32
4370,-17,-10,7,54,23,25,3,0
4375,-12,0,-1,-7,-29,-57,-13,-14
4380,13,0,-13,3,-16,-11,6,29
4385,-6,-3,0,7,-23,-13,-5,6
4390,1,-1,-5,-29,32,18,0,-24
4395,-3,3,1,-23,-18,-30,-3,-31
4400,16,6,-1,-11,3,34,0,31
4405,-7,-5,-10,-5,-14,-15,3,-4
4410,-14,-2,-2,7,50,59,3,-30
4415,14,-3,-6,-44,-22,-5,-4,54
4420,14,5,-1,26,3,6,7,19
4425,-2,0,16,8,16,7,-11,-48
4430,2,1,-2,-18,-17,-5,11,32
4435,-2,-4,-7,5,-8,1,1,-13
4440,-26,-5,18,-45,-26,41,-5,-10
4445,9,2,1,48,27,-74,-6,29
4450,-2,0,-9,-4,-5,18,-6,-19
4455,4,0,9,11,-2,41,6,-24
4460,-15,-3,-7,-14,8,-22,-9,49
4465,6,-7,6,0,-4,27,8,25
4470,41,17,-14,-10,-1,-28,-2,-3
4475,17,1,1,-7,23,33,6,29
4480,-26,-5,-3,31,19,-8,-2,-34
4485,-12,-3,1,-15,6,20,-3,-27
4490,17,1,-10,-7,-6,-29,1,59
4495,-8,-6,-18,-5,-28,-24,-2,-23
4500,-1,2,-2,-16,8,6,-2,-27
4505,1,-1,-12,31,-9,-11,2,8
4510,-6,2,10,-3,-1,9,1,-11
4515,-6,-4,-4,16,4,8,-2,0
4520,1,-7,-1,-14,12,14,-2,-16
4525,-4,5,-11,-15,-33,-52,-1,-13
4530,-13,-1,-8,6,22,68,2,-7
4535,8,-2,9,25,17,-38,-2,91
4540,6,1,-15,4,-26,-30,-4,-47
4545,-9,-6,-9,-19,9,11,0,-17
4550,-14,-3,9,38,-6,-3,-2,-27
4555,-13,1,-4,-10,-2,-13,-2,28
4560,-4,-6,8,17,10,38,0,8
4565,-12,4,-6,-8,0,-11,-2,-21
4570,32,3,7,-19,13,12,0,35
4575,-18,-5,5,12,-59,-28,-3,-46
4580,3,-3,-4,-11,1,-20,-5,29
4585,-14,-4,20,11,-5,-22,-6,-5
4590,23,6,7,4,-27,-55,1,32
4595,3,3,4,3,25,39,5,-35
4600,-1,2,39,-23,-13,22,-2,4
4605,-5,-4,-10,4,-15,0,0,-2
4610,-18,0,6,13,22,25,-2,-39
4615,-17,-8,-7,43,20,-37,-7,48
4620,44,13,-4,22,25,-5,11,3
4625,7,-1,-2,-18,-14,-8,-6,17
4630,-13,-4,5,-10,-9,15,-3,-13
4635,-7,0,5,-3,7,19,0,-34
4640,-26,-5,-21,-17,5,15,-2,-16
4645,-16,-2,-6,-19,3,-22,2,-4
4650,25,-4,-16,1,0,23,-8,41
4655,-1,4,4,-2,5,-61,-4,22
4660,10,1,-24,-14,0,9,3,-19
4665,12,2,-3,-17,6,17,4,6
4670,-21,-3,-6,-7,-16,-16,2,-23
4675,-15,-4,8,-37,0,7,-4,-32
4680,3,-7,-10,11,8,24,-6,56
4685,18,9,-3,-4,12,7,7,5
4690,-13,-9,-6,-9,1,-3,-5,-25
4695,15,3,-3,12,2,27,-1,4
4700,-32,-6,4,-27,-8,4,-1,-47
4705,3,0,3,-6,-8,-12,-2,0
4710,-8,1,2,-4,8,8,4,56
4715,11,0,8,-30,-8,10,-1,-62
4720,-13,-11,-5,12,-12,-36,-5,12
4725,17,11,-8,1,13,8,-1,25
4730,-12,-1,-14,2,11,21,-2,-33
4735,4,-2,-5,18,-12,-39,1,-3
4740,-9,1,4,15,-18,2,-1,-8
4745,-14,-11,-9,43,30,7,-9,-32
4750,11,0,-8,-24,-12,13,8,81
4755,-5,1,-8,10,12,3,1,-6
4760,7,3,3,8,-4,5,-3,1
4765,15,1,10,-2,-5,-4,0,11
4770,-18,1,7,-23,-11,-16,-5,-55
4775,5,-5,-19,-20,22,36,-2,19
4780,-28,-3,-3,36,-30,-22,1,-5
4785,60,12,17,9,23,25,6,27
4790,2,0,-5,-21,-30,-21,-3,-17
4795,11,-1,9,-8,-1,16,-3,12
4800,-16,-6,-5,16,-19,-55,-7,-40
4805,-24,-7,-17,-36,0,22,-3,13
4810,3,-6,4,35,11,-10,6,-61
4815,7,9,4,-11,2,11,-7,78
4820,31,9,9,-16,11,29,3,1
4825,-10,-8,-1,-7,-29,-16,-5,-9
4830,5,0,5,24,1,-5,-1,-2
4835,-16,-5,-9,-10,16,10,0,-27
4840,3,-4,1,-4,-10,-12,0,9
4845,-7,-3,-2,-20,-10,-15,-1,-6
4850,-47,-14,22,-26,-12,35,-8,-9
4855,43,17,8,33,47,-33,2,22
4860,14,-7,-25,7,10,24,5,13
4865,-8,1,5,-2,8,26,0,-4
4870,-4,-2,-1,-9,-12,-54,0,-6
4875,-21,-5,0,-3,-1,8,-4,-19
4880,8,-1,7,-6,12,14,1,10
4885,-28,1,-1,-31,-9,2,-6,-36
4890,-8,4,-2,34,17,-7,-2,83
4895,23,2,20,-6,0,17,7,-3
4900,-12,-6,-19,-45,-1,35,4,-40
4905,17,4,4,85,-7,-16,-1,21
4910,15,2,-2,5,7,-16,-5,-10
4915,1,0,-2,-5,-18,-4,0,-26
4920,-11,0,15,-20,9,11,-2,8
4925,-21,-7,13,2,-7,-11,-2,-11
4930,-8,-1,-4,-8,10,13,-7,9
4935,26,6,8,16,3,10,-2,2
4940,-2,-2,7,28,33,12,9,-39
4945,-1,-2,-15,-26,4,-43,-3,55
4950,13,1,0,-24,-27,32,-1,-12
4955,-11,-5,-19,7,10,51,6,15
4960,-7,7,4,9,-1,-1,-9,-2
4965,6,-1,5,-4,7,-26,2,-9
4970,-9,0,28,3,-13,-35,0,-13
4975,-13,-4,14,-10,-26,8,-5,-12
4980,7,3,-13,-7,20,8,-3,6
4985,-7,-3,-6,-14,-3,7,10,3
4990,27,5,-4,-23,25,-1,2,-12
4995,2,-2,-30,40,-6,-2,1,3
5000,0,-1,6,-15,-3,-25,1,23
5005,-1,-3,-1,-15,-14,24,-4,-13
5010,-20,-9,-4,17,30,-4,2,-37
5015,14,11,-8,-21,-5,2,4,-7
5020,11,6,18,-3,-24,-27,-6,46
5025,-17,-1,-13,54,13,49,-5,-14
5030,28,-1,-23,19,2,-13,7,-3
5035,-35,-13,2,19,6,-4,-6,-7
5040,6,-1,2,16,-8,1,4,6
5045,9,9,3,5,12,11,1,-7
5050,4,2,-5,-6,-8,17,-3,-2
5055,-25,-9,-1,-2,-27,-33,-2,-21
5060,6,3,7,-2,-8,-5,-2,12
5065,-5,-6,7,-20,-13,-13,-6,1
5070,24,2,-7,-1,0,17,4,23
5075,10,0,0,33,8,-18,-1,14
5080,-16,-4,-8,-23,-5,-12,0,-30
5085,11,-4,-12,2,-4,-4,-1,20
5090,-5,2,5,1,-9,-1,-2,-4
5095,-15,-9,5,-10,-3,6,1,-30
5100,-14,3,-4,-71,17,-5,-8,-6
5105,30,8,-19,28,-37,25,4,-4
5110,3,-1,3,14,29,1,4,18
5115,-12,-5,-10,-21,1,-21,-1,-9
5120,3,-4,3,25,25,15,2,-10
5125,-24,-6,11,-30,-12,-10,-5,-64
5130,-5,1,21,-57,-24,22,-6,44
5135,1,-2,-3,10,6,-13,3,-19
5140,11,-1,-1,29,2,15,1,28
5145,3,4,14,2,10,-1,1,28
5150,-4,-4,-14,-33,-13,38,-1,-16
5155,-4,4,19,-22,2,-24,-5,-9
5160,-4,-3,-11,13,-7,-5,-3,-18
5165,1,-1,-3,4,-30,8,5,30
5170,-19,-3,3,12,18,1,-3,-33
5175,28,7,-15,-24,-9,-18,-2,42
5180,-1,-1,-8,-5,2,3,2,-16
5185,25,4,18,-5,13,-4,-4,10
5190,-9,-2,-8,39,6,-39,-2,-8
5195,-10,0,2,-10,-16,6,-1,-5
5200,-23,-9,-4,7,6,-7,-1,-31
5205,16,-2,-7,1,17,14,7,38
5210,3,3,-12,-27,-22,-46,-11,9
5215,19,6,-16,48,-4,49,6,15
5220,-19,-4,4,29,0,-28,-2,1
5225,30,10,11,-11,8,1,0,18
5230,-3,-5,4,25,3,-10,4,-28
5235,-12,-3,8,-43,4,39,-1,-5
5240,-3,-1,-11,1,28,4,-5,-12
5245,-41,-11,3,0,-12,-21,-3,-53
5250,47,15,2,11,11,16,5,77
5255,-10,-8,5,8,9,8,1,-12
5260,24,2,13,-55,-18,-11,-2,-1
5265,-17,3,1,7,15,-10,-1,30
5270,-4,-7,13,23,15,10,-2,-10
5275,-12,0,-6,5,-33,-25,-4,0
5280,2,1,-11,-8,6,-1,1,-18
5285,4,-4,-11,-9,-5,-37,-2,-7
5290,-16,-5,-18,-9,-4,12,1,-2
5295,0,4,13,19,13,13,3,-12
5300,14,4,3,-17,-4,33,1,11
5305,-13,-5,-12,-4,-11,-46,-11,-12
5310,-10,-4,-17,-5,3,-1,2,-13
5315,-12,-7,-4,-22,-1,-7,1,-26
5320,7,-1,10,-3,-20,5,-3,21
5325,-18,-4,-6,21,30,22,0,-21
5330,43,9,-6,-8,-16,-17,7,30
5335,1,1,11,17,21,13,0,27
5340,-7,-3,-16,15,-20,-15,-7,-17
5345,-15,-9,-1,-30,-13,4,-3,-17
5350,-36,-5,21,7,-7,-12,-8,-62
5355,25,8,-12,-12,4,-13,5,43
5360,15,2,6,5,3,16,4,42
5365,-1,-3,4,16,-4,-3,-5,-16
5370,-16,0,21,-79,-16,8,1,-11
5375,0,-9,-9,18,3,1,-7,-38
5380,-1,-2,-6,13,5,6,-1,22
5385,-12,-2,-2,-12,-18,-24,-3,-48
5390,5,3,-8,11,3,-6,3,99
5395,10,3,-1,7,56,27,2,-32
5400,-5,-5,-3,-10,-35,-23,-2,-11
5405,7,2,3,-2,7,16,0,20
5410,-34,-15,-14,4,-6,-5,-10,-77
5415,14,3,-4,-26,-13,-11,-1,67
5420,-8,3,15,30,4,-5,-2,-14
5425,-13,-6,-6,-52,1,27,1,15
5430,10,1,-9,15,12,11,-4,-30
5435,-22,-5,11,23,-19,-8,-4,-8
5440,22,2,-30,-34,7,7,4,6
5445,-7,-5,-8,13,-25,2,-4,4
5450,-8,5,5,28,13,-15,-4,-19
5455,5,-6,-21,-18,-4,-5,-3,5
5460,-21,-1,11,18,-4,30,0,24
5465,24,5,-2,18,4,-7,5,-2
5470,-5,-3,-20,9,7,-2,-2,-33
5475,-6,2,9,-24,-38,-11,-4,13
5480,-14,-4,7,12,11,-10,-1,-27
5485,-3,0,-1,-16,15,6,-1,4
5490,15,-3,-7,-25,-35,-33,3,51
5495,0,5,0,30,44,10,4,-20
5500,-8,-7,-14,24,-20,-21,-3,-16
5505,1,-1,0,33,13,15,4,32
5510,20,4,8,8,3,17,2,-9
5515,-16,-4,-2,1,-9,-21,-9,-21
5520,10,6,7,-21,19,4,-3,8
5525,-6,1,6,-13,-10,1,-2,-12
5530,-15,-5,3,20,-2,2,0,4
5535,25,5,-6,-24,-27,5,4,10
5540,-23,-3,21,12,14,7,0,-21
5545,26,1,7,20,-13,-10,0,26
5550,-9,6,21,-53,15,20,-3,-7
5555,-10,-7,-13,-12,-9,-5,-1,4
5560,-4,-3,-4,-26,-3,-8,-3,-10
5565,-2,3,7,50,20,19,3,2
5570,22,2,-6,-1,-1,-27,-5,2
5575,-8,-8,9,57,-7,20,0,10
5580,2,-1,-16,-19,-1,5,-4,-7
5585,-17,-2,3,-20,18,9,-3,-74
5590,-2,-1,-3,8,-14,10,1,83
5595,7,8,16,-10,-1,0,4,-17
5600,11,-2,-4,8,-2,-23,1,9
5605,-2,2,4,-12,6,16,-3,0
5610,-14,-1,17,-5,-10,-12,-2,-26
5615,-13,-7,-23,-45,4,-7,1,-1
5620,0,2,6,5,-17,-9,1,20
5625,4,-5,-9,0,22,11,-6,-16
5630,8,-1,5,13,-6,14,4,-14
5635,-5,-2,6,-28,0,-3,-5,36
5640,-4,0,1,27,2,-14,1,-41
5645,-1,1,-2,12,-11,3,-1,12
5650,-3,4,4,22,-14,-9,0,-28
5655,24,3,29,15,30,6,3,30
5660,0,-10,-18,-2,-26,2,-6,4
5665,-10,8,-3,-5,-5,-45,-2,-15
5670,2,-7,-5,5,-3,3,1,20
5675,-1,1,-1,-13,-9,-1,-2,-22
5680,-19,-6,7,3,4,0,0,-20
5685,9,1,-5,-15,-4,6,1,12
5690,4,3,7,-5,-4,-10,-1,16
5695,-13,-3,-27,-56,-5,26,0,-36
5700,10,3,5,29,29,3,2,17
5705,-13,-9,-18,-3,-18,10,-4,3
5710,9,7,0,-10,8,11,-1,-18
5715,-6,-6,1,19,-1,-24,-4,14
5720,-4,2,3,-26,-14,36,-5,-25
5725,-5,-4,8,-19,0,-14,0,19
5730,-4,-6,-19,23,47,37,4,-37
5735,7,0,-4,30,-10,-22,0,30
5740,11,7,-8,-15,-1,5,0,15
5745,-7,-6,8,16,6,-14,4,-17
5750,11,1,-8,-23,-8,12,-2,9
5755,-21,-6,-3,4,5,-1,-5,-54
5760,-4,-1,-2,-21,0,-25,0,9
5765,2,0,1,7,-10,13,-6,72
5770,17,9,5,40,-4,-10,5,-1
5775,-7,-2,17,19,-20,-19,-7,-11
5780,-9,0,-17,-12,11,12,0,6
5785,-8,-6,-1,5,4,-4,1,-37
5790,-14,-9,-9,-20,-16,-9,-4,14
5795,5,-1,-3,3,-9,2,-2,10
5800,-6,1,10,-13,1,12,-1,-8
5805,6,-3,-11,-9,14,20,3,-1
5810,-3,-4,-9,20,-17,-34,-5,-14
5815,-4,1,-1,4,6,20,-1,-11
5820,5,5,8,-4,6,-31,-5,-10
5825,7,-1,8,-27,-5,14,4,14
5830,-14,-3,-5,-8,3,2,-5,-17
5835,-3,-3,19,53,10,14,5,-12
5840,13,-1,-12,5,-1,7,3,22
5845,-5,0,15,14,-6,-27,-2,-8
5850,-10,-4,-3,-52,-3,-8,-2,8
5855,-21,-8,-15,-15,-14,-20,-7,-8
5860,10,3,3,29,8,3,1,-9
5865,-10,-1,5,-13,-9,-14,-1,-10
5870,13,-1,-15,-68,-19,0,-2,18
5875,-10,2,-1,-15,27,29,5,14
5880,18,-8,-4,-6,8,21,1,22
5885,-1,7,-4,21,-2,-40,-6,-11
5890,-5,-1,16,23,-1,-4,-2,-6
5895,16,2,-4,-13,-8,9,-1,5
5900,-2,0,6,-34,-9,-4,0,-7
5905,6,-4,-2,-9,9,6,-1,19
5910,0,3,-2,52,2,24,3,-5
5915,-8,-9,-8,3,-10,-48,-6,-32
5920,16,-3,-7,5,2,0,-1,-13
5925,5,0,-9,-6,-6,3,-3,32
5930,2,3,6,-11,-2,-6,0,0
5935,-10,-1,-8,-12,-4,-1,2,-7
5940,-22,-5,8,11,-9,-14,-2,-30
5945,12,4,29,-42,-15,9,-4,14
5950,12,1,-41,38,23,18,3,24
5955,7,0,-2,-11,-11,-46,0,1
5960,-12,0,24,8,-5,2,-2,3
5965,-5,-6,-12,-11,7,5,1,-7
5970,-9,-4,15,20,-3,-2,-4,-11
5975,3,3,-4,-25,-1,11,-3,-9
5980,-19,-2,8,-1,-23,-10,1,24
5985,18,3,-13,-10,42,14,-3,-38
5990,-6,-5,5,-4,-17,1,0,3
5995,7,1,-4,-4,-2,-13,-4,6
6000,6,-6,-11,-19,3,8,1,2
6005,-11,-2,1,-16,1,-1,2,-14
6010,1,4,7,16,0,2,-1,3
6015,-35,-13,-14,37,21,54,5,-24
6020,48,18,-8,15,10,-59,-4,67
6025,15,1,4,7,-23,-2,2,-8
6030,-6,-4,-6,-4,4,4,2,-11
6035,2,1,21,-1,2,9,-3,10
6040,-18,-9,-8,12,9,28,-2,-20
6045,-8,-1,-7,23,-9,-17,-2,6
6050,-8,-2,-3,-46,-5,-5,-1,-17
6055,5,4,18,19,-5,9,0,5
6060,-25,-4,-8,-5,9,-18,-3,-14
6065,20,10,-1,-6,-13,-14,-2,-5
6070,5,-6,-17,-2,7,0,4,33
6075,15,2,-10,-54,-5,0,0,-7
6080,-4,0,8,12,18,13,1,23
6085,-16,-8,-4,26,-9,-29,-3,-10
6090,-4,0,18,-22,12,5,-2,-2
6095,3,-6,-13,-4,-22,-48,-6,-35
6100,-7,5,1,-3,-6,-5,2,38
6105,11,13,8,-6,-2,42,1,8
6110,-10,-7,-1,25,11,1,-1,-8
6115,1,-4,-20,-43,-13,-9,-3,8
6120,-2,-7,-3,-12,2,23,1,-29
6125,-23,-7,2,59,0,-5,-3,-45
6130,26,6,8,-3,-6,-26,0,45
6135,11,6,9,5,15,9,2,30
6140,-1,-1,-4,10,-10,-10,-3,-29
6145,1,-4,-11,-32,-14,7,0,22
6150,-18,-1,-2,-12,13,17,-5,-42
6155,8,-3,1,10,0,13,-2,16
6160,6,3,11,6,17,23,3,-10
6165,-11,-12,-6,3,-15,-36,-1,9
6170,-10,6,-19,-49,-17,-5,-1,-20
6175,8,8,0,13,16,9,4,34
6180,-6,-3,11,-6,-6,1,-4,-19
6185,9,-4,-16,-7,10,28,6,7
6190,7,-5,-1,21,-10,-20,-1,4
6195,-14,-2,-7,-46,-28,-10,-7,-34
6200,-7,-2,-9,30,-4,-37,-5,-5
6205,3,5,14,22,5,-16,5,27
6210,11,0,7,-5,9,11,-4,1
6215,1,-4,4,-6,11,24,2,-2
6220,-5,-5,9,-20,-38,16,-1,-12
6225,-3,0,-5,-2,11,-3,-2,-8
6230,-29,-16,-7,-45,-9,9,-1,-37
6235,28,12,-12,47,12,-18,4,88
6240,13,6,42,-39,-1,5,2,-27
6245,-13,-4,-21,34,6,14,-6,-21
6250,7,2,15,12,-13,3,0,12
6255,-24,-12,-5,6,32,11,-7,-37
6260,0,0,0,3,-34,-26,-1,24
6265,2,5,7,-3,5,17,3,7
6270,-14,-8,3,16,-2,-24,-8,-30
6275,-14,-3,-3,11,-16,-5,-5,10
6280,26,2,-18,15,20,14,8,45
6285,12,4,6,-12,-5,6,4,-14
6290,1,2,-5,32,3,14,2,12
6295,-9,-2,6,-7,1,2,-1,-14
6300,-12,-5,-4,9,3,-2,-1,-20
6305,-7,-8,-7,-16,-9,4,-5,9
6310,3,3,-1,-1,0,-36,0,3
6315,-24,-2,-3,-81,-20,-18,-4,-54
6320,11,-6,2,56,29,-24,-7,17
6325,39,13,3,-30,-13,-5,8,25
6330,1,-2,-8,16,1,-4,-3,24
6335,2,2,7,-5,-14,4,4,-23
6340,-7,-4,-22,-30,-7,1,-7,-11
6345,-14,-3,1,-2,7,5,-4,-1
6350,5,2,22,-4,-9,1,1,5
6355,-6,-2,-15,-3,-11,-1,1,-6
6360,-4,-2,-14,-63,37,62,0,-6
6365,-30,-8,-3,47,-2,-24,-3,-32
6370,74,17,11,32,0,-23,4,57
6375,15,6,14,24,8,3,2,14
6380,-4,0,-4,6,-15,1,0,-2
6385,-9,-7,-3,-30,-1,-5,-4,-10
6390,-24,-4,-7,-15,2,9,-4,-23
6395,6,0,0,22,3,1,0,13
6400,6,1,-4,-3,-6,-24,-1,-1
6405,-23,-9,0,-9,-1,7,-4,-9
6410,-9,1,6,-11,14,17,-1,7
6415,25,11,-6,10,-57,-69,-4,54
6420,11,3,26,-4,22,27,8,-16
6425,7,-5,-24,-40,-10,9,-6,22
6430,-4,-4,-19,-9,-4,6,-1,-18
6435,-5,-6,9,31,21,-1,1,-24
6440,-14,-5,-3,-12,-25,-26,-3,-8
6445,-13,7,24,38,9,6,-2,6
6450,5,-2,7,14,9,1,2,-3
6455,-10,-5,11,2,3,12,-8,-10
6460,15,1,-29,-14,-11,10,5,37
6465,6,-2,15,24,-2,0,0,11
6470,-21,-6,-14,-16,-2,5,-4,-39
6475,7,-1,2,14,10,-5,2,11
6480,-14,3,2,6,-7,4,-7,-37
6485,3,1,39,-21,-4,-13,-1,33
6490,9,-1,-32,-31,-20,-1,2,6
6495,-6,-4,-9,-21,32,23,0,0
6500,-11,-8,-11,9,-23,-70,-9,-18
6505,11,-1,-12,18,3,21,5,-28
6510,11,15,37,48,-11,-5,-2,43
6515,-1,-2,-5,-19,-8,22,0,-4
6520,-12,-1,4,-9,4,-16,-1,-52
6525,26,2,-25,-8,-11,-20,-2,37
6530,-9,-3,3,14,13,-8,0,-20
6535,2,-1,5,-1,-5,-8,-5,-22
6540,-16,-1,-24,-23,-1,-11,1,15
6545,-23,-6,9,24,0,7,-5,11
6550,2,-5,-18,-20,-1,36,1,-14
6555,19,4,-4,7,7,-22,1,13
6560,7,0,3,3,-7,3,-3,14
6565,-23,-4,-14,-45,16,29,-2,-58
6570,2,-10,18,34,-5,-29,-2,24
6575,8,8,-5,6,-11,11,1,54
6580,15,4,7,21,1,11,3,-10
6585,9,0,1,-7,-14,-19,-1,-7
6590,-15,-2,7,-13,12,6,0,-7
6595,-2,-1,-1,2,6,8,3,-18
6600,-6,0,-2,28,-6,19,-5,2
6605,-3,-2,-12,-46,3,10,-5,-15
6610,-10,-7,-15,7,4,3,2,-22
6615,-5,-3,-7,-9,-2,-10,2,20
6620,19,8,12,31,3,23,1,50
6625,1,-4,-16,7,-1,-30,-3,-19
6630,-15,-4,-11,-24,6,26,1,-12
6635,-14,0,2,5,-1,41,-5,-24
6640,-4,-1,23,-21,-26,-98,-6,2
6645,-8,-1,15,27,-5,-17,-4,-24
6650,-10,-2,-34,-24,8,10,3,56
6655,37,8,2,-14,-1,-21,0,-26
6660,19,1,-6,23,31,43,7,25
6665,4,3,-1,8,-2,-15,-1,-24
6670,-7,-5,-11,-2,-10,-7,-5,-4
6675,-15,-9,15,3,-1,-12,-6,6
6680,-13,-2,-4,-30,-6,1,-4,-10
6685,-10,-2,-13,13,22,-3,-2,-6
6690,5,2,10,16,8,13,2,-23
6695,0,-9,-11,7,6,-2,-1,25
6700,0,6,-4,-38,-11,24,0,-25
6705,-4,-5,-12,3,9,-13,1,24
6710,-8,3,15,6,-8,-5,-3,-32
6715,-13,0,19,16,-3,10,-2,-19
6720,-14,-12,-12,-8,-7,-46,-9,23
6725,16,4,-16,7,3,42,16,4
6730,-2,-4,-5,-18,-12,-64,-14,-28
6735,4,-1,-7,12,6,4,-2,15
6740,-28,-8,3,6,6,12,-2,-34
6745,19,10,6,-4,-22,10,-2,49
6750,1,4,27,18,20,-41,-1,-24
6755,-27,-10,-13,-22,-43,11,-2,-26
6760,12,0,-3,15,15,13,3,-2
6765,-6,-3,7,3,-5,1,-4,16
6770,3,4,18,29,15,27,4,-2
6775,0,0,-6,-34,-6,-15,-3,-5
6780,13,1,-16,17,11,14,3,3
6785,-1,-7,-12,-47,6,1,2,-3
6790,-12,-12,-27,-43,-27,14,-6,6
6795,11,13,-7,40,14,22,3,27
6800,30,6,-10,-27,9,-17,4,5
6805,-5,-1,-7,-2,-5,-2,-2,7
6810,-6,-1,3,3,-8,14,-1,11
6815,-5,-6,-9,-19,5,10,-1,-42
6820,-11,0,27,1,-19,23,-2,-1
6825,1,0,-5,-11,-6,-37,-8,-19
6830,4,5,-1,24,-8,26,9,-3
6835,18,9,16,35,5,-56,-1,15
6840,-19,-9,3,1,1,46,4,2
6845,7,1,12,1,-4,-14,-5,4
6850,-5,-4,-11,-17,-7,11,-1,19
6855,-10,-5,13,40,0,-2,-3,-25
6860,3,-2,-15,-9,5,-4,-4,62
6865,-1,-2,12,17,8,-5,4,-16
6870,27,4,-7,-16,-21,-30,-3,3
6875,-6,-2,7,17,26,21,2,4
6880,-17,-8,14,-19,21,-5,-5,-28
6885,-4,-1,8,13,-29,-20,2,6
6890,14,7,-8,19,10,-9,-6,-10
6895,-10,0,-5,-36,-4,11,4,-13
6900,16,1,-7,-7,-7,-26,-1,-4
6905,1,2,-6,-21,12,16,-1,26
6910,-3,-4,7,-9,-1,-13,-2,-12
6915,-3,-4,3,2,-3,-9,2,6
6920,-24,-8,-19,8,-5,6,-4,-48
6925,1,1,-6,17,-16,-14,0,48
6930,14,5,5,-19,6,14,0,-2
6935,-14,-7,1,10,3,-10,-1,-22
6940,13,4,-5,10,-14,7,1,34
6945,-17,-7,-4,6,10,12,-2,-42
6950,8,0,-7,4,17,29,1,-1
6955,4,1,0,-27,-7,-9,-1,20
6960,-8,0,31,-16,-9,6,-1,-18
6965,2,1,-5,21,-2,-31,-1,-32
6970,-14,-4,2,-3,3,18,0,6
6975,-3,-2,-11,-37,-1,17,-2,26
6980,-3,-4,-1,4,10,-4,-3,-3
6985,-1,1,2,-36,-16,20,-4,11
6990,-3,-2,-9,-10,0,-20,-1,-13
6995,0,-9,-5,-17,-1,-40,-3,-18
7000,7,11,-12,-27,-13,1,3,-3
7005,-2,-4,11,-3,16,23,0,26
7010,-12,-5,-6,-1,12,-24,2,-11
7015,-3,-3,-11,-4,-42,-1,-4,0
7020,-4,-4,-5,14,0,-2,1,5
7025,9,1,5,14,26,8,-2,-55
7030,3,7,19,-23,-4,29,1,23
7035,4,0,4,28,15,-10,0,-10
7040,0,3,-1,11,-3,-14,2,2
7045,-15,-6,-11,0,11,9,-4,11
7050,-2,-10,-3,7,8,37,4,36
7055,15,12,-15,-18,-7,-41,-2,4
7060,-7,-1,2,12,-3,12,-3,-2
7065,-8,4,8,0,-1,7,1,-32
7070,8,-1,1,22,-5,-30,-9,7
7075,-13,-6,-4,0,9,25,1,-13
7080,1,-7,-8,5,-11,-18,-1,11
7085,4,4,10,-14,20,12,1,15
7090,-7,-6,-15,8,-50,-20,-8,-22
7095,15,4,43,13,19,14,2,-4
7100,-2,-1,-18,13,-7,-4,-5,3
7105,9,-1,1,6,-4,-29,4,8
7110,-11,3,5,-5,9,-2,-1,-20
7115,7,-4,-9,-34,-26,-12,-2,28
7120,0,0,4,10,4,32,-1,-22
7125,-1,-2,2,9,12,-7,-1,18
7130,-5,4,-13,19,9,5,-3,-18
7135,-12,-4,-6,-42,4,44,3,-32
7140,5,-2,7,12,0,-62,-3,16
7145,3,-2,-16,-6,-20,18,1,9
7150,6,1,19,9,4,-10,-4,33
7155,-13,-8,-14,-19,-1,24,-4,-41
7160,21,5,16,22,12,13,3,33
7165,-6,-2,-3,-7,15,-2,-1,-21
7170,9,1,3,-7,-5,-12,-1,11
7175,-12,2,1,21,-3,6,0,4
7180,3,-3,11,22,27,11,0,-24
7185,1,0,-11,11,-40,-59,-5,6
7190,-2,-6,-6,-22,1,3,3,-17
7195,4,12,-1,6,8,-1,-3,9
7200,-12,-8,-7,-40,2,43,1,3
7205,0,-1,8,31,-7,-3,-1,-1
7210,-4,-3,-2,9,-10,-6,1,0
7215,19,0,15,27,5,-6,-1,34
7220,-11,0,-20,-19,-14,14,-3,-20
7225,-1,-5,-2,-7,1,-11,-2,1
7230,-9,-3,-30,-17,0,9,-7,3
7235,6,0,-7,40,-5,-11,1,19
7240,6,4,10,-18,30,-4,0,-7
7245,13,-2,-7,-5,-27,6,-2,-4
7250,-13,-4,-9,-29,0,-4,-2,-10
7255,-9,-3,-7,-10,9,-4,0,14
7260,1,-1,-2,-6,-28,-10,-2,-11
7265,-12,-5,-5,7,32,29,-1,-19
7270,14,18,24,-7,-9,-25,5,24
7275,3,-4,0,7,8,1,0,-4
7280,4,3,6,11,-6,32,2,4
7285,-11,-2,18,-44,-12,-19,-4,-1
7290,-10,-5,-10,5,12,2,2,-12
7295,8,2,3,-15,-13,-14,-2,38
7300,15,0,-5,11,11,-15,1,10
7305,2,2,-11,-1,0,24,1,-7
7310,4,-1,2,50,7,-17,-5,-9
7315,-19,-1,3,-14,-5,-10,-3,-28
7320,-11,-7,0,1,-25,-12,-4,10
7325,22,5,9,-8,8,9,7,24
7330,6,-4,4,-5,12,19,-2,6
7335,-2,3,-19,-7,-10,1,-1,-11
7340,-3,1,2,39,11,-37,-3,2
7345,-8,-4,-5,25,6,33,-3,-12
7350,-11,-4,2,8,1,3,4,-11
7355,10,-3,-6,-4,-9,-6,1,9
7360,-12,0,-15,-13,-2,15,2,-11
7365,12,6,7,-5,10,-34,-3,-29
7370,-7,-8,14,-18,-19,19,-5,86
7375,0,2,-6,13,21,-13,1,-34
7380,-16,-3,15,-1,-23,-19,-2,-6
7385,14,4,9,1,17,-8,2,-10
7390,-13,-4,-30,-22,-12,-21,-5,-32
7395,-12,-12,29,40,21,25,-1,8
7400,19,12,-21,4,12,-12,1,8
7405,-10,-1,14,-7,-14,22,-1,5
7410,5,-1,-11,-18,5,0,2,-17
7415,-22,-12,-13,6,-11,-20,-10,-24
7420,-1,-3,5,-15,1,3,-1,4
7425,12,7,-7,-10,-5,10,4,18
7430,-14,-2,12,15,-6,18,1,-17
7435,4,2,-6,-1,-1,-1,0,-22
7440,-9,-7,-3,-3,-2,-3,-7,35
7445,15,-8,-31,-22,-28,-2,-3,14
7450,-6,0,6,-12,-5,-8,-2,-40
7455,-5,-1,1,5,0,0,0,12
7460,0,-1,-1,-4,-1,5,2,-5
7465,-15,-1,12,19,-4,-12,-4,-12
7470,7,5,-19,-17,2,-4,0,3
7475,12,-6,-8,-21,-16,-32,-1,15
7480,-2,-3,-2,2,8,21,3,-12
7485,-11,-3,0,-24,-21,-23,0,-6
7490,11,3,9,20,12,14,2,-1
7495,-2,7,13,-17,-1,0,-4,-23
7500,-11,-6,4,-9,12,-14,-5,28
7505,14,1,-3,11,-3,23,1,12
7510,-6,1,9,3,-2,19,0,-28
7515,10,0,-10,-35,-7,-28,0,49
7520,-13,-2,-4,11,1,6,0,-18
7525,-5,-1,15,0,5,3,-3,8
7530,23,5,-1,-23,-19,-4,0,19
7535,-6,0,-12,31,6,68,5,-12
7540,-1,-3,9,-10,-16,-68,-5,-28
7545,-12,-7,-15,-7,9,5,-1,-4
7550,-5,-2,7,2,-2,-31,-5,16
7555,-1,0,20,9,19,20,0,5
7560,31,4,-6,1,-3,3,6,-7
7565,-4,4,6,12,0,3,1,-17
7570,11,-6,3,-3,-7,-8,-1,12
7575,-11,-1,-7,-11,5,12,-1,39
7580,17,6,35,52,-1,-3,-2,-4
7585,-7,-7,-19,-7,5,-9,0,-16
7590,-16,-6,-6,15,14,56,-2,5
7595,13,5,6,15,-15,-58,-2,-7
7600,-11,-5,-8,-61,-15,23,0,-4
7605,-12,-5,-3,28,12,-47,-4,3
7610,22,6,15,20,2,23,4,5
7615,0,-6,0,-10,15,21,2,-4
7620,4,2,-12,4,11,12,-6,-9
7625,-18,-5,13,-34,-34,-14,-6,-5
7630,12,-4,-33,-2,20,-3,3,-15
7635,17,4,10,28,10,-8,-3,17
7640,-9,-4,-8,-26,-9,-13,2,18
7645,-2,2,-6,10,9,16,-3,-31
7650,-10,-5,14,7,-6,-34,-1,-22
7655,-11,6,-12,-24,-4,-11,-4,-38
7660,-1,-2,10,9,1,31,0,11
7665,-4,0,-11,18,4,-9,4,2
7670,3,0,2,-6,-3,4,0,39
7675,-17,-9,-13,13,-15,-57,-3,-61
7680,-16,0,-2,-5,4,17,-4,47
7685,3,-5,19,-32,-10,-13,-9,5
7690,-6,-2,-7,14,-11,-3,0,-21
7695,-2,-10,-21,-15,-4,15,3,14
7700,0,7,-2,10,1,39,0,-29
7705,7,6,8,9,-4,-14,2,9
7710,-8,-3,-3,-12,-9,-26,-9,6
7715,-8,-5,26,-33,0,30,-5,-7
7720,-9,-5,-12,16,-14,-47,1,-15
7725,18,0,-13,7,12,11,0,23
7730,-8,0,-16,-30,-2,3,3,-13
7735,-1,2,-1,-8,-15,7,0,5
7740,-1,0,12,-4,16,21,-2,-18
7745,1,3,-16,-17,5,31,1,-37
7750,14,2,7,33,-3,-37,2,83
7755,8,1,-3,-1,-5,-4,-6,6
7760,3,2,1,18,-6,37,1,-41
7765,6,-1,0,-9,-16,-23,-5,-20
7770,-17,-4,6,-34,-2,-5,1,-10
7775,-4,-1,7,14,3,16,2,-8
7780,2,-7,-19,-31,1,-22,-3,20
7785,6,15,12,34,0,4,6,10
7790,-6,-5,11,39,16,-17,-4,-18
7795,2,1,-1,-15,-13,-3,0,18
7800,12,0,-10,5,5,9,0,-1
7805,-1,-8,-8,-1,8,15,-1,27
7810,-3,2,-1,-19,-9,-3,-3,-42
7815,-4,-1,6,38,18,23,-1,17
7820,-24,-7,18,10,-28,-25,-3,-17
7825,39,11,13,5,7,11,4,48
7830,-6,-3,4,-3,0,20,-3,-6
7835,1,-3,-13,-4,-5,11,1,-24
7840,0,2,6,-2,-9,-3,-4,-4
7845,-3,-1,-13,-1,4,-50,-2,7
7850,-2,2,16,-4,0,11,2,-11
7855,-4,-2,-5,-37,-1,2,0,-3
7860,-7,1,-11,48,-11,-34,0,19
7865,-12,-8,-1,-2,0,18,-5,-27
7870,12,2,1,-33,5,5,-2,26
7875,10,4,-16,-6,-8,9,2,-4
7880,-12,0,29,-27,24,-9,2,-20
7885,-7,-8,-20,-25,-4,38,-2,-1
7890,-4,0,-1,12,-6,-22,-6,-45
7895,4,0,44,-22,-8,-13,1,51
7900,5,-1,-25,-9,12,22,4,2
7905,-27,-4,9,24,-1,-21,-3,-22
7910,-8,-5,10,-4,-11,4,-8,-50
7915,-6,-1,-15,2,15,11,6,30
7920,20,5,-1,6,2,9,-9,-15
7925,-6,-6,-2,4,-4,0,2,15
7930,-1,-3,-4,28,7,7,2,14
7935,-6,0,2,26,2,-4,-5,-28
7940,8,0,-5,-38,8,6,6,4
7945,18,3,-12,35,-7,7,-2,50
7950,-17,-6,-9,-57,0,-24,-6,-17
7955,12,6,-6,17,3,2,8,-3
7960,8,-1,-1,0,5,-10,-1,12
7965,-2,-1,5,15,13,28,-3,-16
7970,-6,-3,-16,1,-8,-6,1,20
7975,-14,-7,-18,-37,-3,-36,-9,-47
7980,0,-1,0,6,-12,8,-2,12
7985,1,5,-3,-2,9,4,2,-5
7990,2,-2,-9,7,0,15,4,28
7995,-11,-4,1,6,-10,-13,-7,-25
8000,18,4,-5,5,-16,-5,1,15
8005,-4,-1,0,8,9,7,0,-33
8010,3,2,3,22,11,1,5,14
8015,26,4,-4,18,-14,-5,-1,19
8020,-18,-11,-27,-43,18,5,-6,-27
8025,-4,-3,22,-27,9,11,3,30
8030,12,0,2,64,0,-5,-3,-18
8035,-14,2,-1,-78,-13,-6,0,3
8040,2,0,-16,-6,-1,-2,-1,24
8045,-12,-7,-10,-5,-8,-7,-5,-18
8050,-1,3,-14,-2,24,-17,-3,-1
8055,-10,-8,20,16,-7,8,3,17
8060,8,5,13,17,-8,-16,1,-27
8065,15,2,1,-27,-7,0,-1,28
8070,4,4,3,-9,-27,-20,0,51
8075,8,-5,-1,7,15,20,1,-15
8080,11,3,-14,-37,4,9,3,12
8085,-13,-7,-17,26,16,-8,-3,-2
8090,3,3,30,-9,-24,17,-4,-23
8095,0,4,-1,25,-2,-20,-2,-5
8100,-25,-13,-1,2,-8,7,1,24
8105,-7,-6,-11,-15,4,2,-3,3
8110,50,10,3,-1,13,18,7,8
8115,-16,-4,-10,-42,-4,0,-8,-11
8120,-1,8,11,-11,0,-6,1,-5
8125,-3,1,12,43,-2,-16,3,-3
8130,-31,-6,-18,-10,-15,2,-6,-32
8135,8,-5,-5,16,-3,6,-4,21
8140,23,6,12,-13,8,-16,1,20
8145,-7,-2,11,-7,-15,-10,0,-9
8150,-5,-2,-4,2,-2,3,1,-4
8155,5,-1,-4,31,19,29,-2,-11
8160,-18,-3,13,3,-5,-12,-5,-13
8165,22,20,-5,-19,-14,-25,1,3
8170,1,-7,2,24,-7,15,6,15
8175,-13,0,-4,-3,3,-22,-3,-12
8180,5,-5,-6,11,-3,20,-2,-5
8185,0,-4,29,21,-6,4,-3,11
8190,-4,4,0,-19,7,10,0,5
8195,5,1,-21,-11,7,-6,4,4
8200,-8,-7,-1,25,-2,-1,1,-13
8205,-19,-7,-11,-27,-10,0,-3,-43
8210,-2,1,-3,5,3,13,-2,14
8215,11,1,6,5,11,6,0,6
8220,-8,-4,-5,5,3,-17,-4,-6
8225,2,-1,-12,-1,2,18,2,-25
8230,-15,-9,-10,-23,-3,-16,0,12
8235,9,11,7,18,-19,-1,2,-6
8240,-10,-1,24,11,12,11,-3,-21
8245,11,0,-3,13,20,38,2,23
8250,-14,-5,-1,-19,-12,-60,-8,-23
8255,-4,-3,7,-2,7,11,4,9
8260,-3,-2,-5,4,-29,-17,-4,-24
8265,-7,1,1,8,0,8,-2,15
8270,21,3,6,16,7,21,2,11
8275,-8,-10,-20,25,-4,-29,-7,-37
8280,-2,-2,-15,-47,-2,15,-1,5
8285,-16,-4,6,0,-21,-16,0,12
8290,15,8,14,7,2,3,0,23
8295,-7,-4,-12,-16,-12,-2,-1,-33
8300,16,-1,0,47,22,-7,2,44
8305,11,2,4,-24,-18,13,-4,-27
8310,-15,-1,1,8,9,-58,-2,0
8315,-3,-2,6,-34,-13,37,-1,16
8320,-19,-13,-7,-6,-28,-28,-7,-25
8325,0,8,-11,5,3,-12,0,-12
8330,-4,-4,-12,-55,-1,38,3,0
8335,0,4,21,18,19,-18,-6,30
8340,-3,-3,-11,15,2,-1,0,17
8345,10,-6,-1,-37,-8,-22,-4,-3
8350,-16,-3,-5,9,0,16,0,-36
8355,-7,-3,7,-26,-2,-13,-2,20
8360,5,4,3,0,16,32,3,10
8365,-8,-4,-3,43,5,-14,-2,-7
8370,-3,-1,-10,-1,-8,-21,1,-42
8375,9,-4,-8,-2,14,5,1,32
8380,-3,5,18,-7,-24,-30,-2,9
8385,-7,-10,-9,9,17,10,-4,-9
8390,-16,-4,-15,-16,-24,16,-1,6
8395,56,17,21,16,3,-17,6,19
8400,-10,1,6,-5,9,2,0,-21
8405,13,-3,-12,-33,4,2,3,17
8410,-4,-4,-3,0,14,-2,-6,-20
8415,-17,-5,-11,-48,-29,-8,-1,31
8420,-1,4,-1,18,0,-1,-6,-19
8425,-9,0,16,-6,-6,-7,-3,-27
8430,6,-2,4,21,15,15,0,34
8435,-7,-6,-18,4,2,14,-3,-46
8440,-2,0,13,-31,-14,0,-1,24
8445,-8,-2,-11,9,0,1,0,-9
8450,4,3,-3,9,-3,-48,-4,2
8455,-18,-3,7,24,4,-1,-2,-66
8460,6,-2,14,7,2,24,0,13
8465,1,-1,-14,-24,1,2,0,32
8470,1,1,3,-6,1,3,2,-2
8475,-6,-2,-6,17,-2,13,1,-4
8480,0,-2,-4,12,0,-22,-1,-32
8485,-18,-5,15,-16,-15,-9,-3,30
8490,22,5,-7,1,30,46,6,-4
8495,-5,-9,0,41,6,-59,-2,16
8500,5,12,-4,10,3,18,1,-20
8505,-5,-5,14,-16,-31,-9,-2,42
8510,4,4,3,17,16,33,-5,-21
8515,-7,-1,-3,-6,1,-26,-2,6
8520,2,-10,-8,-6,-2,-18,4,-5
8525,16,4,7,-28,4,10,2,18
8530,-3,0,3,0,-4,-8,-3,20
8535,-1,-1,-12,-18,-5,22,3,-13
8540,-21,-10,9,10,0,-17,-3,-2
8545,14,10,4,24,6,8,1,-3
8550,0,-5,-14,17,3,10,-1,1
8555,3,2,14,6,10,19,3,14
8560,6,3,-9,-18,-17,-56,-2,4
8565,-11,-5,-10,4,-11,3,-2,-14
8570,-3,-1,3,7,-4,-7,-8,-20
8575,23,1,-2,-16,10,29,3,7
8580,4,15,3,56,7,16,1,6
8585,-11,-4,9,-1,-3,-60,-2,-9
8590,7,5,1,9,-22,-9,-1,-4
8595,-39,-15,-13,3,5,23,-6,9
8600,36,1,6,-29,4,24,-2,8
8605,-6,-1,14,7,10,1,0,-17
8610,8,4,7,-33,-7,4,5,10
8615,-19,-10,-2,39,-7,-13,-3,-36
8620,4,8,11,-77,-3,13,1,41
8625,25,7,-31,15,56,18,3,7
8630,0,-9,-4,-7,-2,-29,-2,-11
8635,4,1,-1,-2,-13,62,1,1
8640,-23,-8,-7,0,-3,10,-6,-18
8645,-7,-6,-11,-37,-15,-27,-3,-25
8650,-6,0,21,23,3,-12,2,15
8655,3,3,-7,-28,10,0,-4,-7
8660,0,-3,-7,27,10,28,6,9
8665,6,-3,27,17,-9,-3,-3,-10
8670,-12,0,-15,-2,-1,4,-3,-35
8675,5,6,9,-29,-37,-28,-1,24
8680,-1,-6,-3,-14,13,6,-4,-2
8685,-6,6,-4,11,-4,-21,3,12
8690,-14,-12,-7,18,-3,-9,-3,-46
8695,14,6,-5,-37,0,7,-1,8
8700,6,-3,-5,18,16,12,-2,2
8705,-8,-2,-9,-5,-9,21,0,-15
8710,1,-1,7,11,-1,-13,-4,28
8715,-10,1,-4,13,1,-10,1,-34
8720,12,2,-27,-19,10,13,-1,19
8725,4,-3,-6,37,-4,-1,0,-9
8730,4,0,-4,-22,-15,-33,-1,11
8735,7,-2,-1,14,16,17,1,1
8740,-17,-6,-5,-20,-32,-21,-4,-11
8745,-7,1,0,3,11,21,-3,-40
8750,13,2,-13,-41,-3,4,2,43
8755,-9,2,-15,13,-4,-34,-2,-4
8760,6,1,4,30,9,6,2,-35
8765,3,-2,7,-2,-22,-16,-1,16
8770,-9,-8,-6,12,35,37,-3,6
8775,-24,-5,12,3,-12,11,-2,-36
8780,17,6,12,37,4,3,1,0
8785,6,-1,-3,-28,-6,2,1,20
8790,10,10,1,19,0,3,4,9
8795,-2,-2,8,12,16,22,1,21
8800,-8,-9,-30,-59,-29,-38,-2,-20
8805,-3,-2,-6,22,16,-18,-6,4
8810,-7,-3,-5,-35,-16,-22,0,-1
8815,13,6,-4,4,2,-12,0,10
8820,-6,-4,16,19,13,11,1,10
8825,-4,-1,-6,-19,5,8,2,-23
8830,-5,-4,1,27,-4,15,-1,7
8835,3,0,19,-37,-21,-13,-5,17
8840,-4,2,-14,9,57,-18,1,-9
8845,-1,-8,-6,0,-26,-2,-4,-15
8850,-7,10,20,16,2,6,-1,-10
8855,9,-3,-11,-15,1,6,3,7
8860,-6,0,7,25,-7,11,-3,9
8865,-16,-1,-9,-21,19,11,2,-16
8870,-2,-1,10,9,-10,-25,-1,-1
8875,17,5,-2,0,-7,-2,-1,7
8880,-9,-2,-7,11,-11,-3,1,-9
8885,-2,-1,8,-11,10,4,-3,10
8890,-3,-6,-3,-3,-4,5,2,-5
8895,-18,-2,26,14,-13,-19,-6,-50
8900,5,-5,-9,10,7,9,3,49
8905,8,1,-9,-3,-19,8,-2,34
8910,0,1,8,-22,1,-9,-3,-11
8915,1,1,-1,21,8,-16,-3,-4
8920,-22,-8,-12,-45,-16,1,-4,-30
8925,-1,1,-22,-15,6,-10,-3,16
8930,28,3,0,29,11,22,4,20
8935,-6,-1,-15,-33,6,-2,0,-8
8940,-4,3,4,11,-18,-3,-1,-19
8945,-5,-1,-1,-6,3,-4,-3,10
8950,-1,0,3,-14,2,23,1,-7
8955,14,1,-8,14,21,-4,1,17
8960,1,-5,6,-13,-2,17,2,-6
8965,-4,1,24,32,-6,3,-1,-6
8970,-2,-5,-10,12,-2,-23,-3,-60
8975,20,5,7,13,-5,4,2,58
8980,3,-3,-8,-15,-19,-5,-7,19
8985,-4,2,2,-7,2,13,3,-15
8990,-15,-5,-1,-2,-6,0,-2,-33
8995,0,2,-30,32,3,-11,4,18
9000,4,5,15,-5,-1,7,1,-10
9005,13,0,1,4,6,-2,3,-5
9010,-11,-4,7,-23,-20,-7,-3,16
9015,3,5,-9,-17,10,41,-2,-5
9020,-11,-6,-4,18,-2,-24,-1,0
9025,24,6,3,17,9,12,0,6
9030,8,1,-5,-19,1,-25,0,29
9035,-16,-10,3,16,-8,6,-5,-23
9040,-5,3,1,-12,1,3,2,-3
9045,17,4,5,-19,-11,-11,-2,-14
9050,-21,-5,18,30,29,39,-2,44
9055,20,0,4,-37,-15,-50,-2,28
9060,-9,-3,-13,34,-16,-18,-3,-61
9065,3,1,4,-30,2,24,-1,45
9070,3,2,-13,12,7,3,1,-12
9075,-19,-6,13,0,-13,-6,-7,-20
9080,-4,-8,2,46,21,-1,-3,-2
9085,-13,9,17,3,-15,-7,1,-10
9090,-8,-4,-8,-11,-10,-5,-4,-20
9095,10,1,-9,-4,1,9,0,23
9100,-4,-4,-7,-36,-3,-25,-3,0
9105,-21,-8,-6,21,-1,1,-2,-28
9110,16,2,-8,-14,-12,-7,1,28
9115,-9,3,16,-5,1,9,3,-67
9120,11,-3,3,1,39,20,2,48
9125,1,3,13,11,-31,9,1,16
9130,3,1,-25,-5,5,19,0,-4
9135,-3,-4,12,-4,-10,-20,-1,-14
9140,2,2,2,-31,-8,12,-1,-16
9145,13,-1,-10,34,21,-12,0,26
9150,-2,-1,10,-29,-16,-32,-6,-6
9155,-16,-9,-4,35,15,15,2,-5
9160,8,11,-8,-23,-18,-8,-1,1
9165,-3,-4,-11,6,11,7,3,0
9170,-5,2,15,-2,-5,9,-1,-10
9175,-1,-4,-10,-27,2,-11,-2,9
9180,-7,-1,2,8,0,21,3,9
9185,-3,-4,6,-29,-16,-16,-3,-21
9190,-13,-2,4,21,0,-12,-1,-28
9195,10,1,-3,1,6,6,1,8
9200,15,4,8,5,-1,13,1,43
9205,-7,-1,-7,-24,-1,-35,-7,-15
9210,-5,-3,-3,-12,6,8,2,-4
9215,-4,-1,18,25,-4,8,-6,-11
9220,13,3,-11,-13,0,-13,0,-8
9225,-10,-7,-3,17,-3,7,0,11
9230,8,2,1,12,-4,-16,4,14
9235,-1,0,-4,2,-2,-11,-3,10
9240,4,0,24,-22,0,9,2,10
9245,4,2,-1,14,5,-21,2,-6
9250,1,-7,-8,-12,3,11,-1,0
9255,5,4,6,15,-3,8,1,10
9260,-14,-4,0,11,2,5,-5,-6
9265,-17,-5,1,-12,1,6,0,-16
9270,21,6,10,8,-19,-27,-4,8
9275,-5,1,1,21,7,-5,3,27
9280,-13,0,-7,33,1,-6,-3,-12
9285,15,5,-1,-15,20,4,7,30
9290,-8,-5,-8,16,1,12,-8,-33
9295,-13,-5,-2,-5,-1,0,-3,3
9300,-22,-10,3,-8,-13,-6,-1,-53
9305,16,6,-23,-26,-14,-12,-5,31
9310,-2,3,4,12,11,27,2,29
9315,0,-1,12,-9,-2,12,2,-15
9320,-2,-4,-17,-7,-13,-24,-5,2
9325,-6,-2,-5,-2,-14,21,2,-33
9330,19,0,-8,-18,-5,4,2,37
9335,0,0,-8,-48,6,1,-1,-16
9340,-1,2,-6,8,-18,-3,-1,3
9345,-11,-5,-5,68,28,10,-7,3
9350,-11,-1,-2,-16,1,-3,2,-17
9355,22,1,4,-11,1,10,-1,11
9360,5,3,30,-4,8,-4,-2,0
9365,-6,-4,-9,-24,-10,-4,-4,-24
9370,-10,-5,5,5,17,9,-1,-11
9375,-27,-1,-15,-2,-19,-10,-3,-3
9380,15,-4,10,-9,-9,-42,0,28
9385,6,10,5,11,-5,29,0,-20
9390,-9,-4,6,11,19,29,1,10
9395,-13,-2,-3,-3,-4,-5,-1,-37
9400,-4,-3,-11,-30,-20,-10,-2,17
9405,-2,-7,4,18,6,-2,0,22
9410,3,5,-5,-5,-9,-19,0,-18
9415,-12,-4,-7,-81,-7,13,-7,-6
9420,1,6,-20,33,28,32,6,-28
9425,0,-7,6,2,13,-19,1,-7
9430,-4,-3,-4,6,-3,7,-4,26
9435,16,3,-10,20,-10,-41,5,2
9440,3,0,4,-18,12,9,-2,4
9445,-8,-2,-4,-28,-30,2,0,-25
9450,-6,-3,-5,6,-17,-41,-4,-6
9455,0,-3,6,23,22,29,1,12
9460,-4,5,-6,-4,-28,-37,-7,-17
9465,-4,-9,-7,9,-3,-5,-2,17
9470,12,10,14,-3,3,9,3,-1
9475,14,1,-6,15,0,-12,1,18
9480,4,-2,-6,-4,14,28,1,19
9485,-9,1,3,-5,1,2,-2,-9
9490,-7,-7,-4,-9,-8,5,-4,-3
9495,-8,-1,1,-24,-12,-4,-2,-27
9500,-8,-3,6,76,29,18,-4,10
9505,26,-2,10,-17,-14,-34,-1,40
9510,9,10,-12,-8,5,37,5,7
9515,6,-2,-7,4,4,-2,3,-2
9520,-8,-5,4,-32,-4,20,-2,-11
9525,-15,-6,-3,4,-9,-25,-6,-19
9530,-4,-1,2,10,-3,0,-2,-16
9535,2,-1,2,10,6,8,0,9
9540,-9,1,5,-63,-31,2,-7,-12
9545,19,5,-6,59,35,54,15,26
9550,-1,-9,-10,-17,-4,-32,-5,-15
9555,-1,1,1,23,-15,-9,-7,10
9560,3,-1,-16,-37,15,8,1,4
9565,-11,3,6,-19,7,7,-2,-27
9570,-11,-8,-1,-8,-15,-31,-5,-8
9575,-14,-11,-2,4,12,0,-2,12
9580,11,16,-1,-2,-28,11,0,-19
9585,-18,-1,-20,-13,8,-26,-9,23
9590,15,2,-3,17,-7,-34,4,39
9595,18,2,4,4,11,28,4,-38
9600,10,-4,-1,11,7,-20,0,25
9605,-13,-1,1,-35,-10,11,-4,-27
9610,-15,-3,-2,13,6,13,-1,-22
9615,6,3,-2,18,6,-4,-1,34
9620,-2,-1,11,-6,1,-23,0,-6
9625,-5,0,0,-6,-11,10,-3,-16
9630,8,0,8,1,13,2,0,12
9635,-7,-6,-1,3,-8,-10,2,-14
9640,1,2,-10,2,0,1,0,-2
9645,4,0,7,4,-2,-10,0,1
9650,-2,-1,1,-3,3,15,0,-6
9655,-7,-2,-3,-6,2,12,-1,2
9660,1,-2,5,17,15,-17,3,8
9665,1,3,18,-13,-16,14,-6,-8
9670,2,-2,3,-4,-4,-20,0,-1
9675,1,0,-7,-12,10,10,-1,4
9680,-6,-3,-2,31,-16,-6,0,-5
9685,7,-2,2,2,10,25,1,-1
9690,-13,6,0,-77,-14,1,-4,-18
9695,20,6,5,34,5,-8,4,44
9700,4,-1,-31,37,8,23,0,-8
9705,-10,-10,26,14,32,-12,1,-31
9710,-11,-5,-6,-7,12,32,-3,21
9715,14,5,12,-11,-21,-89,-7,16
9720,-19,-6,-5,5,-24,1,-2,-30
9725,4,0,-6,33,-6,46,3,19
9730,0,4,-17,-25,-5,-22,-4,-32
9735,-12,2,-9,16,28,21,2,-4
9740,1,-3,0,-15,-4,-5,3,-18
9745,-7,-4,-21,-41,-14,0,-3,1
9750,11,0,4,34,-11,13,9,-13
9755,26,-1,-12,-2,14,5,-5,38
9760,-5,0,9,-6,-5,6,-1,-16
9765,18,2,-28,-33,-5,-34,-5,30
9770,-7,-3,3,17,-4,22,6,10
9775,-11,4,2,-12,14,-13,0,-54
9780,-7,-12,-2,11,-15,-15,-7,38
9785,-5,3,15,-33,-8,3,-3,-8
9790,15,4,7,41,5,3,0,6
9795,-15,-4,16,-15,-10,23,-3,1
9800,4,-2,2,1,23,6,4,-9
9805,-7,5,27,50,-4,-11,0,-32
9810,4,-7,-18,-22,0,-4,-5,47
9815,-21,0,-17,9,-7,12,1,-25
9820,5,6,8,-8,17,-4,0,-14
9825,13,1,-4,5,-2,-7,1,17
9830,-11,-4,-15,39,17,-5,-3,-40
9835,-4,-6,-1,-29,4,39,-4,1
9840,-10,3,2,-6,-51,1,-1,14
9845,1,-1,-9,21,17,-17,0,-9
9850,-19,-4,27,-30,-5,1,-3,-22
9855,18,1,6,13,-7,-17,5,58
9860,8,-2,-1,-11,24,12,2,-16
9865,0,3,-6,1,-8,6,5,3
9870,4,3,19,-2,2,6,-5,-7
9875,-16,-9,12,15,-12,-42,-4,-2
9880,6,-1,-5,10,1,-17,1,13
9885,34,4,-5,-16,17,-7,2,26
9890,-5,-3,-14,-31,5,-27,-2,-29
9895,-2,2,-2,-13,7,9,-4,7
9900,-1,0,7,19,-17,-7,-1,7
9905,-18,-7,-9,11,-9,4,-2,-3
9910,12,2,-1,-11,-2,11,0,15
9915,-16,-2,2,5,-6,5,4,-54
9920,8,-3,9,-25,15,0,0,40
9925,0,1,-8,14,-8,12,-1,-20
9930,2,3,15,17,-4,3,0,21
9935,-9,-3,8,13,-6,1,-5,-26
9940,-3,-3,-10,-8,6,2,4,-19
9945,-5,-3,-1,-19,-8,-10,-3,8
9950,-8,-4,-8,12,-1,-10,-3,3
9955,2,3,-7,-18,-6,22,2,-1
9960,9,5,-9,9,-1,-41,-3,7
9965,-5,-3,2,-18,4,-5,0,-33
9970,-3,0,2,-7,-22,-4,0,21
9975,11,-3,-16,-24,-17,-1,0,-4
9980,-3,8,-2,3,34,46,1,1
9985,-11,-3,3,-33,-38,-72,-7,9
9990,9,-2,-1,13,20,7,-1,3
9995,-8,-2,-1,18,-5,-15,-2,-11
10000,-4,-9,15,-3,-4,-7,-4,-3
10005,-5,3,-13,-5,16,-7,-4,-25
10010,8,1,-3,-4,-4,28,3,30
10015,-2,-1,4,3,-1,-22,-1,-12
10020,-19,-4,6,-22,-9,28,-1,8
10025,3,-3,-22,11,6,-20,3,9
10030,9,1,-5,-13,-15,-56,-6,-14
10035,-2,1,-7,-23,-7,23,-1,-20
10040,-2,-5,-4,29,-2,-4,-2,14
10045,-2,-10,-13,-7,11,31,1,-10
10050,-1,5,-3,-1,-5,-9,4,16
10055,-2,4,9,-3,-39,-42,-4,-23
10060,-4,0,-1,-5,7,-11,1,-18
10065,20,9,16,-4,18,27,-4,37
10070,-4,-5,-2,24,4,-23,-2,-21
10075,-21,-7,-4,-16,8,28,0,9
10080,-5,-2,-9,-29,-16,-3,-2,-15
10085,24,12,9,50,6,17,4,14
10090,-16,-2,4,10,8,31,0,-1
10095,5,-5,-11,9,10,-7,0,9
10100,-10,-10,-19,-43,-4,-16,-7,-42
10105,-13,-7,17,15,-1,20,0,16
10110,5,9,7,35,-13,1,-4,-4
10115,2,-1,15,-11,8,10,0,21
10120,-1,-2,-2,10,7,17,3,16
10125,-7,-2,0,-20,-1,0,-5,-44
10130,20,4,6,2,-19,-45,0,22
10135,-1,-1,-8,12,-5,-2,-4,-11
10140,0,5,16,4,8,33,6,9
10145,-14,-7,0,-19,-7,-19,-1,2
10150,13,-2,6,-50,-11,-1,0,9
10155,6,5,-1,51,13,8,0,17
10160,16,8,-7,-5,8,-17,-1,-8
10165,-23,-7,3,-8,-8,2,-2,-10
10170,-12,-4,-2,2,0,9,-5,-30
10175,0,-5,-11,-11,-8,-24,2,2
10180,-4,-4,-7,12,8,7,-7,16
10185,-11,4,32,17,24,29,3,0
10190,7,-10,-15,-10,-22,-69,-5,4
10195,-5,8,-13,-26,-9,11,-2,7
10200,-5,-3,16,44,2,-9,-4,-12
10205,4,-3,-22,-44,9,17,4,10
10210,-9,-7,-13,-9,0,-13,-5,9
10215,-8,-1,1,12,15,-3,1,-17
10220,18,7,21,-19,-25,-12,1,6
10225,-8,-6,-18,3,5,7,3,-7
10230,-1,1,1,8,11,31,0,2
10235,1,0,-4,-10,-1,7,3,-6
10240,11,-1,13,-3,7,-5,0,20
10245,-6,-2,-9,13,-10,-21,-6,-17
10250,-22,-1,10,-10,4,44,2,-46
10255,13,-1,4,-8,20,-10,-4,29
10260,-9,-4,-6,-28,-10,8,0,11
10265,0,1,-2,-7,-7,-22,-5,-8
10270,-1,-1,0,-29,6,3,2,-7
10275,-2,4,-5,13,-7,-1,-2,3
10280,15,2,-4,3,16,5,1,8
10285,16,8,3,18,-7,1,3,9
10290,-16,-7,27,19,15,0,-4,0
10295,-3,-4,-13,-17,-5,-1,0,-24
10300,-10,-3,-19,23,-4,-13,-6,-2
10305,-4,-1,-7,-11,-5,-5,-2,16
10310,14,5,-3,-3,5,17,1,13
10315,-4,-7,2,0,-8,1,0,-3
10320,-7,-1,-1,9,-6,-23,-2,-12
10325,1,-3,-14,1,-15,11,-2,-1
10330,-7,-2,-10,-1,8,-34,-3,-10
10335,1,0,-6,-12,-25,-12,-4,-7
10340,-5,-4,-9,-9,2,15,-1,31
10345,8,9,-5,-18,-13,-20,-1,-16
10350,4,3,-5,-14,23,15,6,-12
10355,-12,-4,-3,18,3,17,-2,20
10360,11,3,26,42,2,-5,3,-21
10365,-9,-4,6,45,2,15,-5,19
10370,-8,-4,-20,-11,-5,-39,-4,-27
10375,10,2,-9,-44,-17,10,0,-4
10380,-1,-1,-12,-20,8,-3,0,7
10385,-3,0,6,16,3,-24,0,10
10390,-4,-1,5,8,-6,31,0,-11
10395,4,-3,4,1,3,-3,1,19
10400,-15,0,19,10,20,21,2,-11
10405,20,2,-4,-15,-31,-57,-5,-3
10410,-15,-6,-11,-15,-3,23,3,-4
10415,4,-4,12,25,2,-14,-2,23
10420,8,8,-1,-4,-4,9,1,8
10425,-23,-8,23,6,4,22,-1,-15
10430,-9,-1,26,-5,-15,-19,-6,5
10435,5,-6,-19,29,24,23,0,-19
10440,2,-4,-5,2,-19,-21,-7,-16
10445,2,-1,5,-7,6,11,-1,45
10450,2,3,-8,7,-12,5,0,30
10455,-9,-2,2,-4,1,4,-4,-35
10460,-10,-5,-3,5,-1,-13,-2,-2
10465,11,1,-1,-12,-4,-2,1,-22
10470,-1,0,-3,0,-1,7,1,23
10475,-7,1,12,-4,-5,3,-1,-17
10480,10,-2,3,-1,-6,12,3,23
10485,8,8,-10,13,8,-7,4,4
10490,8,0,11,12,-12,10,-1,25
10495,-2,3,25,-10,-12,-22,-3,-56
10500,-9,-8,-20,-6,24,41,1,15
10505,-13,-5,-2,-22,-43,-29,1,0
10510,4,-1,4,82,38,27,-3,-6
10515,7,2,4,-12,-11,-8,-2,2
10520,-5,-1,-18,-31,-10,-2,0,1
10525,3,-1,18,-17,20,8,0,-5
10530,-4,1,-34,-21,-7,-2,-1,-14
10535,-14,-2,12,20,12,-10,-3,7
10540,5,1,5,-22,3,-13,-2,-7
10545,-8,0,-25,16,-10,3,0,-9
10550,16,3,14,-43,-8,-9,-2,34
10555,2,-2,-26,6,18,-5,3,4
10560,-6,-1,12,26,-24,-9,-3,-30
10565,-28,-16,-20,-32,-5,43,-2,4
10570,30,10,-8,2,-10,-29,0,11
10575,5,-1,-4,-3,13,5,-1,14
10580,-4,-1,-1,-35,-19,-8,-4,-5
10585,-1,0,5,33,24,31,3,-13
10590,-12,-7,1,41,-7,-17,-4,-15
10595,1,-1,-6,-10,-3,-14,-3,8
10600,1,2,2,-23,-5,-5,0,-12
10605,19,1,-1,-17,23,5,-1,11
10610,-1,3,4,-14,4,25,3,2
10615,0,-2,-16,17,-7,-6,0,-6
10620,-16,-5,14,-2,14,1,-4,-45
10625,-5,-6,-5,12,-6,5,1,8
10630,21,13,-1,11,22,-17,5,59
10635,0,-1,6,-14,-13,12,-6,3
10640,-3,-2,-16,-37,-7,-17,-2,-5
10645,-2,-3,1,57,11,4,0,-12
10650,7,-5,-7,22,13,27,5,0
10655,1,3,15,-20,-13,-24,-3,1
10660,2,3,-3,22,-3,16,0,8
10665,-3,-4,-8,-33,-9,-26,-1,13
10670,-7,-1,30,-10,-4,-4,-6,-9
10675,-2,-1,-24,5,4,-11,3,14
10680,3,-3,-4,13,-2,-2,-2,4
10685,0,-6,1,-11,-3,-5,-2,5
10690,-16,8,9,-21,-10,-1,-1,-106
10695,-4,-3,3,3,3,6,0,93
10700,18,-1,-2,5,3,9,1,28
10705,-2,4,8,14,-18,0,-6,-21
10710,-16,-12,16,-20,-20,-23,-4,-11
10715,-2,1,-1,28,11,3,2,-41
10720,6,0,-7,13,5,-1,1,18
10725,32,7,4,-17,1,-14,-2,18
10730,-18,-7,-10,37,14,43,-3,-20
10735,5,1,31,-40,-27,-65,-5,-24
10740,8,0,-18,35,3,-4,6,-2
10745,-13,1,4,-20,-4,-3,-2,-13
10750,0,-6,-20,-1,8,-8,-2,14
10755,4,3,-4,22,7,45,3,16
10760,-15,-3,14,-27,-15,-67,-8,-44
10765,14,-1,-13,34,6,0,5,31
10770,3,3,-16,-18,9,-9,2,7
10775,-4,-2,-7,15,-3,27,4,-17
10780,-11,6,23,3,-8,-12,-5,-5
10785,-5,-5,-1,-35,12,31,-1,-12
10790,-3,-3,3,25,-2,-6,0,12
10795,10,0,-3,-4,3,1,1,-5
10800,-1,0,-7,8,-3,1,-2,-12
10805,3,1,8,-26,-5,-8,-3,5
10810,-4,-6,-12,-18,1,10,0,5
10815,12,6,-2,22,1,-6,0,1
10820,9,4,-8,-4,-1,8,0,21
10825,-11,-7,2,19,18,1,-4,-12
10830,2,1,5,-23,-4,2,-6,-25
10835,-14,-2,-3,6,6,2,0,-9
10840,9,-2,0,-16,0,26,4,35
10845,9,2,8,57,0,-26,0,13
10850,0,-2,-25,-46,-22,12,-1,6
10855,-13,0,24,-20,12,30,0,-20
10860,-2,-2,12,50,-3,-28,-6,-21
10865,-9,0,-5,-15,13,19,3,-9
10870,5,2,17,-13,-22,-17,0,20
10875,3,-4,-16,-26,-5,-17,-2,16
10880,-3,0,-3,12,3,-10,2,-2
10885,-1,4,4,28,-17,-8,-6,-9
10890,-9,-2,-19,1,0,2,-1,-6
10895,-14,-6,10,-6,-2,-15,-1,-11
10900,18,-1,10,20,18,15,-1,23
10905,6,4,-10,-30,-9,-4,1,-16
10910,-2,1,-7,22,2,-2,0,-13
10915,-4,1,13,13,5,14,-2,1
10920,-10,-5,-22,-18,-14,-18,-5,-5
10925,-5,1,12,8,4,5,5,-18
10930,16,6,19,-1,-16,10,0,33
10935,12,1,-6,-13,-1,-10,1,-24
10940,5,-4,-13,-3,8,22,-2,43
10945,-21,-6,10,-19,-10,-1,-4,-35
10950,6,-1,-4,28,8,-2,-1,29
10955,21,7,11,-39,-16,-6,0,-4
10960,7,3,-14,24,50,18,6,0
10965,-1,-2,-5,-10,-14,10,-2,-9
10970,-14,-9,-5,8,9,-22,-7,-23
10975,-9,-2,-17,-19,-14,3,0,23
10980,-10,2,24,-62,-9,14,0,-27
10985,0,-4,-22,-22,27,-10,-4,3
10990,10,3,1,6,3,3,5,14
10995,-2,1,-5,1,13,11,-2,21
11000,-3,-1,16,33,-10,6,0,-15
11005,-9,-3,-23,-32,-4,-35,-6,-23
11010,-6,-6,1,4,-11,3,0,14
11015,0,-7,3,9,14,-1,0,16
11020,-4,8,-7,-5,-7,12,0,-37
11025,26,8,-2,13,3,8,2,53
11030,-5,-3,-3,-9,2,-10,-5,-64
11035,-17,-7,4,8,-2,-6,-4,-13
11040,-4,-5,1,-20,-10,-6,-2,40
11045,-5,1,7,50,-1,5,2,0
11050,5,2,-7,-33,-4,26,0,-5
11055,-3,-2,-10,7,-1,-4,-5,-6
11060,1,2,-20,-3,14,-9,-4,-24
11065,2,3,23,-48,-13,6,2,-2
11070,-9,-8,-5,11,21,-4,2,0
11075,-1,-2,-5,19,-10,24,3,3
11080,0,1,-12,9,-2,-39,-10,3
11085,-7,-6,17,26,-2,-10,-1,14
11090,0,3,-11,12,-16,13,0,5
11095,13,1,13,17,4,-30,-4,7
11100,-10,-4,-2,-58,-8,8,3,-21
11105,-14,-2,-7,31,6,3,-6,2
11110,4,-3,6,2,-16,-4,-2,-15
11115,12,9,9,17,15,7,4,27
11120,-8,-4,-1,4,-24,-2,2,-2
11125,1,-2,-14,-13,18,9,2,-19
11130,-4,-5,-15,-10,14,4,1,-3
11135,4,2,-4,-18,-35,-35,-2,-13
11140,-4,0,-1,29,19,44,3,22
11145,4,-3,2,0,-29,2,-5,6
11150,5,-1,-6,-5,2,-2,-1,-2
11155,-5,-3,18,-11,19,-5,1,-6
11160,-2,5,1,18,-5,-1,0,-14
11165,4,-2,-2,-15,-3,-5,-4,4
11170,-13,-6,-14,-44,0,-8,-3,1
11175,-12,-3,2,21,-9,7,-2,-11
11180,20,3,-3,-9,13,29,3,9
11185,5,1,7,10,-5,-27,-1,12
11190,-10,0,15,12,4,-10,-5,-34
11195,14,-4,-28,-37,-11,5,-1,46
11200,-13,-4,9,-9,-6,-2,1,-20
11205,0,0,-16,17,12,3,1,1
11210,5,3,2,-15,-33,-40,0,5
11215,-22,-4,-12,12,2,5,0,-8
11220,15,-1,9,24,-6,-18,-5,2
11225,10,2,-10,-41,-7,-2,-2,-16
11230,-5,-2,1,29,14,14,1,33
11235,-1,3,-9,-74,5,-6,-4,-25
11240,-12,-5,0,-1,3,15,0,29
11245,15,1,-5,21,0,-26,5,-24
11250,-5,-5,21,4,7,6,-4,28
11255,13,3,-9,22,-2,9,3,4
11260,-4,0,7,-11,6,-4,0,-13
11265,-18,-5,-2,-10,7,51,0,-1
11270,-8,2,-5,-31,-1,-10,-3,-30
11275,-4,-5,6,41,-21,-11,-1,14
11280,4,4,-4,-8,4,-2,-4,-5
11285,2,4,16,19,-21,-22,3,30
11290,2,-2,-10,-11,3,19,-2,-14
11295,-17,-7,6,7,-2,-16,-6,-4
11300,8,1,-13,20,3,2,4,-33
11305,-12,-8,-5,15,-7,-4,0,40
11310,28,6,4,3,6,13,1,3
11315,2,-1,-10,-33,4,0,-3,-2
11320,-19,-7,-13,-14,-24,-28,-9,0
11325,-11,1,7,2,19,10,4,-24
11330,-11,-3,-8,-12,-23,-43,-2,10
11335,17,-1,-3,14,15,36,2,5
11340,9,7,23,17,10,-13,-1,6
11345,-3,-5,-18,-42,-21,8,-1,12
11350,-4,-3,-2,22,28,-1,0,-7
11355,6,1,0,10,-10,-4,-8,-23
11360,-15,-16,-23,19,10,13,-4,24
11365,7,2,-2,5,7,-15,-3,-11
11370,9,6,15,2,-4,14,5,-6
11375,-21,-5,-25,-13,0,4,2,-1
11380,5,0,0,-1,2,-12,0,11
11385,4,-1,13,-7,-13,4,-7,-1
11390,-8,1,-14,1,3,-7,1,-12
11395,6,4,18,30,17,8,2,-5
11400,5,0,-7,-10,-5,9,5,8
11405,-3,-7,2,-15,15,-15,-5,0
11410,-1,2,7,-11,-20,-4,-7,-8
11415,-15,0,0,1,0,0,2,-13
11420,11,-2,14,-7,-10,8,0,5
11425,12,5,-10,15,21,34,-3,-13
11430,2,-3,-7,32,-5,-36,-3,19
11435,-7,-6,0,-9,7,-1,-1,1
11440,1,-2,-6,-2,-12,-3,-1,-4
11445,-10,0,2,-11,-7,-3,-1,-19
11450,-19,-2,16,18,1,23,2,28
11455,30,6,-9,-16,-5,-12,-1,7
11460,3,3,9,-6,1,-13,1,21
11465,-13,-5,0,9,-3,-6,0,-4
11470,8,0,14,31,17,21,0,-8
11475,-10,-5,4,-9,-32,-21,-5,-25
11480,2,-2,6,-10,14,3,1,0
11485,-4,3,8,17,4,-24,-3,-3
11490,-3,-4,-12,-11,-18,3,2,17
11495,-2,-1,4,5,11,13,-3,-9
11500,-8,-3,-1,-44,5,6,-4,-20
11505,-1,1,-5,30,3,6,6,3
11510,8,-4,-8,-3,1,-39,-3,25
11515,1,4,-9,-11,-8,-1,1,-11
11520,-12,-1,6,13,-8,8,-3,-3
11525,12,3,10,-3,4,-17,-1,9
11530,-2,-1,-2,8,6,19,-2,-33
11535,-15,-6,-22,-38,4,0,1,-8
11540,7,-2,1,26,2,-6,-2,4
11545,15,6,-1,13,-6,11,-1,11
11550,-12,-6,3,-25,-5,4,-3,-30
11555,10,10,6,-2,0,-8,1,21
11560,-15,-7,-22,-26,-21,-4,-4,-18
11565,-15,-6,0,5,7,11,0,-6
11570,8,-6,-3,11,-18,-5,-7,11
11575,-17,-2,0,-6,19,22,1,-17
11580,12,4,-8,-20,-6,-3,-1,8
11585,-4,-6,-2,-21,-17,3,-3,-1
11590,1,3,-19,-43,6,22,6,5
11595,-17,-7,28,46,-1,-33,-9,-29
11600,2,1,-8,16,5,-43,-3,-20
11605,-2,-5,-21,-22,4,15,3,16
11610,17,6,18,-3,-6,6,2,23
11615,0,-6,1,26,-6,8,0,-4
11620,-3,11,19,25,-2,3,0,-18
11625,-11,-1,9,5,5,-12,-5,-14
11630,-8,-2,-9,-17,-7,-11,-1,-7
11635,3,-2,7,12,-3,3,1,30
11640,-8,-3,-3,6,7,7,-3,-2
11645,3,1,-3,-20,-22,23,-2,-9
11650,8,0,-12,32,9,-55,0,15
11655,10,1,24,-15,0,-1,-6,8
11660,-11,-8,-8,-13,-8,7,0,-9
11665,-6,2,-2,-14,0,-2,-4,-17
11670,-8,0,17,-26,1,10,-3,-24
11675,-5,-1,-37,13,-4,15,6,37
11680,34,11,0,-54,6,-52,0,19
11685,5,-3,2,10,3,-16,2,-6
11690,3,-2,-1,-5,8,35,-3,-10
11695,-15,-2,0,-5,-11,-25,-2,-10
11700,-14,-3,-3,-15,-12,27,-1,-15
11705,-5,1,-6,0,-2,-10,2,-11
11710,-10,-3,0,11,8,2,-1,2
11715,9,7,12,-27,17,38,5,17
11720,20,-3,-13,25,-4,6,4,10
11725,1,-4,1,-28,-25,-49,-12,-11
11730,0,4,1,45,2,11,2,14
11735,3,-5,-9,-18,3,-2,-2,-8
11740,-12,4,33,-6,-20,0,1,-24
11745,8,2,-8,21,18,11,3,43
11750,-20,-11,-17,-65,-18,-1,-4,-69
11755,43,13,-8,59,16,21,9,90
11760,-10,-8,-12,-8,10,-7,-6,-6
11765,0,1,9,22,-9,16,-1,-15
11770,-8,1,9,4,-7,-9,-1,-12
11775,-8,-2,1,-44,-3,15,0,-17
11780,-4,0,16,55,17,-9,-5,10
11785,-7,-6,-16,0,13,33,4,15
11790,2,3,8,1,-8,2,-1,0
11795,-3,-5,-12,-12,-27,-20,-10,-19
11800,-4,-3,-20,-3,2,-19,4,12
11805,9,4,8,-11,-1,-4,-3,-3
11810,-7,-4,-14,15,13,6,2,-4
11815,3,1,7,1,5,-6,-2,1
11820,-8,-3,8,6,-10,-1,-1,44
11825,4,-7,3,12,-10,6,-2,-10
11830,3,6,0,9,10,3,-4,2
11835,-3,1,4,15,5,-20,1,-14
11840,-14,-4,4,4,-26,-5,-6,-11
11845,-9,-4,-10,-34,-2,0,-2,-8
11850,1,-5,-11,18,41,-6,-1,19
11855,-10,-8,-5,-2,-41,-22,-1,-26
11860,-3,-8,-4,-5,22,35,-1,0
11865,7,10,1,-14,-14,-35,2,-3
11870,6,6,4,-7,-12,-1,0,49
11875,1,-3,-8,11,24,18,-1,-51
11880,-1,0,0,-24,-20,-9,-3,42
11885,4,-4,-6,-13,-4,4,2,17
11890,-12,-1,-2,5,10,-5,0,0
11895,12,3,2,-7,3,-19,-3,4
11900,12,1,-8,-3,-10,22,2,-5
11905,-17,1,16,16,24,-11,-1,-32
11910,26,5,0,-1,-4,27,4,35
11915,-7,-4,-15,-16,11,17,-2,-8
11920,1,-7,4,-16,-3,-2,2,-8
11925,15,14,-5,37,-2,13,3,24
11930,-4,-10,10,10,24,25,1,-31
11935,-5,-7,-19,-4,-12,-39,-5,19
11940,-4,2,-3,12,10,9,-1,-41
11945,6,-2,0,-20,-8,-6,-2,42
11950,-1,2,5,19,-18,-7,0,-14
11955,-3,3,11,-40,5,19,-4,-9
11960,-16,-4,-17,28,19,-4,-4,-23
11965,-6,-7,-9,-8,-12,-9,0,-44
11970,11,-3,-11,-24,-12,0,-2,57
11975,11,8,12,25,4,1,6,9
11980,1,-2,16,-24,-3,-8,-1,0
11985,-21,1,8,-19,0,10,-4,-34
11990,-11,-6,-5,54,38,4,-1,-40
11995,-1,-2,-12,-8,-21,-11,-6,33
12000,-1,-3,-10,-12,-11,-8,-1,3
12005,5,-3,7,9,9,-7,-1,4
12010,-6,0,16,0,-6,-12,-5,-10
12015,-15,-8,-23,-2,17,13,2,-11
12020,5,4,2,12,-5,-3,1,-10
12025,3,-2,-9,-31,-6,3,1,20
12030,25,6,-4,-1,-9,-17,2,33
12035,-2,4,19,16,6,1,-1,-26
12040,3,1,3,6,-5,16,2,19
12045,-11,-2,5,0,-5,-10,-6,-25
12050,-17,-10,-20,-21,-25,-14,-4,-17
12055,0,-2,19,-19,-10,-8,1,16
12060,21,9,-2,4,7,8,1,9
12065,0,-2,-8,4,7,-2,-1,21
12070,1,1,14,-11,-14,5,-4,-22
12075,-11,-10,-14,4,11,-21,-1,-3
12080,-19,-2,0,16,-1,1,1,-43
12085,21,2,-20,-28,8,10,0,38
12090,10,5,-2,3,-12,-7,-2,8
12095,-14,-8,3,-12,6,11,-2,-22
12100,10,0,2,7,15,23,0,-3
12105,-8,-6,3,11,-4,-23,-6,-2
12110,-10,0,-2,-19,-12,-3,1,-43
12115,-4,0,-5,21,8,7,-2,23
12120,1,5,29,-11,-3,7,2,25
12125,-2,-6,4,40,15,4,1,-13
12130,7,-1,-12,-12,-10,-17,0,10
12135,-8,5,7,14,1,13,-2,-25
12140,-9,-9,-16,1,10,-10,0,13
12145,-2,0,2,-11,-14,-1,-4,-20
12150,-14,-3,28,-4,1,-6,-2,-17
12155,9,4,3,40,9,13,2,5
12160,-2,-3,-31,-8,6,-17,-3,1
12165,19,1,0,6,-4,-18,1,18
12170,-17,-6,-16,-6,-10,0,1,8
12175,-9,-9,9,3,1,7,-1,-26
12180,20,17,9,-5,-7,-5,-3,23
12185,-18,-12,6,4,-13,16,-5,-25
12190,2,5,2,11,-8,2,3,8
12195,3,-6,-16,-33,10,-37,-4,14
12200,-5,-6,9,3,-24,-22,-7,-19
12205,-2,3,4,6,8,14,1,11
12210,11,3,-10,23,16,8,2,11
12215,2,1,15,-6,-7,-9,-2,2
12220,-32,-10,-24,-40,-15,-2,-1,-67
12225,46,12,-3,14,8,3,3,53
12230,9,-3,6,-2,16,14,0,9
12235,-6,-1,-2,9,-18,-20,0,-19
12240,8,1,3,-3,8,15,-2,20
12245,-18,-5,5,0,-18,-36,-2,-23
12250,-11,-8,-16,-52,4,3,-1,-16
12255,18,11,-12,-20,4,10,0,31
12260,-5,1,14,6,-19,11,1,-25
12265,-6,-4,5,48,25,-6,-1,28
12270,-9,-4,-14,-6,-5,-21,-5,-40
12275,-4,-2,18,-27,-15,-13,-4,34
12280,16,-5,-20,7,-1,13,7,30
12285,-12,2,-5,-30,-7,17,0,-23
12290,1,1,4,28,6,-10,0,-9
12295,-7,-4,3,-5,-17,9,-3,-5
12300,-6,-5,22,9,8,-5,-2,9
12305,-1,5,-7,4,10,48,8,-5
12310,-2,5,10,2,2,-19,-6,-3
12315,3,-5,-15,-25,-27,-14,2,5
12320,0,-2,-3,22,5,-21,-4,7
12325,-11,-4,0,3,3,24,2,-19
12330,1,4,-6,-40,-5,-9,-3,10
12335,9,1,-7,19,24,2,4,3
12340,3,-4,-5,0,-2,-3,3,-13
12345,-2,2,-6,-13,-9,-1,-5,-54
12350,-8,-3,-6,-4,8,19,-2,70
12355,12,-1,2,40,-1,1,-1,-6
12360,-16,-3,-1,-7,25,10,0,-11
12365,-10,-8,-6,0,-18,-25,-3,-4
12370,23,6,13,-8,-2,8,-7,-6
12375,-6,-5,-15,-23,-8,-5,1,3
12380,-9,7,9,25,10,-13,-1,2
12385,-11,-9,4,-14,-14,-31,-3,10
12390,1,0,-3,4,-11,-8,0,-8
12395,-5,-2,11,13,16,13,0,-2
12400,2,-3,-10,-32,-10,-3,-2,-5
12405,-9,-1,2,22,4,-2,-2,33
12410,-9,-5,-3,-2,-5,4,5,-49
12415,-2,4,31,9,-6,-7,-5,24
12420,-5,-3,-23,-22,-8,10,0,11
12425,30,10,11,-32,1,1,0,1
12430,-8,-7,-13,13,7,11,4,-7
12435,0,1,-8,7,6,22,1,-19
12440,-8,-1,0,-1,-4,-15,-2,7
12445,-5,-2,7,-7,-3,3,-3,-9
12450,-4,-2,1,-3,-12,-4,-2,16
12455,12,9,4,-11,20,6,0,-29
12460,-18,-10,-14,5,-23,-1,-1,4
12465,4,-1,-11,-9,16,-4,-2,8
12470,7,10,17,20,6,4,1,15
12475,6,-5,-8,-5,-7,-1,0,14
12480,15,8,4,6,0,-1,-1,-10
12485,-22,-4,27,-4,-5,-1,0,-21
12490,-10,-6,0,-4,-5,0,-1,9
12495,-9,-2,10,14,2,10,3,-15
12500,16,2,-17,21,16,-21,-1,14
12505,4,0,-17,-12,-14,-2,0,-22
12510,2,-7,0,-21,15,-1,-2,10
12515,0,11,6,10,-8,1,0,5
12520,2,0,-6,-13,3,7,-1,-6
12525,-16,-4,-11,-7,13,14,-1,12
12530,11,3,12,65,19,-21,-2,17
12535,-11,-4,31,-4,-42,-35,-8,-13
12540,-15,-7,2,-15,-6,10,1,29
12545,20,-1,-32,-45,-4,4,-3,11
12550,7,0,-12,9,11,18,5,-32
12555,-15,-6,9,-16,2,10,-4,17
12560,2,7,-1,2,1,-17,-3,-21
12565,-16,-7,-6,-3,7,19,2,-17
12570,-6,-1,11,-1,-33,-18,-3,21
12575,14,-2,-31,-28,-1,-14,-4,-19
12580,7,1,14,-18,-6,2,-1,-4
12585,7,12,3,52,13,10,2,34
12590,0,-1,-5,-57,-9,2,1,-10
12595,-17,-9,-16,-27,7,-4,-1,-46
12600,-1,-5,-2,19,-11,22,0,34
12605,18,7,-7,19,-14,-59,-12,-4
12610,-14,-3,2,-12,-14,18,1,17
12615,14,-2,-16,-5,-2,29,5,10
12620,-12,-4,-17,-5,20,12,0,-22
12625,-10,0,25,-15,8,9,1,-36
12630,-14,-3,-7,35,6,-6,-8,-1
12635,23,7,-17,-12,-11,-16,3,26
12640,2,5,13,14,7,11,3,3
12645,-10,-3,1,1,-5,1,-3,-23
12650,-4,-6,-8,3,8,-27,-3,23
12655,2,-1,3,-24,-10,33,2,15
12660,15,6,-2,10,10,-36,-1,-16
12665,2,-3,9,-2,-25,13,-1,12
12670,-5,1,-32,-57,-9,-11,-1,-7
12675,-20,-4,-13,37,25,24,-2,-7
12680,14,5,15,17,-2,7,-2,18
12685,8,0,-7,-41,-5,-5,-3,-8
12690,5,-1,5,35,7,32,8,-9
12695,-14,-1,-1,19,-12,-21,-4,-8
12700,-16,-6,-11,-26,4,23,2,-30
12705,2,0,42,20,-3,-12,0,-10
12710,29,5,1,-1,14,-11,2,5
12715,1,-3,-3,13,-26,-11,-2,36
12720,5,-3,-1,-19,-7,-25,-4,-8
12725,-29,-10,-29,9,1,16,1,10
12730,21,11,6,-12,7,24,2,-26
12735,-4,1,5,19,19,-4,3,-12
12740,-5,-3,10,0,-4,-12,-7,-25
12745,1,-1,-2,11,-8,20,2,-1
12750,11,-6,-5,-4,-4,-13,-5,-6
12755,16,2,-5,-12,12,-6,3,60
12760,8,3,5,5,4,1,-2,-2
12765,-12,-5,-6,3,-14,-20,0,2
12770,-26,-6,1,-3,-21,-1,-8,-7
12775,-4,0,4,9,12,-27,-4,-45
12780,11,-2,6,-12,-21,-7,-2,34
12785,-4,-4,-13,1,19,-1,1,-7
12790,-10,-5,-8,-6,-10,-18,-6,14
12795,8,0,-11,13,24,50,1,-1
12800,1,0,9,-20,-11,-22,-1,-15
12805,-3,1,16,23,3,-1,-3,35
12810,-15,-6,-23,40,6,17,2,-16
12815,-4,-13,-9,-67,-5,-11,0,-1
12820,-1,7,-13,18,25,18,3,8
12825,15,1,-2,-26,-12,20,-4,2
12830,-23,-9,4,-4,14,5,-3,-18
12835,8,9,11,22,-18,-13,-3,-8
12840,-10,-4,-3,-14,-2,8,1,4
12845,-7,-4,-14,-28,0,-27,-3,-19
12850,3,8,0,11,6,0,-1,23
12855,-20,-11,0,19,-17,-19,0,-13
12860,-9,-7,-5,11,-14,10,-7,-18
12865,-11,-7,-3,14,14,-13,1,6
12870,28,11,-6,-8,-9,4,3,-7
12875,8,5,-3,-8,-14,1,3,19
12880,5,1,3,-4,29,9,-1,12
12885,-7,-2,18,35,-11,36,4,-25
12890,-3,-4,-16,-48,-13,-15,-3,-14
12895,4,4,-19,11,7,18,8,0
12900,-7,-4,8,6,-10,-6,-4,-36
12905,10,2,-5,-13,8,1,5,54
12910,-17,-3,23,4,18,20,-9,-38
12915,11,8,20,38,11,-17,3,-1
12920,17,-8,-15,-7,-16,15,2,45
12925,20,11,-3,19,5,-14,3,-12
12930,-6,-10,30,0,-7,-7,-3,48
12935,-10,-1,-8,-5,31,1,4,-62
12940,-4,2,0,-19,-26,-13,0,-8
12945,-12,-5,13,-20,-11,17,-6,9
12950,1,3,-4,19,-3,-4,3,-10
12955,-15,-8,7,16,6,8,-7,28
12960,4,4,1,-1,-2,-10,4,23
12965,5,3,-12,7,1,-13,-5,-21
12970,-5,-3,1,1,-2,8,0,17
12975,-12,-5,4,-9,-18,-55,-9,-14
12980,-13,-1,-3,1,5,7,-1,-39
12985,18,4,-7,7,-8,-26,4,68
12990,4,-4,-5,-7,8,1,-3,-25
12995,6,8,-9,-20,-1,33,2,-6
13000,7,-4,-2,21,-8,-16,-2,13
13005,-5,-1,-1,-17,11,0,-2,-26
13010,-8,-3,5,-3,-8,7,3,8
13015,7,1,-4,1,9,5,3,6
13020,-9,-5,1,-4,1,-2,-4,-18
13025,0,-2,0,1,5,12,2,3
13030,8,3,1,-3,-5,-12,-2,3
13035,-14,-9,-4,4,-15,1,-4,17
13040,2,9,-1,-17,-22,-17,-6,11
13045,16,-2,-1,-4,6,9,-3,-21
13050,-1,1,6,18,24,1,6,18
13055,-4,-6,-5,-12,-21,-31,-14,-35
13060,-33,-7,-1,10,1,-2,-1,40
13065,30,4,-3,-3,11,3,0,3
13070,-2,-2,8,-7,6,5,5,-14
13075,-9,-5,-6,0,-22,-5,-2,1
13080,-9,-4,-5,-6,6,16,3,-14
13085,-11,4,2,-7,4,19,1,-22
13090,2,1,1,-22,-28,-36,0,17
13095,0,-1,2,-5,-9,36,2,-16
13100,11,1,-2,9,29,-8,-2,-30
13105,-32,-11,5,21,4,-2,-2,40
13110,35,18,10,14,1,8,0,-6
13115,-4,-2,-6,-42,13,-5,-2,-30
13120,23,-1,-10,3,-22,7,1,38
13125,-8,0,7,0,-12,-16,3,7
13130,-13,-6,-32,-54,-7,-16,0,-5
13135,7,4,32,14,33,-17,-4,5
13140,-6,-7,-6,4,-22,-34,2,-11
13145,-2,1,-4,-17,-1,-1,-4,-25
13150,-11,-5,-27,3,-13,17,2,26
13155,15,8,-6,-12,-7,-12,-1,-2
13160,2,1,5,-12,21,39,2,-21
13165,2,-7,0,-9,-12,-16,-3,-8
13170,-6,4,-1,46,-12,-7,0,35
13175,14,1,1,21,4,9,1,4
13180,-5,1,14,5,-1,-7,0,20
13185,9,-2,-11,3,9,1,-7,-17
13190,-1,0,7,5,14,16,5,-27
13195,-18,-7,-4,-11,-19,23,1,12
13200,-10,-1,22,45,10,-21,-5,-25
13205,10,0,-6,-17,4,23,3,9
13210,4,-4,16,17,-22,-22,-8,-9
13215,4,2,-17,-19,3,27,9,30
13220,-13,-3,-13,-9,-2,16,-4,-52
13225,-1,2,-5,4,22,0,1,32
13230,21,6,26,0,7,3,-2,17
13235,12,-1,-14,13,-3,16,3,1
13240,-17,-9,-16,-48,-10,-28,-4,-12
13245,-10,2,-2,10,6,3,3,-30
13250,10,2,0,-4,8,20,-6,7
13255,-10,-1,-7,-3,-5,-63,-3,5
13260,1,-5,-9,-10,10,17,0,-2
13265,-5,4,15,27,-13,-20,-2,0
13270,11,1,11,-26,-1,15,3,-25
13275,-14,-8,-15,14,2,-5,-7,-11
13280,4,6,-5,-1,12,36,8,28
13285,5,-8,-13,-31,-32,-42,-6,30
13290,14,6,5,11,7,19,6,-7
13295,-4,-1,11,10,16,14,-2,0
13300,2,-3,8,4,-7,-29,0,-9
13305,-8,0,-2,0,2,15,-2,-2
13310,-11,-3,-15,-2,-9,-10,1,-11
13315,4,0,7,-5,-5,-5,1,15
13320,0,-2,-7,-2,2,16,-3,9
13325,-9,5,2,1,-2,-3,2,-53
13330,0,-11,-2,2,1,-35,-4,37
13335,1,-2,-1,-7,5,9,-1,-26
13340,15,3,8,6,-11,0,5,24
13345,-4,0,1,-11,7,14,-6,-1
13350,-19,-3,-8,9,-1,-17,-2,-19
13355,4,-1,6,3,-18,13,1,12
13360,-4,-2,-11,-16,-3,12,-4,-22
13365,-2,-6,15,7,0,-17,2,-4
13370,-8,-1,-19,-21,12,13,-8,16
13375,10,-5,0,1,5,-20,-5,5
13380,7,4,-3,19,13,3,3,14
13385,-7,-2,-4,-9,8,20,-2,10
13390,-1,-1,6,-4,-14,-5,-1,-32
13395,-9,-8,3,7,-20,-22,-7,-1
13400,13,10,12,-2,26,8,-5,1
13405,2,-2,-2,14,-1,-17,3,6
13410,-6,-4,-1,-7,-21,-37,-8,-11
13415,-11,-1,-4,-7,-8,0,-2,-4
13420,-6,-5,6,-8,10,-1,4,-7
13425,-8,-5,1,-3,-29,-19,-8,-21
13430,-9,0,-4,26,22,21,4,-1
13435,36,12,23,-12,-6,13,3,17
13440,-12,-3,-11,4,-11,-12,-5,7
13445,9,2,10,4,6,9,2,10
13450,3,-5,-10,-39,-10,-8,-2,-15
13455,-22,-5,6,37,6,-8,-2,7
13460,19,3,3,28,15,15,3,-8
13465,-3,-3,-18,-32,-8,18,-2,11
13470,-11,-7,11,-11,0,-7,1,-39
13475,-5,7,-7,-9,16,30,-3,27
13480,-2,-1,-5,-6,-13,-18,-1,2
13485,-5,-2,29,-12,-20,-9,1,5
13490,2,0,-9,7,-9,-35,0,-1
13495,-6,-7,-7,30,34,27,1,-18
13500,9,-2,-1,-5,-12,-9,-6,-1
13505,1,6,-4,-3,-2,-27,6,23
13510,13,5,14,13,1,31,-1,1
13515,-18,-8,8,-10,-9,-3,-1,-16
13520,-13,-7,-10,4,4,-13,-4,5
13525,5,2,1,10,-1,7,0,-26
13530,-3,0,14,7,15,26,-5,31
13535,-17,-4,-36,-5,-2,-56,-1,-76
13540,34,1,27,-2,-7,8,3,66
13545,6,0,-26,-30,-4,-31,-3,-20
13550,-14,0,-6,1,-4,13,0,-15
13555,10,-2,13,-28,-16,8,-1,22
13560,-32,-7,-18,25,9,18,1,-6
13565,17,-2,5,45,6,1,0,-17
13570,19,5,-9,-9,-17,-19,0,23
13575,-9,-1,13,-17,-1,6,-1,0
13580,0,3,10,13,-8,-4,3,-5
13585,-5,-2,-7,14,35,30,-1,14
13590,-12,-4,-22,-5,-24,-11,-4,-16
13595,-5,0,-4,-24,-7,14,-4,-10
13600,-8,-6,-10,31,6,-6,1,7
13605,19,2,-2,25,16,15,2,-1
13610,5,-7,4,-6,-4,-18,-3,12
13615,5,13,-3,-13,9,2,2,20
13620,4,1,19,25,4,-15,-2,-20
13625,-23,-6,0,-19,-28,-19,-9,-1
13630,1,-10,-29,-21,8,-14,0,-4
13635,8,7,5,-7,7,11,5,-7
13640,8,3,2,-32,-25,-12,-1,14
13645,-15,-5,5,8,7,10,0,-35
13650,-9,-2,7,2,12,47,0,40
13655,9,0,-10,9,-17,-35,-3,11
13660,-14,3,21,-58,14,-12,-6,-65
13665,9,-2,-13,44,10,13,6,71
13670,-1,2,9,2,8,-23,-7,-42
13675,-2,-6,16,2,-9,-5,2,4
13680,7,-3,-12,18,-17,9,-3,18
13685,7,8,-3,-31,-5,-28,-1,-20
13690,-4,4,11,15,7,12,4,14
13695,-16,-11,-9,-10,25,3,-3,-9
13700,14,8,6,-19,-22,-34,2,0
13705,18,-7,-4,-13,-11,-2,1,9
13710,-8,-2,-3,0,-6,9,-7,-14
13715,-2,-2,-11,13,4,10,9,19
13720,-7,-8,-17,-7,10,8,-4,14
13725,-7,2,-6,-32,0,9,-1,-3
13730,-18,-2,-9,-23,-5,-10,1,-15
13735,21,5,1,35,2,32,1,6
13740,-10,0,-4,1,12,-15,-5,-23
13745,3,-2,7,-22,-3,-2,-2,8
13750,2,1,-8,20,-3,-6,3,1
13755,-11,-3,16,1,3,-5,3,-34
13760,-4,-4,-20,-8,-17,16,-2,26
13765,-19,-12,-1,13,-8,28,-6,-38
13770,24,8,-7,2,6,-42,5,21
13775,1,-4,-13,2,-2,-19,-5,13
13780,2,0,6,-6,-7,15,2,4
13785,-13,-2,-3,-18,5,-15,-3,-6
13790,-7,-7,-8,2,-6,27,-3,4
13795,7,2,-6,-2,-11,0,-1,-1
13800,-12,4,14,-13,15,26,-1,-28
13805,-36,-11,-22,-21,-9,-28,-7,5
13810,21,0,45,58,-7,-19,4,3
13815,35,19,-12,8,3,-3,4,16
13820,-8,-1,17,12,-25,6,0,-30
13825,-7,-3,-21,0,46,21,1,-6
13830,-18,-4,12,-10,-4,3,-2,4
13835,-18,-9,10,9,-6,3,-8,-10
13840,8,-3,-48,-81,-8,-9,2,11
13845,17,8,1,19,8,18,5,8
13850,-17,-11,-6,-5,4,-21,-5,-23
13855,27,9,-7,-22,-11,6,2,43
13860,-7,3,13,20,7,-12,-4,-26
13865,5,-4,14,-1,-24,3,-4,8
13870,-3,-1,-21,19,7,31,3,-12
13875,-22,-5,13,-12,0,9,2,-22
13880,-5,-5,-6,18,5,1,-1,20
13885,16,2,10,23,11,-7,-5,26
13890,21,5,11,-18,-7,14,1,-13
13895,-12,-3,-5,7,-4,-21,-4,15
13900,2,8,18,18,10,2,0,0
13905,-19,-9,-18,-12,3,3,1,-19
13910,7,2,-8,-14,7,9,1,9
13915,-2,-6,8,-6,-2,10,0,-13
13920,-20,-7,-22,-20,14,-13,-1,-15
13925,43,9,10,14,-33,-8,-6,32
13930,-3,2,8,13,15,-13,2,3
13935,6,-2,2,-7,-7,-4,-4,-18
13940,-4,-4,-14,21,5,14,2,-7
13945,-4,5,13,-1,-12,10,2,-14
13950,-20,-10,-5,-4,-11,1,-4,8
13955,-12,4,6,-9,10,2,-1,-2
13960,14,0,14,-5,11,-3,1,19
13965,3,-5,-20,6,-14,3,4,-5
13970,-3,3,4,-7,2,0,0,-6
13975,-20,-7,-6,3,-8,-30,-6,-48
13980,6,-3,-1,-8,-9,-16,-4,48
13985,-14,-3,0,-8,5,17,1,-5
13990,1,2,-10,-18,3,-5,-1,-21
13995,11,5,0,-23,-3,25,3,19
14000,-4,-3,-16,23,4,28,3,-9
14005,-17,-8,-7,8,2,-73,-13,-45
14010,32,6,-3,-3,-5,4,3,60
14015,-8,-5,-9,11,9,-6,-1,0
14020,8,1,-1,-15,-4,6,0,-1
14025,-7,-3,1,-8,-7,5,5,-1
14030,-5,5,5,16,-3,5,2,-13
14035,5,4,4,-12,-31,-25,-10,4
14040,-5,-4,25,27,1,-11,-3,-23
14045,-8,-4,-12,-10,10,7,-3,4
14050,-16,-12,-13,-24,-3,10,1,-56
14055,16,-1,-1,25,8,0,1,56
14060,15,6,8,7,-1,-4,-2,-13
14065,-1,6,20,3,-5,-15,0,4
14070,-11,-3,5,-11,9,30,0,-33
14075,-18,-10,-34,-47,-24,-29,-8,5
14080,-8,0,5,-11,-3,0,-1,7
14085,17,2,-1,-3,-2,10,4,29
14090,22,4,-12,12,7,-1,-1,25
14095,-14,-3,-2,-4,6,13,-4,-52
14100,8,-2,0,3,-11,-4,1,52
14105,3,9,3,12,-5,-17,5,-9
14110,-13,4,1,-32,14,10,-8,-7
14115,0,-6,4,45,6,4,4,7
14120,-14,-4,-6,-6,11,8,2,-7
14125,11,-5,-6,-11,0,-21,-8,4
14130,-11,-2,14,34,-7,0,0,-5
14135,30,9,14,21,19,-7,-1,18
14140,-9,-3,-1,-33,-45,11,0,-27
14145,-4,-3,-12,16,0,-48,-2,1
14150,-5,0,-1,5,-5,-4,-1,53
14155,-7,0,3,-10,1,1,3,-35
14160,1,1,5,9,14,2,-3,1
14165,-5,1,21,14,-2,49,2,-9
14170,0,-7,-20,-14,-1,-41,-5,-2
14175,-7,-5,-7,20,-1,-7,0,-10
14180,6,0,-12,-21,-20,-36,-1,3
14185,-10,3,33,24,9,35,0,-45
14190,-4,-6,-11,9,12,23,3,0
14195,-13,-13,-2,-5,13,7,-1,33
14200,-10,8,9,11,-4,-10,-6,-38
14205,4,1,-32,-42,3,16,1,24
14210,-2,2,5,6,-7,-13,1,-8
14215,0,3,-3,4,12,1,0,-2
14220,-9,-10,-9,-2,20,38,0,-2
14225,-5,0,1,-12,-6,-36,-5,1
14230,-2,2,1,-8,6,0,0,-49
14235,8,-3,-10,-2,-19,6,1,63
14240,11,-1,-5,-14,-3,-2,0,-2
14245,9,2,2,42,16,21,-1,11
14250,-2,-4,5,-2,-12,-22,-9,-1
14255,-12,-1,-1,-40,-13,-3,4,-19
14260,8,-2,4,20,1,-11,1,-9
14265,-1,6,-11,-23,11,14,-3,-24
14270,5,0,12,10,-4,-18,-1,30
14275,4,-3,-14,2,7,11,0,-13
14280,5,2,19,5,6,-4,-2,24
14285,0,-3,-9,-10,0,10,3,-21
14290,-1,3,1,-3,0,-5,1,3
14295,-4,4,18,-29,-19,0,-1,-12
14300,-14,-10,-9,12,42,33,-2,-35
14305,-16,-5,-5,19,-22,-35,-2,44
14310,9,5,0,-4,3,22,6,4
14315,24,2,-4,12,-10,-4,-2,-3
14320,-6,0,6,-6,-8,2,-1,-7
14325,-8,-3,0,-20,8,22,-2,-3
14330,-22,-10,-19,-17,2,16,-2,-27
14335,0,6,21,-16,0,-12,-1,13
14340,28,12,-3,25,-10,-22,3,41
14345,3,-4,6,-10,-2,8,2,2
14350,-2,-2,4,5,-6,5,-2,-4
14355,-5,-6,1,6,7,5,-2,-29
14360,-7,-4,-14,-15,-7,-20,-4,-8
14365,6,2,5,26,6,-5,1,9
14370,-4,-4,-4,-15,-9,10,-1,-3
14375,-18,-1,-4,15,13,9,3,-8
14380,15,6,23,-21,-23,-7,-8,-2
14385,11,4,0,42,3,11,-1,36
14390,12,-4,-14,7,-7,-6,4,6
14395,-11,-4,-9,-5,13,-5,-3,-23
14400,-3,-1,-9,-7,-17,-7,3,-3
14405,-11,-2,12,-28,-14,-10,-3,-23
14410,-2,4,2,-2,1,-11,-4,2
14415,7,1,4,17,-6,24,2,11
14420,-27,3,0,-8,13,-34,-1,-1
14425,11,-6,-18,-49,-13,2,-3,-1
14430,-4,0,-7,5,20,16,6,13
14435,-7,-6,1,18,3,-10,-4,-2
14440,-1,-4,7,58,-1,2,-3,-2
14445,6,-1,-13,-42,1,-8,3,-6
14450,3,-2,-2,-19,5,24,-2,12
14455,-17,-5,-4,-7,-34,-2,0,-35
14460,24,1,-21,-25,-23,-39,-8,29
14465,-5,1,16,16,19,32,4,-3
14470,-5,-2,13,7,-10,-34,-5,-17
14475,9,0,-9,3,24,18,7,14
14480,-9,-5,-10,-6,-2,-6,-5,1
14485,1,-2,11,-15,-11,2,0,-8
14490,-6,-1,-8,5,-2,1,-8,-13
14495,10,11,-1,-4,7,-11,4,24
14500,-7,-5,1,5,7,19,9,-25
14505,6,-4,-7,8,7,-1,-3,19
14510,0,2,4,8,4,23,-1,6
14515,-7,-2,-5,-32,-13,-15,-6,1
14520,-8,-6,-13,20,22,-8,-2,-15
14525,14,7,8,1,-41,-57,-2,21
14530,18,7,-3,13,10,2,6,16
14535,6,0,9,0,-19,-6,-1,-1
14540,-5,-4,-9,-35,8,79,0,-19
14545,-11,-4,3,26,-10,-45,-4,-17
14550,1,-5,6,-3,5,-8,0,36
14555,15,9,-4,6,1,-20,2,8
14560,-13,-5,-2,-1,-2,19,3,-10
14565,3,-1,-11,-3,14,12,-2,17
14570,2,2,21,-18,-26,-11,-4,-21
14575,-6,-6,-11,29,35,13,-1,-16
14580,0,-3,4,5,-5,0,4,13
14585,-19,-4,-10,-20,-1,5,-4,-37
14590,3,1,8,-15,-5,-25,-3,15
14595,-16,-5,-10,3,-1,16,-4,-36
14600,34,6,2,14,17,-26,1,67
14605,11,1,-4,4,-7,2,3,-8
14610,-13,-3,-2,3,-6,-4,-3,-11
14615,-2,-2,6,-16,4,7,-4,0
14620,-9,-3,4,19,7,-7,-2,-9
14625,-14,-4,2,44,14,44,1,-31
14630,11,3,-10,-4,-6,-53,3,20
14635,16,8,2,-6,-9,-16,0,5
14640,-4,1,-5,-10,9,-9,0,10
14645,-2,-6,1,11,-1,1,-1,6
14650,-11,2,-10,-15,4,13,-4,-22
14655,2,-2,5,26,-10,-7,0,5
14660,-20,-2,-1,-18,-20,-30,-5,-28
14665,14,2,6,-10,26,4,5,19
14670,4,-7,-27,-15,-10,10,-5,0
14675,1,2,18,17,-8,11,0,1
14680,5,2,7,-1,5,0,1,2
14685,-12,-1,8,-23,-14,-30,-4,-1
14690,-16,-5,1,12,-12,2,1,-39
14695,-17,-9,-19,-27,-18,-6,-10,35
14700,30,5,-5,0,9,14,0,-6
14705,-6,-3,5,10,-9,7,-2,-7
14710,4,6,26,4,8,19,1,15
14715,-13,-1,-2,-1,-12,-28,-2,-25
14720,-11,-3,-3,-4,-11,16,1,-1
14725,1,3,-4,-29,-1,-11,-5,26
14730,-4,-8,-6,29,-2,32,0,-8
14735,5,1,-2,19,24,12,3,-7
14740,0,-1,0,-2,0,7,3,9
14745,13,2,-3,17,15,25,2,-9
14750,-12,-3,-5,-31,-17,-18,-6,10
14755,-1,2,5,-16,1,8,-2,6
14760,1,3,14,31,-5,-8,0,-13
14765,-45,-12,-33,-68,-41,17,-5,-44
14770,60,7,-8,27,33,-24,4,61
14775,5,3,-9,-1,-1,20,5,4
14780,-3,-1,-4,-9,-1,6,-4,-3
14785,-10,-2,9,17,5,15,3,-12
14790,-16,-5,3,-8,-13,-13,-5,-17
14795,3,-4,1,1,7,3,-2,5
14800,-2,-1,-9,-8,-15,-4,0,-21
14805,5,7,-4,-38,-1,-13,-5,19
14810,-2,1,29,36,16,16,6,-9
14815,-1,-8,-6,15,0,-19,-5,-2
14820,-2,-4,-7,5,9,15,2,30
14825,12,1,1,11,20,-8,1,14
14830,-9,-3,-10,-37,-21,15,-5,-5
14835,-6,-2,2,-12,6,-30,-2,-15
14840,-14,-2,21,6,-22,-31,-5,-35
14845,2,3,-9,-13,7,-3,2,31
14850,0,8,-1,19,17,24,8,-2
14855,5,0,6,-2,11,40,0,-4
14860,7,-2,1,10,2,-35,1,2
14865,-3,-6,3,-16,3,40,-4,-16
14870,-17,-6,-13,22,-14,-27,-7,-28
14875,10,-3,1,-13,-2,-35,-5,1
14880,-3,0,-9,-14,6,29,4,1
14885,14,8,17,21,-11,-31,6,41
14890,-6,-3,2,3,2,40,1,-8
14895,-4,-1,-9,-7,-3,3,-1,-3
14900,0,-2,-6,-31,9,-8,-3,7
14905,-5,-2,3,25,-8,-2,0,-10
14910,-1,-8,-16,-18,11,21,1,-12
14915,-9,7,7,26,-5,-12,-4,15
14920,11,5,6,-10,-6,13,5,24
14925,14,5,4,6,0,7,-4,-9
14930,2,-5,-4,-8,-12,-31,-1,6
14935,-7,-2,-3,-13,-3,4,0,-13
14940,-7,-7,-18,5,-8,12,-4,-3
14945,3,-7,-14,19,14,6,-4,-13
14950,-11,-5,-3,-16,-9,-17,-2,-10
14955,-5,1,27,40,4,19,3,-24
14960,11,2,-18,-45,-16,-10,-5,32
14965,-3,-3,-11,-10,2,-14,-1,-6
14970,1,4,9,5,-18,5,-2,1
14975,-6,-1,-13,-32,0,5,-3,7
14980,3,-4,19,14,6,-1,-3,-1
14985,-4,0,14,9,5,13,4,-17
14990,-7,-3,-17,-4,2,-19,-6,-49
14995,10,-5,2,-29,-13,0,10,95
15000,14,11,-5,20,-11,-20,-6,-27
15005,4,-1,-9,-13,-6,-3,4,11
15010,5,9,18,31,28,-20,-1,-11
15015,-5,-4,1,5,-8,4,-1,-24
15020,-17,-6,-10,-26,2,5,-7,-6
15025,-12,-8,-13,12,0,-15,-2,5
15030,-2,-4,-6,-7,6,4,-1,-6
15035,28,7,-4,-1,-8,-8,-5,13
15040,-5,0,-2,10,13,17,7,9
15045,-12,0,6,-9,-10,-14,-5,-36
15050,-2,-3,5,-11,-2,7,1,19
15055,-7,-5,-15,-16,4,0,-3,-18
15060,2,-1,14,12,-4,-5,-1,-4
15065,-14,-3,-8,23,5,8,-2,7
15070,11,-2,-6,-19,-10,-4,-6,20
15075,5,7,3,7,6,3,5,-17
15080,-8,1,11,25,5,-1,2,9
15085,-7,-5,4,-70,-14,-3,-5,-14
15090,2,1,-16,12,2,13,4,10
15095,-5,-5,-6,4,16,-9,-9,-18
15100,-4,-8,-11,-11,-21,-12,-1,-11
15105,0,2,9,17,-7,4,2,10
15110,2,1,7,-4,0,-4,-9,21
15115,4,2,5,-15,-9,-11,3,-16
15120,1,11,-7,12,17,38,9,2
15125,27,6,9,16,-7,-29,-3,-6
15130,-1,-2,-14,-33,-8,-16,0,3
15135,-12,-8,-22,34,5,-22,-4,-12
15140,-12,-7,-7,-2,15,16,-4,-34
15145,-1,-3,-12,12,-2,-5,-3,33
15150,17,4,9,-1,0,-16,10,19
15155,3,3,-1,-47,5,14,-1,6
15160,2,4,8,15,-11,-42,-5,-2
15165,-5,-4,7,-2,-5,11,0,-32
15170,-5,-2,-6,22,3,19,0,11
15175,-6,-2,7,-3,4,-6,1,7
15180,-4,-5,0,-10,9,13,-4,-5
15185,-20,-8,1,10,7,-11,-5,-19
15190,28,-1,-11,-16,11,31,5,33
15195,-4,6,5,-7,-11,8,0,-35
15200,20,5,-3,0,11,5,3,25
15205,-1,-2,-4,8,1,-16,-1,1
15210,-10,1,11,-3,-13,4,0,-6
15215,-5,-5,7,-12,1,7,-2,5
15220,-1,-6,-5,8,-13,-1,-3,-14
15225,-15,0,8,12,0,3,2,-1
15230,18,1,1,-20,0,-22,-4,42
15235,5,-9,-5,26,-18,-1,1,-4
15240,11,15,2,-26,23,-3,-1,2
15245,13,0,-10,11,-23,8,6,12
15250,-17,0,0,22,15,-2,-2,-34
15255,-11,-6,-8,-13,-26,7,-2,8
15260,-8,-8,-6,-17,15,1,1,-7
15265,-6,-4,15,3,-8,1,-12,-9
15270,-14,0,-8,-20,-2,2,7,-12
15275,4,-2,-5,12,2,15,-3,0
15280,14,3,6,11,-16,-5,4,40
15285,8,4,-11,-21,9,6,0,4
15290,-13,-1,3,20,-5,-24,-5,-14
15295,-9,-1,15,-31,-2,28,0,-7
15300,-20,-14,-9,29,5,-29,-4,-24
15305,5,-3,-7,2,32,8,1,16
15310,-8,-3,-14,4,-23,6,-5,-36
15315,28,6,-4,7,10,-19,3,59
15320,15,14,5,-19,-18,0,-1,9
15325,0,1,8,4,1,3,1,-1
15330,-7,-1,2,-12,-12,19,3,-18
15335,-16,0,11,21,65,-40,-3,-20
15340,-7,-11,-5,2,-25,-20,-4,4
15345,6,2,-9,6,5,10,-2,-15
15350,-10,-7,8,-3,-11,-6,-2,12
15355,2,0,0,-4,-10,7,6,-2
15360,5,1,0,-30,-2,14,1,15
15365,11,8,3,42,6,-5,2,-15
15370,-1,-1,21,-33,0,5,-3,9
15375,-9,0,-33,-18,-15,-19,-2,-11
15380,-12,-10,-37,10,10,6,0,-19
15385,9,-7,-6,-25,-13,3,-2,17
15390,16,6,14,2,-7,-13,2,12
15395,4,3,9,13,-8,-5,0,-45
15400,7,3,3,-30,-8,8,1,47
15405,-6,3,6,-7,6,-6,2,-16
15410,5,-1,-13,-4,-4,10,-1,-1
15415,-13,-3,19,-2,-6,28,-6,-30
15420,-16,-8,-5,59,9,8,-2,-34
15425,10,-3,-7,5,15,38,4,92
15430,34,6,0,7,-6,-28,-1,-26
15435,-4,-1,-8,-22,-21,-9,-6,9
15440,-1,4,12,-4,-8,1,-1,-12
15445,-16,-4,-1,-13,1,6,-2,-16
15450,-12,-1,3,13,1,-12,-3,-5
15455,7,-2,-7,31,11,-2,3,26
15460,-14,-6,1,-34,-25,-25,-8,-15
15465,0,0,-32,1,-10,-33,5,-2
15470,-15,-4,29,-5,15,21,1,-25
15475,12,0,-10,2,-7,-36,-2,55
15480,5,0,10,19,3,4,0,-10
15485,-3,0,8,-6,-15,-7,-2,-20
15490,-11,-5,-10,1,9,5,-1,1
15495,-10,1,5,4,1,8,-2,-1
15500,-10,-5,33,-5,-17,21,6,-6
15505,-7,3,-22,42,16,-8,-14,-24
15510,7,-1,-38,18,15,-33,3,31
15515,14,2,-4,-13,7,26,4,4
15520,12,2,-5,-4,2,-20,-2,6
15525,-2,-1,11,-20,3,32,4,-17
15530,-7,-2,0,-1,-13,-24,-6,-10
15535,-8,-3,-5,7,2,14,-2,5
15540,-26,-8,25,-41,-19,-21,-9,-25
15545,27,10,10,7,13,4,5,9
15550,-5,-2,-12,-7,-6,15,0,-10
15555,19,-1,8,13,0,-1,-6,31
15560,0,3,-21,27,11,10,2,-28
15565,-17,-8,3,-30,-7,-11,1,17
15570,-6,-2,-3,12,9,19,0,1
15575,-12,-8,7,24,10,-12,0,-36
15580,3,7,0,-1,-12,2,1,18
15585,-1,1,-5,-23,-17,30,-3,9
15590,7,-3,6,10,10,-40,-3,-21
15595,-8,-2,-17,-23,-16,7,3,-21
15600,-6,-3,-7,-15,0,4,-2,14
15605,10,2,7,16,-3,-1,4,4
15610,-11,-1,-4,-6,1,17,-5,-10
15615,-20,-3,3,-4,6,0,-1,-5
15620,41,10,19,-6,10,0,0,36
15625,-10,-4,-15,-4,6,-4,4,-4
15630,7,0,2,-1,11,-21,-4,12
15635,-3,-3,6,-12,-1,13,-1,-12
15640,-4,-8,-3,18,-18,-4,5,21
15645,-9,7,17,-6,4,-24,-8,-34
15650,4,-3,-5,-8,-13,6,2,27
15655,-6,4,-6,-17,6,-2,3,-27
15660,-8,-4,-14,41,17,25,0,11
15665,5,-8,-8,-1,-19,-42,-5,-27
15670,0,6,-3,-39,1,23,2,-4
15675,-1,0,8,10,6,-2,-4,31
15680,-13,1,36,-31,-19,-11,-8,-8
15685,4,-3,-16,22,6,20,5,-10
15690,14,-3,0,11,-2,8,1,34
15695,-1,2,5,-5,5,0,-1,-33
15700,-5,-2,-6,0,9,14,0,16
15705,-4,-2,22,14,-27,-5,0,-4
15710,-10,-3,8,-56,-1,1,-6,-28
15715,12,8,-9,33,-18,-46,-2,14
15720,-9,-7,-20,3,9,0,1,-22
15725,-6,2,20,11,-4,6,1,11
15730,-5,-9,-27,9,12,4,-9,-9
15735,16,-1,-5,-9,-13,-13,5,12
15740,5,5,-7,21,17,12,3,-8
15745,-1,-1,-7,-42,5,3,-2,24
15750,-8,2,13,28,-10,-21,1,-12
15755,-3,-5,-3,-6,-11,10,-2,-4
15760,-4,-3,-16,-20,-8,-9,0,-24
15765,-3,-5,27,-12,10,19,0,1
15770,-10,-2,-5,23,-6,3,-5,11
15775,23,11,5,-9,4,18,6,-15
15780,-9,-4,8,-11,7,0,-1,9
15785,14,0,7,45,-18,-13,-3,23
15790,-4,-3,-10,-21,-5,20,0,-8
15795,-10,-5,-10,-2,14,-4,0,9
15800,-2,3,1,7,4,23,-1,-11
15805,-17,-12,-15,-43,-14,-49,-6,-21
15810,7,3,5,19,4,24,8,1
15815,2,2,4,4,-22,-9,-2,9
15820,5,-2,-17,-20,-1,-9,0,-10
15825,8,4,5,16,12,18,-1,11
15830,-10,-5,1,-2,-21,-13,1,-5
15835,-13,-1,5,-7,-2,10,2,-5
15840,-14,-14,-13,7,8,-16,-5,0
15845,6,17,9,-8,3,-21,-1,-18
15850,17,3,2,-14,17,-2,-1,43
15855,-2,-1,-4,13,-2,21,-2,-7
15860,2,-1,2,-5,-7,-18,1,8
15865,-16,-9,-17,-14,-5,-9,-2,-22
15870,-13,1,29,-9,25,36,-3,-20
15875,-3,-2,3,59,-29,-75,-1,26
15880,20,-2,-23,-39,-5,-4,-4,11
15885,-12,-2,-17,-8,21,12,0,-17
15890,17,9,6,-11,-24,-8,2,7
15895,-10,-12,2,16,20,24,-3,-6
15900,-9,10,21,4,7,10,0,-18
15905,1,-4,0,13,-31,-4,1,1
15910,-7,-3,-12,8,35,-10,-1,-2
15915,-22,-15,-15,4,-11,-2,-10,-30
15920,13,-1,1,16,8,-8,-2,23
15925,33,7,-6,-17,3,18,10,28
15930,-4,3,22,5,-19,-11,-1,-1
15935,3,-1,3,-15,5,19,2,1
15940,-10,-2,4,3,0,-12,-2,-19
15945,0,-5,-11,23,17,-25,-3,3
15950,-1,-1,-10,3,-15,-35,-6,0
15955,-1,-4,20,-13,-7,-35,-5,-32
15960,-8,5,-19,4,-10,11,2,43
15965,8,7,13,15,11,15,2,-6
15970,0,-7,-6,17,11,8,1,53
15975,5,3,-14,-36,14,17,-3,-31
15980,-2,-3,-2,-6,-18,-5,-1,-32
15985,-7,-1,-4,-21,-15,-2,-3,3
15990,-16,-2,-3,19,-4,-4,-4,-12
15995,-23,-9,-7,-29,27,18,-5,-32
16000,34,5,-8,-1,-3,17,8,67
16005,-1,-2,-13,-3,-1,-21,-2,-9
16010,2,1,4,-8,-17,4,1,-19
16015,8,5,6,-6,-13,10,1,20
16020,-18,-3,4,8,8,-9,-3,-40
16025,-9,-3,4,-5,-15,3,-4,7
16030,-4,-6,4,-62,12,17,1,-40
16035,-4,5,-22,49,1,-16,1,16
16040,29,3,2,12,-10,26,4,34
16045,-3,-4,-6,5,9,-1,-6,-12
16050,11,3,3,-8,-19,-7,3,6
16055,3,5,5,2,11,15,3,7
16060,-14,-4,1,0,5,-5,-2,-20
16065,-6,-4,14,-7,-14,16,1,2
16070,-33,1,27,57,6,17,-4,-29
16075,50,2,-14,-4,12,-44,-2,57
16080,15,1,-4,-9,-8,40,3,-10
16085,-8,-2,-7,-1,9,-12,-4,-7
16090,-8,-1,-10,27,-2,-7,-3,-10
16095,-13,-4,20,-12,-29,3,-1,-2
16100,-8,-3,-4,0,13,-13,-4,-12
16105,4,3,4,-19,9,17,1,1
16110,1,9,-7,10,-3,-37,0,9
16115,9,-1,24,0,-6,46,1,11
16120,-7,-4,3,13,9,-19,-2,-8
16125,-11,-10,-9,-3,10,2,-2,-15
16130,16,0,-2,-1,-5,-9,3,25
16135,20,14,6,-18,-4,-11,-1,20
16140,-9,-2,6,-5,-2,-12,-3,-19
16145,-16,2,1,10,-5,6,1,-17
16150,13,-3,-13,-19,11,8,0,24
16155,17,4,-3,8,6,-7,7,4
16160,-4,-3,9,-25,-25,-8,-4,-15
16165,0,-12,-9,-5,-9,-25,-5,-3
16170,-10,5,-13,14,-2,8,-3,-21
16175,-4,0,-4,-1,3,9,7,0
16180,-11,0,6,0,26,-5,-4,-30
16185,6,-2,-3,-18,-25,2,0,57
16190,-8,-12,8,-2,-13,-10,-6,-37
16195,-9,-1,2,3,2,-9,-1,16
16200,26,4,-5,14,-3,-8,-2,14
16205,2,6,8,9,4,-11,2,-14
16210,3,-1,13,-7,-1,-3,-6,15
16215,-15,-4,-23,-24,-10,-11,-1,-14
16220,-13,-5,0,-8,1,11,2,-36
16225,3,0,4,-4,3,6,-6,48
16230,-2,-2,-17,0,-13,-8,0,-33
16235,-1,5,12,19,-4,-49,-10,-20
16240,-16,-5,-9,-13,-5,17,4,-3
16245,5,0,-9,3,29,6,6,7
16250,9,-6,-7,-11,2,16,6,18
16255,2,3,10,-11,0,43,-2,7
16260,-6,-2,-7,9,-3,-50,-11,-21
16265,-7,4,13,32,-1,12,3,-30
16270,2,-4,-13,-22,7,10,2,17
16275,-3,-2,-7,10,17,18,2,5
16280,2,5,24,-4,-11,5,-2,11
16285,-9,-3,-8,11,3,5,-4,3
16290,1,-5,-5,-5,-18,-12,-2,-20
16295,-14,-10,0,-12,9,23,-3,-3
16300,4,-1,-8,27,-36,-35,6,11
16305,-2,5,-12,-74,7,2,-10,-24
16310,-13,0,47,28,-1,-4,5,10
16315,43,0,-18,-8,12,2,0,28
16320,5,-1,-5,-3,9,0,0,10
16325,1,-3,3,-1,-16,14,-2,1
16330,-5,4,-11,6,14,-6,2,-9
16335,-17,-5,-7,-44,-7,0,-3,-20
16340,0,0,-1,17,-6,-8,-4,10
16345,12,1,6,27,3,11,0,2
16350,-5,2,-2,9,17,-10,1,-5
16355,-11,-5,4,-37,-41,-24,-8,-7
16360,5,3,-4,27,9,6,7,9
16365,-9,-1,0,27,11,13,-4,-2
16370,2,-2,11,17,29,6,5,-1
16375,-8,-3,-22,-9,-38,-1,2,9
16380,-11,-4,12,5,-2,12,-6,-28
16385,14,10,0,-21,-7,-15,-2,10
16390,-10,-1,-2,6,6,-6,-6,1
16395,5,3,2,2,-27,-14,-2,-10
16400,-7,-2,-9,-7,16,29,1,27
16405,-16,-13,3,30,-1,-62,-5,-30
16410,-11,1,-9,-4,-2,44,2,-18
16415,21,3,5,23,-5,-52,-3,34
16420,10,-2,-11,4,18,34,2,-7
16425,-4,-1,8,-25,-20,-27,-2,-1
16430,1,0,5,21,-8,0,-2,14
16435,-11,-1,-5,-27,3,10,-2,-40
16440,-11,-5,-3,-5,25,-15,-3,7
16445,11,-4,-6,31,2,2,-2,5
16450,3,6,-13,-69,-18,31,1,17
16455,-9,-1,-23,12,5,11,-2,20
16460,12,4,1,22,8,-1,6,9
16465,-5,-1,-7,-15,25,24,6,-31
16470,1,-7,-4,21,-30,-28,-9,5
16475,-8,3,32,12,18,40,0,-21
16480,22,6,6,-26,-20,-47,0,30
16485,8,-10,-19,-8,-3,3,2,8
16490,-2,-1,-7,-20,-2,10,1,1
16495,-14,-1,8,9,17,2,0,-45
16500,-7,-2,2,-14,-28,9,-5,8
16505,-1,8,4,8,-18,-4,5,41
16510,13,-3,-26,-30,-1,-15,-5,-34
16515,-30,-8,22,2,24,-2,-6,-7
16520,11,-6,-10,-9,0,14,5,14
16525,3,13,8,-7,6,17,3,5
16530,2,-2,16,47,2,2,0,7
16535,2,-4,-28,-35,-10,-44,-1,2
16540,-10,1,-9,19,26,17,-1,-21
16545,-5,-4,2,-8,-17,16,-3,20
16550,-12,-4,-4,-4,-5,-23,-5,-21
16555,23,5,1,39,14,19,4,-9
16560,-30,-4,-2,-57,-34,-9,-7,16
16565,33,0,-11,14,5,21,0,-5
16570,-8,-2,-8,1,8,9,2,-31
16575,8,1,-10,5,-3,35,6,69
16580,-2,4,14,-17,11,-21,-9,-22
16585,-16,-8,-19,17,-21,-9,2,-20
16590,6,1,10,-10,18,-7,-1,3
16595,-2,-5,6,6,5,2,-3,-48
16600,-1,-9,-18,-21,-7,1,-1,44
16605,9,8,6,9,16,-8,-2,-4
16610,10,6,-2,8,-25,-9,1,11
16615,-28,-12,9,-10,-5,16,4,-36
16620,8,2,-1,2,22,16,0,26
16625,12,-4,-5,-11,-22,-13,-8,-1
16630,-5,1,13,27,-4,-3,-3,8
16635,-10,-4,4,-25,-2,-7,-4,-39
16640,1,0,-8,34,-14,7,6,-16
16645,19,3,6,-9,32,7,4,57
16650,9,1,-2,-22,-4,-16,-4,2
16655,-2,1,4,-2,-18,0,0,5
16660,-8,-4,-2,12,5,-2,-6,-3
16665,-16,-4,10,2,3,-3,1,-36
16670,15,4,0,-23,-24,-46,-9,11
16675,-5,-5,-27,16,0,-19,-1,-14
16680,-12,-5,4,1,1,-9,-4,1
16685,-1,-7,2,12,-10,14,4,12
16690,-10,3,-9,-13,11,18,-4,0
16695,5,3,26,-13,-3,-8,-1,16
16700,7,4,-1,43,4,-34,-2,-19
16705,-12,-2,6,3,12,7,4,-3
16710,0,-13,-29,-22,7,-18,2,1
16715,-9,1,-8,11,4,7,-5,8
16720,-2,2,4,-28,-18,-29,-3,-25
16725,-7,-3,-4,-11,3,38,1,1
16730,-4,-1,-2,6,-14,-32,0,-1
16735,13,7,6,1,17,1,2,19
16740,-6,0,25,-11,-12,13,1,-40
16745,10,1,-23,3,10,-14,-1,36
16750,-15,-4,6,10,2,-10,0,-26
16755,18,7,22,11,-31,-7,-1,37
16760,2,4,-31,-10,15,25,3,-16
16765,-3,-2,-8,-36,-16,-30,-5,-51
16770,-8,-1,12,34,27,44,4,42
16775,12,-5,-8,-8,10,-15,0,18
16780,1,3,-11,-3,7,-2,0,-20
16785,-11,0,18,-2,18,-10,-2,-9
16790,1,-8,-20,-18,-17,61,6,28
16795,-7,-3,-11,20,2,-17,-11,-37
16800,16,3,21,8,-7,-25,5,49
16805,-9,0,-2,-5,-5,-10,2,-7
16810,8,2,12,12,1,26,-1,-32
16815,-22,-3,5,1,-1,2,0,49
16820,8,-2,-8,-6,-9,16,0,-20
16825,-5,2,29,8,8,-5,-4,-8
16830,-4,-5,-12,-27,-22,8,-6,-9
16835,2,-6,-20,14,10,-5,5,-10
16840,-6,0,0,1,4,-3,-5,22
16845,-4,0,5,-35,-9,10,-3,2
16850,9,7,1,-7,9,2,3,5
16855,-10,-6,0,12,-16,-12,-2,-13
16860,-11,-4,-6,-23,12,21,0,-14
16865,-4,-2,-14,25,-12,-3,-5,17
16870,-5,1,3,-6,12,-10,2,-2
16875,23,8,-2,3,-2,-19,3,1
16880,-4,-4,2,10,-1,4,-5,-4
16885,-4,1,-3,-2,-4,19,2,-1
16890,-2,-3,24,12,-29,-80,-6,-4
16895,-12,0,-16,-4,34,32,0,16
16900,0,-12,-21,19,17,11,2,-32
16905,11,-6,0,0,-3,8,0,-9
16910,6,13,3,17,10,-2,3,9
16915,-11,-4,6,-34,-12,-1,-1,-9
16920,-7,0,4,-3,-14,-8,-4,24
16925,-7,1,-9,-9,5,14,0,-33
16930,29,-1,16,12,8,2,0,27
16935,-2,2,-11,-5,-7,-16,2,16
16940,-2,-3,1,-6,-12,13,2,-8
16945,-3,1,0,8,-26,-22,-1,-9
16950,-17,-4,9,-47,13,25,-1,-8
16955,0,-1,-4,23,-8,20,0,-27
16960,4,-2,11,-16,-2,12,-1,16
16965,-1,3,1,39,8,-21,2,-5
16970,-9,-5,-10,6,-3,-4,-4,-19
16975,19,2,30,3,18,8,6,66
16980,-11,-6,-13,-18,-24,-2,-4,-29
16985,2,3,8,-12,-3,2,-5,-5
16990,-14,-4,-17,-18,-6,1,3,-7
16995,0,0,0,14,-3,-8,-6,-7
17000,-5,12,20,41,32,8,2,-22
17005,8,-5,-2,8,5,4,1,52
17010,16,-2,-17,-60,-22,-38,0,1
17015,-3,-3,-19,13,23,33,1,-8
17020,-4,-1,-1,-24,-27,-58,-5,-34
17025,-5,-1,4,-24,1,19,3,17
17030,-1,-1,1,59,21,20,4,6
17035,-13,-6,-9,-13,-15,-32,-9,-11
17040,17,1,-2,-9,3,-1,-2,15
17045,5,0,-5,-1,3,8,-2,-6
17050,-3,0,1,-5,-8,-4,-1,13
17055,-14,-2,-4,-10,0,11,-1,-7
17060,29,11,-5,16,13,16,8,16
17065,-7,0,-6,-9,-14,-28,-6,-10
17070,8,-4,5,15,15,9,-2,6
17075,-13,-1,6,9,0,3,0,-35
17080,-9,-7,9,-13,-40,-13,-6,28
17085,4,1,-28,-39,17,30,4,11
17090,23,8,3,53,-3,-21,5,3
17095,11,-1,12,10,-5,-4,-4,8
17100,-7,0,9,-13,12,8,5,-6
17105,-11,-6,1,1,-15,-27,-6,-26
17110,-11,-2,-5,9,5,17,-1,0
17115,-9,-2,11,-7,3,15,1,-5
17120,12,3,-10,-10,-8,-46,-4,33
17125,3,2,16,36,19,9,-1,-15
17130,3,0,-2,-23,-6,15,-2,28
17135,7,-1,-19,-3,2,8,-3,-41
17140,-13,-3,24,10,-16,-6,-5,3
17145,-20,-13,-7,-12,-7,-8,-2,-10
17150,0,11,-6,-9,15,-3,-2,-3
17155,2,4,-2,-13,6,29,3,-15
17160,-13,-5,5,10,15,-1,0,26
17165,25,4,-6,-4,-5,-31,4,0
17170,-4,-7,-4,33,10,23,0,-29
17175,7,1,-3,-1,14,6,1,19
17180,-10,-2,-4,-11,2,6,-6,-28
17185,-6,-2,33,0,-17,-1,0,24
17190,6,-1,-36,3,5,22,2,-10
17195,7,-4,-6,-6,12,-10,-4,19
17200,34,0,-13,-8,-10,-16,0,21
17205,-14,-3,1,3,-5,4,-5,-17
17210,-8,-1,15,15,-23,-2,-2,-14
17215,-19,-11,-10,-44,1,-11,-1,21
17220,3,11,-13,11,9,-9,3,-13
17225,8,0,-9,16,14,2,-2,5
17230,-6,0,13,-8,-18,9,-1,2
17235,-4,-3,0,8,-11,-46,0,-12
17240,-18,-8,-4,-2,-4,-14,-5,-19
17245,12,3,-13,-4,1,8,3,28
17250,-3,-3,1,-13,16,-8,-7,-4
17255,-4,1,4,13,-15,-2,-2,2
17260,-1,0,28,-20,-7,11,0,-9
17265,-7,-5,3,26,5,16,3,-1
17270,9,-2,-16,-11,-11,-5,-1,-9
17275,0,-2,-15,-31,5,-12,0,16
17280,-11,5,2,11,2,-3,0,-20
17285,-11,-8,-5,-21,-13,-10,1,1
17290,-10,-2,11,26,19,37,-4,2
17295,16,10,-1,-51,-1,-32,3,3
17300,-8,-9,-20,9,1,20,-4,-15
17305,4,4,3,-20,-16,13,6,8
17310,-6,-6,-2,-10,-12,-52,-10,-1
17315,-3,-3,-1,43,-6,9,0,-20
17320,1,-3,-4,4,29,24,2,28
17325,-6,-1,12,12,6,9,-7,-33
17330,-9,-4,11,-60,-15,-19,0,10
17335,-3,4,6,22,-7,19,3,18
17340,32,4,-5,-5,3,28,4,1
17345,-4,-2,-9,11,4,-15,-5,-18
17350,-1,1,-3,4,-9,-15,-1,10
17355,-6,-1,-12,-22,-10,-20,-3,-20
17360,-6,-6,-4,44,3,14,3,11
17365,8,3,7,14,32,50,-3,12
17370,-1,6,9,3,-53,-64,2,-13
17375,3,0,1,9,31,32,-1,-18
17380,-7,-2,2,-25,-13,-33,0,2
17385,-6,-3,-7,21,1,-27,-6,11
17390,4,-3,-3,-8,15,34,0,12
17395,0,1,-6,3,-16,-36,0,0
17400,-1,-3,-5,-8,-2,14,0,5
17405,-2,2,1,-14,4,-4,1,-24
17410,1,-1,-1,0,32,17,-1,6
17415,1,0,13,13,-19,9,-3,-8
17420,-14,0,-14,-16,1,22,5,-9
17425,3,5,20,-15,-9,-43,-4,-37
17430,10,-1,-5,4,-9,1,0,37
17435,9,-3,1,11,11,20,-6,7
17440,-12,-3,5,6,-2,-11,2,-25
17445,6,6,3,-4,1,19,0,26
17450,0,-1,-15,-30,5,-5,-1,-17
17455,2,-1,-2,12,-19,-19,-4,2
17460,0,0,0,-8,-6,-25,-2,-7
17465,-7,-5,-16,0,-14,-26,-4,-7
17470,-5,-1,29,-12,16,19,-1,-6
17475,-7,-4,3,-16,-16,9,4,13
17480,9,2,-26,15,26,27,-1,-1
17485,10,-1,-18,-27,-25,-36,1,37
17490,0,-4,0,25,11,1,-6,-23
17495,-3,-2,15,-17,-2,43,4,-14
17500,-15,-3,13,-2,-8,-29,-9,5
17505,2,4,-6,13,29,3,8,1
17510,19,-1,-3,-3,-12,7,2,33
17515,0,3,-5,-8,-8,16,0,-8
17520,-13,-3,25,40,5,-22,-7,-5
17525,-15,-9,-22,-3,3,13,1,-21
17530,-2,3,-6,8,-1,-22,1,-6
17535,6,2,5,3,9,-6,-2,-9
17540,-4,-1,3,14,2,12,-2,5
17545,8,-1,14,-22,-18,-10,-6,-1
17550,-13,-5,-20,9,9,11,3,-6
17555,5,-5,-1,22,-17,-20,-4,-2
17560,-4,-2,-1,-50,22,28,-3,-10
17565,-10,0,12,87,-1,1,-2,-11
17570,14,3,-14,-30,2,-7,-1,11
17575,-6,1,-5,-9,7,-1,5,-25
17580,18,-1,-2,7,0,-6,2,43
17585,-7,1,10,-19,-10,48,4,-25
17590,-11,0,8,-13,-18,-18,-5,-13
17595,2,-1,-10,50,2,-54,-3,7
17600,1,-3,-9,-24,-20,0,2,-5
17605,-2,-3,-14,-4,14,8,-1,29
17610,-5,3,9,5,-15,-1,3,-28
17615,2,0,-1,-18,10,17,-3,11
17620,-5,-1,2,1,-7,5,1,-13
17625,5,-3,1,4,0,-19,2,8
17630,-1,8,-4,1,11,4,2,-18
17635,-17,-12,0,-9,23,20,-2,-3
17640,-2,1,-3,-28,-37,-52,0,-17
17645,44,4,-12,4,0,16,5,73
17650,-7,-4,6,6,-8,2,-5,-15
17655,-9,3,5,-3,1,1,-1,9
17660,2,1,-5,-11,-12,-4,0,-7
17665,-22,-4,-4,15,13,15,3,-30
17670,4,-5,-6,-1,-9,-9,-3,15
17675,6,2,20,-12,-34,-36,-4,-2
17680,-7,0,6,62,11,21,-1,20
17685,0,-2,-16,-52,-3,-34,-7,-27
17690,3,0,-12,1,12,17,2,16
17695,4,-1,-4,-17,-10,3,3,-11
17700,0,-5,3,8,18,3,-4,-19
17705,-3,2,12,3,3,8,-4,16
17710,-9,-4,-3,8,4,-40,-5,-2
17715,-3,-4,-6,-7,-3,5,-3,-22
17720,20,5,19,-29,-19,-22,2,36
17725,-18,-8,-14,16,1,-2,-3,-26
17730,20,5,10,-10,13,61,8,-7
17735,4,3,-1,5,-4,-6,0,35
17740,-8,-4,6,-11,-10,-16,-5,-10
17745,-10,-1,12,24,-3,1,-2,-30
17750,-7,-5,-14,5,-3,10,-5,23
17755,4,-2,4,-1,18,28,9,-1
17760,12,11,-20,2,7,6,-6,-4
17765,-2,-5,0,-37,-8,27,7,-2
17770,-14,-5,-8,3,-5,-20,-6,15
17775,19,9,9,65,-1,2,1,15
17780,-13,-12,-18,-52,-4,-1,-6,-16
17785,4,4,-4,-1,0,-8,-1,-1
17790,-15,-5,3,0,8,20,1,-32
17795,-3,0,-4,3,-6,-32,-3,15
17800,2,1,-1,-32,-5,-8,-2,11
17805,-6,0,-3,-2,5,19,0,-6
17810,4,-3,-5,13,6,9,2,-4
17815,15,1,-12,-15,5,-6,2,21
17820,6,-2,-4,18,7,8,-1,-22
17825,-1,0,-7,-13,1,7,1,5
17830,-10,4,7,20,0,-24,2,-29
17835,-10,-3,3,-11,3,5,-6,-13
17840,3,3,12,24,9,29,0,16
17845,-6,-6,-6,-30,-20,-17,-2,-2
17850,6,1,2,5,0,14,-3,-7
17855,-17,-5,-10,-19,0,4,-1,-34
17860,-3,-1,5,6,4,22,-1,31
17865,2,2,-5,-13,-10,-45,-4,6
17870,-9,1,13,-11,1,-6,0,-17
17875,-15,-5,-9,2,2,14,1,18
17880,12,1,11,-47,-1,7,0,6
17885,3,3,-12,14,4,2,-3,-2
17890,-4,-6,5,-5,-4,-9,-2,24
17895,-11,-6,-14,-10,-3,-7,2,-37
17900,7,6,7,48,27,25,1,4
17905,6,6,18,29,-6,-7,-3,11
17910,-1,-11,-13,-8,-5,8,-3,-9
17915,-5,3,8,17,4,-2,0,-30
17920,-12,-6,-2,-25,-20,-28,-2,20
17925,-1,-2,-8,-7,-3,4,-2,-13
17930,7,0,4,0,11,-3,-1,17
17935,3,1,0,6,3,13,1,-4
17940,-2,2,-5,11,-2,-21,-1,1
17945,-8,-4,15,17,-2,10,-4,-16
17950,-22,-4,-5,-12,6,6,0,-5
17955,24,1,6,7,-22,-12,-2,57
17960,-12,0,-20,-6,4,-12,2,3
17965,19,1,20,9,-13,-4,-2,-9
17970,-10,-4,-31,-30,-11,-7,-1,-20
17975,0,2,5,28,26,34,0,15
17980,-3,-1,3,2,-13,-12,-1,-20
17985,-10,-3,-11,-17,15,8,-3,-7
17990,9,4,16,-29,-27,-30,2,16
17995,0,-3,-9,-20,-8,-8,-4,-4
18000,-10,-5,-16,26,18,25,0,-12
18005,0,1,4,-55,-10,-33,1,-2
18010,9,5,12,28,10,17,-6,-8
18015,-22,-2,-2,-22,-13,-17,-2,-51
18020,30,8,24,9,29,-5,7,65
18025,-2,-8,-4,-36,-16,3,-1,-31
18030,3,7,-11,44,-3,38,4,7
18035,3,-1,15,-15,14,-38,-5,17
18040,-18,-1,-13,7,-9,11,3,-56
18045,12,-1,2,10,4,2,-2,18
18050,8,0,6,-23,0,-16,0,11
18055,-6,2,-6,-25,1,20,-5,-16
18060,-9,-4,0,6,-3,-1,4,-9
18065,-7,0,-8,11,7,-6,-1,45
18070,-2,-3,-2,-14,-14,-21,-7,-57
18075,20,4,6,26,12,2,-1,46
18080,-6,-6,-9,-7,-21,-7,-2,-19
18085,-2,-7,2,1,19,10,2,22
18090,17,13,1,11,-6,-22,-3,-9
18095,-13,-3,6,11,-3,1,0,-3
18100,2,-2,-17,-61,-13,4,-6,-11
18105,-6,0,5,40,-5,-11,-4,-10
18110,-9,-7,15,-7,0,16,5,12
18115,-4,-5,-21,-14,3,13,-1,-8
18120,-6,-7,-17,-6,-14,-56,-10,-13
18125,-7,4,0,-14,-2,-7,1,-23
18130,29,4,15,7,6,22,4,65
18135,-4,-2,-3,-1,5,9,1,-3
18140,-1,-3,13,9,-5,3,-6,-17
18145,6,-2,-16,-7,7,2,0,-15
18150,-13,2,-4,-8,-1,-17,-1,20
18155,7,-2,1,3,4,3,6,1
18160,-5,-6,-6,29,1,13,-12,-5
18165,4,6,6,20,-9,11,0,29
18170,-8,-8,-11,-34,9,4,2,-25
18175,11,1,-4,-5,-22,0,-1,13
18180,-9,-1,2,11,8,19,2,-2
18185,5,2,-3,2,-3,-7,-3,0
18190,-1,-1,0,-11,2,22,-2,-5
18195,-17,-6,-1,14,-24,-11,-2,4
18200,19,2,0,4,15,20,3,8
18205,-13,-3,-5,-13,-4,-6,0,-9
18210,-6,-3,-14,-8,8,-21,1,14
18215,13,6,2,3,2,0,-7,-45
18220,-11,5,20,16,4,11,2,-50
18225,4,-3,-8,-9,-4,7,2,71
18230,-14,-11,-5,2,-10,2,2,-17
18235,5,0,-4,15,21,-59,-1,23
18240,-7,3,-7,-19,-21,-14,-2,-14
18245,16,-1,-33,-7,-9,2,-4,-8
18250,-12,1,69,9,3,-11,-4,-22
18255,-5,-12,-17,-6,13,46,9,20
18260,2,0,-2,4,-13,-31,2,4
18265,1,0,2,-1,-30,-31,-5,10
18270,-3,-2,-11,-6,-15,-13,-4,0
18275,-8,1,12,17,2,11,-6,-22
18280,-7,-4,-3,-42,-1,6,2,18
18285,0,-3,16,59,25,17,-4,-50
18290,15,3,-9,11,4,4,6,38
18295,3,-9,-1,-23,-10,4,-5,2
18300,5,12,0,-1,4,-23,0,20
18305,-21,-4,3,-19,5,3,-2,-40
18310,-5,-3,-12,13,6,-3,-1,-5
18315,2,5,15,-17,1,-7,1,-4
18320,-7,-9,0,2,5,-14,-1,2
18325,0,-3,-15,-9,-3,23,3,9
18330,10,5,-6,3,16,8,-1,-4
18335,-6,-3,-9,-6,-17,-2,-2,7
18340,6,-1,4,16,9,-10,-3,-3
18345,-18,-2,27,-23,-12,-5,-1,-35
18350,2,-5,-26,12,-2,8,-8,28
18355,10,2,3,9,0,2,6,-17
18360,-8,3,-7,3,4,5,0,7
18365,11,5,36,30,2,-18,-2,-22
18370,-12,-10,-20,1,13,22,4,22
18375,12,4,-9,-6,-9,-12,-5,-2
18380,-5,-6,-8,-11,-16,37,1,-17
18385,-1,0,-12,-20,6,-23,-3,26
18390,7,1,7,6,-18,-7,-5,-18
18395,-8,-1,-11,-27,21,11,1,8
18400,0,-5,-8,40,-7,5,8,21
18405,18,5,-3,-5,-20,-32,-8,-8
18410,-4,-4,-5,-66,14,2,-4,-5
18415,-9,-1,-10,-1,-20,5,0,-32
18420,17,4,-5,-33,1,-16,-5,13
18425,-18,-9,-25,1,25,17,6,20
18430,39,8,-3,22,-13,-15,5,24
18435,-8,-5,-4,-15,7,13,-6,-12
18440,-3,7,10,7,-11,9,0,-7
18445,-2,-3,8,17,-11,2,1,12
18450,-12,-4,-2,-3,17,11,-3,-5
18455,-3,-2,10,5,-11,-5,0,-15
18460,8,3,12,11,6,-5,0,16
18465,1,-1,-24,2,13,-24,-1,7
18470,-10,-4,17,58,-1,7,0,-10
18475,1,-2,-10,-28,3,-31,-2,17
18480,-2,-5,21,-5,-11,2,-4,4
18485,20,8,-1,-8,-9,5,5,-7
18490,-6,-1,11,16,7,-29,1,18
18495,8,8,-11,30,-2,25,-8,-38
18500,-1,-4,-6,-2,-11,-24,-3,25
18505,-18,-3,20,8,11,32,0,-31
18510,-3,-6,-8,-15,-9,-28,2,1
18515,-5,0,-1,-18,-21,-46,-2,-15
18520,3,3,26,6,8,18,2,16
18525,-9,-7,-18,3,19,46,6,-23
18530,-24,-4,-2,-11,-5,-16,-5,-3
18535,30,3,-14,-25,-5,7,0,52
18540,14,4,6,0,2,0,4,-37
18545,6,-3,9,13,-11,-7,0,19
18550,-16,9,9,-28,-12,22,-4,-13
18555,-6,-9,-25,1,-9,-27,-2,7
18560,-16,-8,7,32,6,-11,2,-27
18565,5,6,8,-5,4,23,-2,24
18570,-4,-5,-17,8,-6,-24,-11,-20
18575,1,8,23,-2,-3,-3,-1,16
18580,2,-1,-19,0,20,10,4,-11
18585,-5,-2,9,-9,6,-2,2,23
18590,-8,1,9,3,-13,12,1,15
18595,-16,-11,-11,14,-1,-10,-5,-46
18600,14,1,26,8,11,-2,-1,23
18605,0,-1,-36,-72,-4,8,-7,4
18610,3,-1,-15,47,14,11,4,-8
18615,-2,3,17,4,4,-2,-2,-7
18620,-15,-6,-21,-17,7,7,7,-8
18625,25,4,11,9,-17,-37,-16,1
18630,5,3,-20,-10,-3,-12,1,-8
18635,-12,-4,17,15,18,25,6,11
18640,-7,-6,-18,4,-2,-8,-9,-2
18645,-3,-1,0,16,-18,-24,0,12
18650,1,-1,-2,-21,9,16,10,-44
18655,2,3,3,8,3,16,-2,4
18660,-8,-3,-2,-8,6,5,-1,-4
18665,-12,-4,7,16,0,3,0,4
18670,9,1,6,-5,5,5,-2,10
18675,-20,-2,16,-9,-3,6,-4,4
18680,34,6,-21,28,23,16,9,7
18685,-29,-10,-17,-36,-27,2,-3,-64
18690,30,6,1,13,-2,-6,-4,50
18695,-18,-10,36,-9,-13,-16,0,21
18700,2,8,-11,-2,-1,7,-5,-21
18705,3,0,12,15,14,12,4,19
18710,-4,-6,-8,-5,-7,-10,0,9
18715,7,-1,-6,8,-2,9,0,-20
18720,-17,-3,7,-13,-28,-21,-9,-8
18725,-17,-3,3,-61,19,7,6,-4
18730,11,2,-5,0,5,19,0,-5
18735,3,0,-2,53,8,28,4,35
18740,4,5,1,5,-4,-25,-2,14
18745,7,4,2,6,5,25,0,1
18750,-7,-5,-7,-43,-6,-30,-3,-47
18755,-1,1,-19,13,-16,-44,1,20
18760,-15,-5,5,-10,2,46,-6,-9
18765,16,5,11,49,-4,-37,1,11
18770,12,4,7,10,0,14,3,-6
18775,1,1,-10,-11,8,-10,0,-6
18780,-7,-5,-8,-8,-12,6,1,3
18785,3,3,8,2,-6,-17,-2,7
18790,-20,-7,5,-18,-8,3,-1,-10
18795,11,7,-9,-22,9,0,-2,-20
18800,12,-12,-12,-2,-2,-7,1,34
18805,-23,6,-17,8,25,39,5,-30
18810,18,3,-6,-10,-17,-21,-7,29
18815,2,-3,-8,-12,19,22,2,7
18820,4,0,5,-9,-2,-4,-4,-9
18825,-2,-8,-22,-14,-17,-17,-6,-22
18830,-20,-5,1,6,-14,-11,1,-2
18835,-8,0,-2,-15,-3,-9,-2,-3
18840,-8,-2,7,7,-5,-3,2,9
18845,27,4,-11,27,15,20,2,30
18850,-8,-11,-3,7,-7,-29,-7,5
18855,9,6,-19,-20,-10,3,-2,-22
18860,-3,0,1,-8,-10,-4,3,-5
18865,-6,-4,-10,-28,7,-12,-5,7
18870,-9,1,4,29,0,13,-2,10
18875,5,2,20,41,1,1,0,-75
18880,15,4,-10,-10,13,13,2,64
18885,-5,-8,4,15,-24,-1,-3,-3
18890,-1,-5,-9,-43,24,8,-6,-13
18895,-10,-4,8,21,-6,-3,2,2
18900,-4,5,1,-20,16,20,-1,-23
18905,-2,-1,9,19,-27,-36,-2,6
18910,0,1,5,24,2,7,5,-19
18915,-2,-3,-19,-8,0,6,2,38
18920,3,1,0,-5,2,13,2,-9
18925,8,-7,1,-6,15,6,4,41
18930,11,12,4,5,-1,11,-5,-46
18935,-10,-3,3,-19,-6,-36,-2,24
18940,-5,-1,-9,17,-17,-12,-5,-46
18945,-9,-7,-9,4,5,-21,1,-17
18950,0,2,10,10,-7,-7,-2,25
18955,11,6,21,-26,35,22,-2,28
18960,8,-5,-19,16,3,-4,8,6
18965,-12,0,5,-3,0,10,-1,-38
18970,-24,-4,16,-7,-6,2,2,-34
18975,14,-1,-7,44,3,-2,-2,42
18980,-1,0,-4,-6,-16,-2,-4,-2
18985,4,1,4,3,0,10,-2,3
18990,10,-2,-11,0,5,-40,1,-9
18995,-22,-5,4,-12,-31,12,-3,-23
19000,0,-3,12,1,-5,6,-8,7
19005,17,5,-4,9,6,21,0,-17
19010,9,6,-7,18,10,14,1,37
19015,-1,-6,-16,-18,-20,-33,2,-12
19020,-11,-7,14,13,7,3,2,-12
19025,-19,-2,-5,-13,2,-10,-5,-8
19030,-6,-7,-1,-37,-29,21,-4,-8
19035,-2,-1,-9,25,16,6,0,-15
19040,1,0,-13,-58,6,11,3,12
19045,7,1,-4,-22,-12,-19,-3,26
19050,-10,-2,14,24,-5,-7,-3,-28
19055,30,8,9,5,12,31,5,15
19060,-17,-2,7,-1,-17,-34,0,-2
19065,-12,-7,7,6,11,20,-3,-5
19070,-6,6,2,-14,5,-7,1,-11
19075,-1,-2,-11,4,-6,-21,-4,25
19080,19,9,-3,25,12,4,2,-9
19085,-2,1,1,-27,3,22,3,9
19090,-2,-9,-18,-17,-16,-23,3,11
19095,-19,-4,-9,1,7,8,1,-39
19100,15,2,-5,4,3,-15,-4,15
19105,-6,-3,7,2,-23,29,3,13
19110,23,1,-8,-27,10,-6,-6,-2
19115,-30,-9,8,-1,2,19,-3,-7
19120,8,-3,-7,-5,-35,-53,-1,-10
19125,4,-1,6,17,-1,14,-8,-4
19130,-11,-2,9,-30,20,10,4,12
19135,12,8,-5,-7,4,4,-1,9
19140,-10,-4,1,0,8,17,-1,-9
19145,1,3,12,-20,-9,-30,-1,-23
19150,11,-6,-17,47,4,17,2,-4
19155,-3,-5,-4,-24,-11,-21,-8,24
19160,-10,2,-2,-4,4,11,4,-22
19165,-7,0,-2,7,-2,-21,0,19
19170,7,-2,4,-9,5,5,-6,-25
19175,1,-3,8,4,5,9,2,-1
19180,-10,0,11,3,-28,-6,-5,8
19185,5,-1,-21,8,16,-11,0,4
19190,-20,-3,-13,3,-16,-2,3,15
19195,25,7,2,-4,1,21,4,-4
19200,10,6,13,6,-2,-17,-6,18
19205,-9,-6,16,-34,20,-5,-5,-13
19210,-1,1,-33,25,-11,-16,1,5
19215,2,-1,-2,2,-1,-12,-1,-10
19220,-18,-8,1,-1,-4,-28,-3,-9
19225,17,5,-8,2,-6,8,4,7
19230,-8,-2,19,28,11,22,-2,-2
19235,-36,-13,-8,-42,-8,-13,-7,-27
19240,38,8,19,50,8,14,7,21
19245,-4,-7,-20,-1,0,-17,-5,18
19250,7,9,8,2,0,0,-1,6
19255,0,-1,-5,-4,-6,10,-1,-37
19260,-22,-3,-9,-32,2,13,-6,-5
19265,-4,-4,19,19,-22,-31,0,6
19270,11,7,13,-18,16,12,11,-9
19275,9,3,1,39,4,23,-4,19
19280,-14,-9,-21,-32,-3,-23,3,-20
19285,8,5,-5,-1,-2,6,-3,-5
19290,-18,-5,0,-11,-5,2,-3,-4
19295,-9,-8,38,16,9,22,0,-44
19300,-6,-3,-27,49,25,15,-6,48
19305,22,11,-9,15,-3,22,8,5
19310,7,0,-4,-23,5,-11,-2,-2
19315,-7,-1,19,-31,-19,10,1,8
19320,-27,-13,-30,-19,18,18,-13,-37
19325,14,10,7,12,-11,-4,3,18
19330,3,-4,-11,14,9,18,0,-3
19335,4,-3,-19,1,12,-15,5,22
19340,-6,1,28,16,-23,-15,3,-2
19345,-16,-5,-13,-1,1,-11,-7,-26
19350,5,1,7,-13,-5,8,-3,5
19355,8,2,-7,7,-6,-21,-1,-6
19360,-10,-5,-2,-19,11,3,2,40
19365,34,8,27,28,8,-6,-3,12
19370,-22,-10,-1,30,-7,-12,-2,-39
19375,22,12,-38,-39,-1,20,1,20
19380,6,5,-1,-6,8,31,3,-19
19385,-21,-9,-7,-32,10,6,-4,-28
19390,-8,0,-4,15,-13,-33,0,4
19395,7,-4,3,29,15,24,3,0
19400,-3,-5,-3,-44,-9,-18,-5,-10
19405,6,3,-1,12,-2,23,5,12
19410,-13,-1,-5,-10,1,-16,-7,-6
19415,17,3,-10,-16,-2,2,3,-16
19420,19,2,9,34,10,-10,-2,47
19425,-11,-5,22,23,-17,-15,-4,-18
19430,4,-1,-3,-50,1,19,-2,23
19435,-10,-1,1,14,-9,-23,5,-19
19440,-9,2,-8,-27,-2,2,-6,-39
19445,0,-4,6,9,3,11,4,16
19450,1,-11,-10,19,-10,23,-8,4
19455,-19,-2,-1,-6,1,-47,-9,-39
19460,27,6,9,-31,-12,11,5,41
19465,-19,-5,-4,21,15,14,4,7
19470,28,8,-10,-6,-5,-19,1,0
19475,-3,2,12,23,12,-12,-2,48
19480,-3,-13,12,-7,4,-18,-7,-24
19485,-5,7,-23,-21,-14,-15,3,2
19490,-15,-1,8,30,12,2,-9,-41
19495,7,-4,-1,10,4,13,9,26
19500,-20,-2,-7,6,-23,-8,-7,-33
19505,6,-6,10,-21,3,-11,4,29
19510,7,-1,-1,-4,-15,18,2,-5
19515,-20,0,7,-2,-15,-42,-11,-38
19520,16,5,5,-10,-9,-18,0,32
19525,-3,-6,-13,-6,7,11,-1,-13
19530,-5,-1,8,2,-6,-15,2,13
19535,-9,-6,-8,-10,11,23,-3,13
19540,-2,4,4,13,29,34,7,-51
19545,22,0,-26,-17,-38,-51,-8,33
19550,0,2,6,7,28,12,4,-3
19555,9,2,5,-7,-25,-7,-1,37
19560,-13,-1,-22,-25,6,-7,2,-36
19565,4,0,-5,19,14,33,0,-41
19570,-11,4,-1,-2,14,22,-1,25
19575,9,0,-8,-11,-23,-13,-5,35
19580,-2,-8,-2,31,-5,2,1,3
19585,-20,-6,0,-7,-11,4,0,-3
19590,10,-1,0,-12,-1,-10,-5,12
19595,-3,1,6,35,5,12,-3,-14
19600,3,3,10,-2,15,-13,-6,27
19605,1,0,-19,-22,-13,-21,0,-15
19610,-6,-1,-1,38,13,3,-2,20
19615,-1,-4,-2,-24,-2,42,-1,-10
19620,1,-5,3,6,-3,-25,1,4
19625,2,-1,11,4,11,-13,-7,16
19630,-8,3,2,-31,2,4,0,-4
19635,-5,-3,-10,6,-7,-7,-4,-2
19640,11,1,21,29,-3,4,4,26
19645,-13,-3,-11,17,8,15,-5,-35
19650,21,4,1,-4,-6,31,2,-6
19655,-17,-3,-1,-16,10,-13,-7,-8
19660,-20,-2,2,9,25,15,2,-19
19665,12,2,16,-26,-34,-27,-3,45
19670,-4,-3,-4,5,26,34,12,-2
19675,12,2,0,11,-32,-52,-6,-6
19680,5,4,0,-8,3,25,2,6
19685,-23,0,13,0,11,-22,-5,-29
19690,14,2,21,-2,-9,15,-4,21
19695,-6,-4,8,21,4,2,3,-22
19700,2,-2,-24,-25,-3,10,-2,10
19705,4,0,8,6,-5,22,2,-15
19710,-11,-5,-12,5,-14,-27,-3,-1
19715,4,1,11,20,8,-30,7,6
19720,-8,9,-4,-10,-20,30,-4,-22
19725,-10,-5,-4,-28,11,36,2,-25
19730,13,2,-29,-28,12,-50,3,40
19735,10,-4,-8,10,31,42,-3,-3
19740,-13,-5,-21,-11,-29,-48,-6,-8
19745,1,3,-8,-6,-10,-5,-5,-9
19750,-13,-5,28,22,-6,-6,0,-10
19755,-5,6,1,-27,17,10,2,7
19760,15,-1,1,-26,-5,-2,-7,3
19765,-5,-2,-9,-5,8,23,6,30
19770,-12,-5,-2,17,6,-28,-6,-45
19775,7,2,-5,-23,-15,1,4,1
19780,2,0,18,46,6,-35,-3,1
19785,-2,2,-4,-10,0,-4,-1,9
19790,8,-7,-5,-22,-14,-10,0,-4
19795,-20,7,-10,-18,-15,0,-7,-11
19800,21,0,1,18,5,45,4,6
19805,1,-5,-11,-1,2,-45,1,25
19810,-1,1,10,0,-14,-3,-4,-27
19815,-9,-4,-22,3,-1,16,-3,-47
19820,3,1,17,18,5,-7,1,52
19825,7,-1,6,6,4,1,-8,-3
19830,-10,-6,-6,-52,-31,9,-2,1
19835,17,1,5,38,22,18,3,11
19840,-17,-2,-19,-5,-15,26,2,-13
19845,18,0,1,6,12,-48,-3,-11
19850,-3,2,6,2,-3,1,-2,3
19855,-13,-3,20,-6,-18,3,-4,-17
19860,-11,-4,-7,-18,15,-6,-1,8
19865,6,0,-5,13,-3,7,-2,-1
19870,-8,-8,-1,-4,0,24,5,5
19875,18,7,-7,6,2,-16,1,17
19880,-15,-6,1,-6,-12,-21,-5,-42
19885,4,3,0,-11,6,-1,-3,22
19890,15,9,-6,16,-6,4,8,8
19895,-5,-9,2,-9,-5,11,0,6
19900,10,1,2,11,-29,-2,-5,20
19905,-2,1,-2,-20,21,12,2,-15
19910,-15,-3,-2,11,-8,8,-5,-15
19915,-6,-3,-10,1,8,-34,0,24
19920,20,5,43,-29,-7,3,3,-35
19925,-16,-4,17,50,-5,15,0,14
19930,14,-1,-13,7,24,21,0,1
19935,-7,-4,5,-17,-15,-38,-8,-14
19940,-4,2,5,11,18,5,-2,-5
19945,-4,-3,-8,0,-4,-12,-2,-15
19950,-24,-7,3,-4,6,-1,-1,-35
19955,5,-9,-8,11,-8,5,-4,44
19960,18,9,-24,-14,-14,2,4,-13
19965,9,2,36,7,4,27,-1,-23
19970,-4,-1,-29,-35,-22,-1,4,16
19975,12,6,10,12,-6,-14,1,11
19980,-16,-10,-1,17,13,9,0,1
19985,5,1,-13,1,-11,7,1,-25
19990,-20,-6,9,25,-2,4,-5,-2
19995,16,3,-2,-41,-11,-25,-2,-10
20000,6,-1,-7,-5,6,-6,-1,25
20005,-11,0,-1,4,3,-4,0,-8
20010,4,0,10,12,8,-11,-4,6
20015,-5,-1,-5,6,-6,34,4,0
20020,0,-4,5,25,12,-25,-2,-3
20025,-19,-6,-29,-11,11,52,-1,-22
20030,5,4,31,8,-19,-68,3,31
20035,-2,-2,-21,-8,21,18,-9,-21
20040,12,2,-4,5,1,-18,5,13
20045,14,-4,3,-9,-2,0,-2,19
20050,4,13,-4,6,-1,10,2,-3
20055,-5,-4,20,-2,-13,-12,-1,-22
20060,-9,-1,-2,-29,2,20,-1,13
20065,-36,-9,5,18,-22,-74,-5,-50
20070,43,2,-6,29,15,16,0,68
20075,13,10,9,-5,3,15,7,18
20080,-11,-5,-18,-9,1,4,1,11
20085,-6,2,8,-12,-17,1,-5,-30
20090,-14,-6,-4,-11,3,4,-3,-20
20095,-8,-6,9,10,-6,33,-4,9
20100,-5,-2,11,12,14,-10,-2,-19
20105,-31,-6,-21,-18,1,2,5,-19
20110,48,7,12,30,-20,-39,-2,19
20115,23,4,-4,17,27,42,7,12
20120,1,5,-17,-10,-30,-13,-1,-16
20125,-7,-6,10,-11,7,13,-2,8
20130,-14,-9,-10,-9,25,-17,-5,-7
20135,-11,-5,-2,-35,-30,-8,1,-15
20140,-8,-3,9,52,7,5,-4,-25
20145,6,6,-6,-35,0,-1,3,5
20150,-1,-6,13,33,10,22,-6,29
20155,11,2,5,6,-9,-9,-1,20
20160,1,-3,-20,-31,-4,-3,-1,27
20165,-1,1,-26,-30,0,41,6,-19
20170,1,6,-6,-5,-4,-30,-5,-14
20175,-18,-6,1,33,7,-10,0,-22
20180,-2,0,8,-6,-23,5,-4,-6
20185,5,2,0,26,-3,9,1,32
20190,-31,-9,-13,-70,15,-34,-14,-43
20195,2,-2,-11,-5,4,10,13,5
20200,7,5,-3,19,-7,-36,-2,-45
20205,30,2,3,7,-6,-3,0,86
20210,-10,14,11,-10,3,15,3,-39
20215,-7,-3,-2,2,12,-9,-3,18
20220,-8,-7,-6,-20,7,2,-1,-26
20225,3,1,5,6,-17,-12,1,-9
20230,-10,-6,-2,-6,-19,5,-2,6
20235,0,0,-4,-6,8,10,-1,-19
20240,-17,-4,12,23,-1,2,-1,-11
20245,6,4,15,-55,-22,-69,-12,48
20250,14,1,14,39,40,33,9,0
20255,5,-4,2,22,-12,7,-1,-3
20260,16,-1,-8,19,23,10,-2,19
20265,-17,-5,5,8,-7,-21,-6,-19
20270,-10,0,-1,-13,-13,5,-2,-15
20275,-5,-4,2,-20,-4,-13,-5,3
20280,-7,8,5,-11,-1,12,0,0
20285,-20,-5,-1,16,-1,12,4,-38
20290,35,11,-9,-27,9,14,2,64
20295,-10,-5,-4,39,5,-18,-8,-30
20300,-9,-6,-3,-93,-26,-35,-5,20
20305,13,-3,-27,23,2,-4,7,-16
20310,-9,-6,-11,-8,6,14,0,-15
20315,2,1,25,-3,-12,-18,-4,29
20320,-1,-2,9,16,17,30,0,-23
20325,11,5,4,6,23,-6,-1,-24
20330,-6,-6,-2,3,-31,6,-4,12
20335,-2,2,1,-28,5,3,4,-3
20340,-9,-2,-7,-1,-19,-6,-4,-11
20345,2,-4,3,22,24,27,1,-6
20350,7,-2,-12,0,-12,-10,-1,22
20355,-7,0,0,-4,4,-7,0,-3
20360,-10,-6,-10,10,4,10,-1,15
20365,7,0,-10,-32,8,2,-2,2
20370,1,0,-16,-8,2,-11,-2,-23
20375,-7,5,-5,16,-1,-5,0,3
20380,8,-8,-3,16,0,7,1,18
20385,-3,0,6,6,-6,-1,-2,6
20390,-11,-4,-1,-15,-17,-3,-1,-30
20395,11,1,-9,-9,7,-2,-2,4
20400,2,4,8,19,17,24,1,-4
20405,0,0,-1,4,-12,-7,-4,-11
20410,-7,-3,0,7,-12,8,1,-5
20415,0,-3,-10,-9,4,-2,2,4
20420,-5,-4,3,-8,2,3,0,11
20425,-1,-1,3,-13,2,7,-6,6
20430,-10,-3,-6,47,-3,-20,-4,-35
20435,-11,-6,1,-51,-9,13,-3,5
20440,24,5,1,13,-6,-6,4,15
20445,-1,-4,-9,13,8,12,4,8
20450,-8,-1,6,6,6,4,3,-23
20455,-9,3,4,-1,-18,-35,-15,9
20460,-2,-4,3,-7,-1,13,8,-4
20465,21,11,2,1,-2,-13,4,16
20470,-8,-3,13,2,-8,-6,-2,12
20475,8,-3,-12,-9,34,16,1,-23
20480,-6,2,3,4,-33,2,-1,2
20485,-1,-2,10,11,2,-34,-9,-29
20490,1,-1,-14,-13,0,10,4,21
20495,4,1,9,3,5,-3,-1,-2
20500,6,-2,-10,2,6,-23,-4,10
20505,-8,-2,-1,2,5,13,1,24
20510,-3,-2,1,-6,-4,7,-2,5
20515,-1,-1,-3,-15,-30,-10,-4,-24
20520,-1,2,11,3,15,17,3,11
20525,-3,0,0,15,6,2,-5,-32
20530,-10,-6,-1,-20,-26,-40,-9,34
20535,14,7,2,-20,3,-5,5,-24
20540,3,-3,-2,57,16,-16,-5,12
20545,-1,0,-18,-28,-4,33,6,25
20550,6,-1,-8,-3,11,14,-1,-24
20555,-11,-3,8,-11,-27,-19,2,1
20560,-7,1,2,1,-13,-21,-2,-7
20565,4,-2,-8,-31,4,4,-6,4
20570,5,-1,-17,-12,-6,-5,0,11
20575,-5,-2,-17,-5,9,10,4,-20
20580,21,4,28,-2,1,8,-1,34
20585,-9,-6,-1,2,-31,-30,-6,16
20590,-11,-5,12,16,15,9,7,3
20595,26,19,-3,13,-6,10,4,7
20600,-17,-4,-11,-43,1,16,-2,-58
20605,-7,-4,2,18,4,-24,-1,37
20610,5,-1,-6,5,7,6,-1,-2
20615,-6,-3,13,41,17,16,-1,-7
20620,-9,-6,-18,-55,-17,-41,-3,-4
20625,-5,-3,-3,7,3,10,0,-24
20630,15,8,-16,1,-2,-12,3,19
20635,-14,-5,13,2,-4,35,3,9
20640,3,-3,-7,-1,13,-52,-8,-2
20645,-2,-1,5,-8,-5,-6,2,-13
20650,-8,-4,-1,6,-15,2,-4,-26
20655,1,-3,0,-2,-6,-3,-1,28
20660,-10,8,2,2,-30,-24,0,-30
20665,6,0,13,18,18,5,-1,38
20670,8,5,3,-9,7,17,4,-20
20675,-10,-8,-15,1,1,-3,-7,9
20680,-3,-4,-2,1,14,20,-1,-25
20685,-7,4,5,17,-10,4,1,1
20690,0,1,9,-13,8,-4,-4,-11
20695,-1,-4,7,19,0,-8,-1,-13
20700,-4,-2,-11,-10,2,23,-1,11
20705,17,6,2,1,3,11,4,-8
20710,-6,-5,7,-7,-13,-7,-6,10
20715,-7,-3,-4,0,12,-4,0,-5
20720,-9,-1,21,19,-8,29,1,-15
20725,0,-4,1,4,8,17,-3,9
20730,20,6,5,-5,1,-15,0,7
20735,24,1,7,-3,-12,-2,3,26
20740,0,-1,-14,9,9,6,1,13
20745,-13,-9,19,-43,-6,20,-3,-18
20750,-12,1,1,47,2,4,4,-32
20755,16,1,-3,0,6,13,-4,15
20760,8,-3,-4,-2,-8,-33,1,33
20765,0,2,-14,4,-2,34,0,-33
20770,-8,-2,1,-29,5,-14,-3,-2
20775,-18,-7,4,8,-1,-8,-1,-3
20780,3,3,-10,13,14,19,0,-7
20785,-3,-4,-22,-15,17,-25,2,-6
