time,emg1,emg2,emg3,emg4,emg5,emg6,emg7,emg8,hand,pose,orientation,testPerson
0,6,0,-2,1,17,-11,5,15,1,1,45,BueBaby!
5,17,3,-12,-2,-9,-7,-1,-21
10,11,3,6,-12,-17,-4,-2,33
15,-18,-3,4,16,8,12,-5,-30
20,3,0,-1,-21,0,15,3,-18
25,-2,-2,-8,-6,-6,-7,1,6
30,-8,2,7,19,26,9,-1,-12
35,2,-4,-8,10,-16,-8,-2,16
40,-15,-2,22,6,-8,10,-1,-52
45,0,1,18,34,24,24,0,74
50,10,3,-29,-73,-10,-15,6,-40
55,12,-1,-18,11,4,17,0,27
60,-9,-3,9,-1,-2,-6,-6,-6
65,8,0,0,-20,-1,-32,-1,-11
70,-14,-7,6,35,8,29,2,-7
75,8,2,10,-15,13,19,3,17
80,-5,0,6,-9,-10,-1,-6,24
85,-23,-9,-21,14,-10,7,3,-47
90,38,6,16,22,-8,-11,-3,43
95,1,2,-10,-39,4,11,4,-7
100,3,1,10,29,22,49,-1,3
105,-4,-7,-4,0,3,-10,-4,-10
110,3,0,-6,10,7,11,-1,0
115,-4,-4,-13,18,-11,-15,-4,6
120,-4,1,22,2,-2,15,0,-48
125,20,-1,-6,-12,-14,-15,2,52
130,6,4,16,14,14,10,-3,-7
135,-14,0,2,10,-25,-18,5,10
140,10,-2,-34,-80,-2,22,-5,-3
145,-8,-8,-13,21,8,4,-2,-14
150,8,0,1,0,0,0,3,-1
155,-4,-5,-8,-14,8,14,-7,8
160,4,1,-8,-19,7,-21,1,16
165,-12,2,46,47,9,42,-3,-24
170,-10,-4,6,6,-8,-2,-5,-27
175,-4,-6,-46,-37,-43,-30,-1,31
180,9,-2,-13,27,24,19,4,-3
185,-6,-3,-1,-24,-30,-3,-1,-18
190,18,4,28,18,-11,-13,3,75
195,-19,-4,5,29,32,1,-4,-55
200,1,-5,-2,34,-29,-15,0,-3
205,9,5,1,-31,-5,-5,5,-1
210,-13,-7,-14,23,17,9,-4,-23
215,2,-3,31,-18,-20,-8,-2,-22
220,-1,2,7,26,13,-23,-2,35
225,-1,1,-16,36,7,53,0,-9
230,3,5,-12,-34,-12,-25,3,4
235,9,0,13,-7,13,15,-4,15
240,-17,-5,14,43,-5,-3,-4,-8
245,-9,1,16,7,12,1,-3,-9
250,-3,0,-2,7,6,10,6,7
255,11,9,-15,-6,15,9,1,-13
260,-13,-6,48,33,-1,8,-1,7
265,-3,-1,-21,-11,-2,-26,-1,-19
270,9,0,-16,-3,9,17,2,15
275,-11,-4,8,16,14,1,-1,-35
280,1,1,-9,-32,-15,-9,-3,-7
285,1,-3,2,-9,-7,-40,1,10
290,0,-4,-13,-7,-27,-36,-6,6
295,3,2,24,29,-7,40,0,-28
300,-23,-4,-20,-32,0,-43,-9,42
305,16,4,-13,16,5,25,3,10
310,-11,-5,-20,-9,-9,13,1,-23
315,0,0,-4,-21,-8,-30,-2,-5
320,-3,1,-15,4,-11,4,0,-21
325,-13,-2,31,-18,-17,7,-7,-3
330,-12,-6,-13,-34,7,5,-5,-7
335,16,0,-22,20,19,-8,6,32
340,18,4,-15,-18,6,25,2,1
345,-7,-3,-14,-32,-7,-46,-3,14
350,-6,0,27,30,7,20,1,-28
355,11,4,19,-5,-7,-14,-5,15
360,4,-1,3,17,12,7,5,10
365,5,0,15,-26,-3,21,-1,-10
370,-3,-4,-12,-14,23,11,0,3
375,-6,-4,-14,-28,-13,-18,-1,-14
380,7,6,26,75,28,13,2,23
385,4,3,13,-55,-7,-12,-1,-3
390,7,1,-19,28,15,5,2,18
395,11,2,2,-6,-1,13,3,10
400,-10,0,6,-22,-3,-6,-2,-24
405,-8,-4,-2,24,28,26,-6,-16
410,-11,-4,4,-40,-40,-61,-7,5
415,0,0,-6,-1,13,5,2,4
420,9,-5,-7,-8,6,-11,2,-34
425,-4,-1,-17,15,-21,-12,1,62
430,7,2,9,4,7,5,0,-25
435,3,-2,-5,-21,-14,-2,-2,25
440,-8,1,16,-20,17,0,-1,-38
445,-7,-2,14,52,-5,4,-6,9
450,-6,-3,-26,-2,-1,-10,1,-43
455,16,2,-2,10,2,-3,0,73
460,11,3,-3,-8,-3,19,2,-4
465,-2,-3,-26,-10,4,-10,6,3
470,0,4,16,5,4,5,-5,-19
475,-13,2,12,10,22,10,0,-31
480,-9,-8,-5,-19,-13,16,-1,-2
485,10,1,-20,3,-13,-37,0,15
490,-3,-1,-2,-6,-24,-19,1,16
495,-4,-1,4,-14,6,6,0,-43
500,-15,-6,-2,15,-20,2,-5,40
505,7,6,8,16,15,9,-2,-27
510,9,4,14,34,5,26,2,13
515,-1,-3,1,22,-5,-12,-3,7
520,-12,-2,-8,-40,-19,-4,1,-3
525,-1,-2,8,-3,11,3,-3,-29
530,8,-1,19,6,0,2,3,49
535,4,-1,-2,15,5,-13,-3,4
540,2,-3,-15,9,-14,-5,3,12
545,5,-2,-7,-21,-7,-10,-4,-13
550,-3,-1,-7,-23,15,21,-2,-15
555,-25,-8,4,-29,3,-22,0,-25
560,9,3,-6,57,-42,-23,-8,14
565,11,1,-17,15,31,-13,3,3
570,-7,-6,5,-8,-10,-9,-4,8
575,-1,0,-6,-3,-7,15,5,-18
580,-8,1,11,-26,8,7,-3,17
585,-6,-4,9,-29,-2,22,0,10
590,17,2,-17,44,4,-58,-1,-2
595,-5,-1,-8,-10,-2,14,-1,7
600,-2,-2,3,-15,1,3,-1,-34
605,-19,-7,-15,-32,-5,5,-1,3
610,8,2,9,-34,8,9,0,21
615,-2,2,5,7,-14,7,2,14
620,16,9,-18,-31,22,-12,-1,-12
625,-6,-4,-21,7,-5,31,3,-8
630,-4,-7,-15,-1,26,1,-3,-12
635,6,0,4,9,-10,-3,-3,6
640,-2,1,3,3,-1,9,1,-3
645,1,-2,7,-16,17,-13,0,12
650,-14,-4,3,2,-13,32,1,-18
655,13,0,-10,22,10,1,1,16
660,4,-1,9,11,11,-24,-1,-6
665,-5,-3,-13,-6,-9,1,-4,-31
670,-6,-3,0,-24,-15,1,0,8
675,-19,-5,-2,-1,-17,3,-3,-17
680,5,0,20,-17,34,-2,-1,19
685,3,0,-9,64,-19,7,-2,16
690,7,2,-6,-11,-4,4,0,-18
695,-10,-1,32,-5,-9,9,-3,9
700,-6,-9,-9,-2,-3,4,1,-4
705,-15,0,-2,-8,11,-5,-1,1
710,3,3,8,-3,-31,16,-1,-12
715,0,1,-4,-23,0,4,-4,-2
720,12,3,0,54,13,5,-2,-18
725,-4,-4,-1,-13,-5,-3,0,5
730,-6,0,-8,3,2,-30,-3,-5
735,9,2,-4,-20,-5,2,2,26
740,-22,-5,-10,-4,-9,10,-4,-29
745,22,6,12,5,-15,-4,2,17
750,-3,2,1,3,14,-6,-1,9
755,-15,-6,-9,-12,-1,-2,-3,-19
760,12,2,10,-13,4,5,1,22
765,-2,-2,11,-23,1,-5,-1,-15
770,-7,-4,-13,33,20,-18,-3,-3
775,6,-1,2,-5,-1,0,0,-7
780,-16,-7,-12,16,-3,14,2,-10
785,9,3,1,-3,14,-5,-1,12
790,16,2,6,-3,-11,5,-5,-7
795,-2,0,-18,11,11,-24,-2,-4
800,-2,0,4,1,-13,-4,-3,1
805,-17,-3,10,-29,-3,3,1,-2
810,9,-5,-16,4,-13,-11,2,28
815,8,6,5,24,16,7,1,-29
820,19,3,0,-11,-23,11,0,45
825,2,2,6,23,5,-9,-2,-10
830,-8,-4,-24,-69,-22,19,1,-1
835,3,1,-2,45,14,-17,-2,4
840,-8,-4,9,-18,-12,-9,-1,-27
845,-2,-2,-13,-3,-3,11,1,-5
850,-1,2,0,27,-2,-26,-2,3
855,-4,0,-9,-20,-3,3,-1,-9
860,-12,-2,-2,-5,12,-2,0,2
865,-2,-1,7,14,7,-9,0,7
870,34,11,21,-25,-16,-16,-4,1
875,-8,-5,-7,26,-21,7,-1,7
880,4,3,1,2,11,-1,2,-1
885,-11,-8,-11,-20,-23,-15,-5,-4
890,-8,-3,-18,29,24,8,6,-11
895,12,2,-4,-3,1,13,1,10
900,2,0,4,-18,-36,-13,-3,10
905,-3,0,-14,5,9,13,-1,-7
910,-16,-4,8,-11,6,-20,-6,-19
915,-1,-6,-17,-14,-1,-6,-2,12
920,8,1,-11,-9,29,11,1,-9
925,4,0,-2,11,-15,-5,1,-12
930,-9,-4,16,-3,17,13,0,8
935,-4,-1,-3,18,-4,5,1,-3
940,2,0,-11,-21,5,4,3,19
945,4,6,22,16,-1,-38,-2,-32
950,-1,4,35,7,4,35,1,42
955,11,1,-7,2,-4,-44,4,9
960,-1,-3,-8,6,3,14,-1,-9
965,-1,-1,7,-8,-5,11,-2,-12
970,-9,-4,-9,2,3,11,-1,0
975,-15,-4,-12,-70,3,18,-1,-44
980,17,3,16,76,-25,-38,-6,59
985,-3,-3,15,21,9,-15,-2,-5
990,-10,-3,-19,-36,-22,-5,4,-3
995,-7,-2,9,34,11,9,-4,-24
1000,8,-1,-8,-19,5,-3,0,-12
1005,-7,-2,-4,-7,-3,6,-2,-1
1010,-7,-1,8,18,-9,9,1,-6
1015,0,1,21,-18,3,-7,-4,-24
1020,0,-3,-10,-6,-18,-12,2,65
1025,16,-2,-18,1,18,-5,-4,-3
1030,-4,1,-7,-15,17,30,1,-15
1035,7,-1,5,9,-5,-10,-1,-7
1040,-24,-2,12,5,3,29,-1,-26
1045,11,4,4,16,16,-25,0,39
1050,-6,-3,2,11,2,0,-2,-37
1055,-4,-3,-19,-17,-2,9,-3,17
1060,-12,-7,-3,-29,-32,8,-3,-23
1065,4,1,7,32,20,8,6,23
1070,-10,-5,2,17,5,7,-8,-21
1075,-2,-4,10,14,22,-18,-3,20
1080,26,5,-19,-29,-13,-38,1,7
1085,-2,2,8,-34,-20,28,1,13
1090,12,-2,-13,28,2,13,2,11
1095,-7,-2,4,1,-6,-11,2,1
1100,-6,0,3,-5,6,-8,-5,-29
1105,-9,-3,0,-5,-10,13,-4,-18
1110,-4,0,28,-13,10,-14,2,-43
1115,12,-1,-17,18,11,17,0,86
1120,3,2,-8,-13,-7,-36,-4,-9
1125,-12,0,-5,22,-9,13,1,-22
1130,16,3,31,-28,2,23,-2,17
1135,-4,-2,-7,12,-18,-4,0,-10
1140,-5,-1,12,0,27,7,3,-11
1145,-7,-6,-1,-22,-6,-22,1,-6
1150,4,5,-16,-9,-1,-33,0,21
1155,-3,2,15,-7,-33,10,-1,-14
1160,3,-2,3,15,36,4,-2,-5
1165,-9,-4,13,19,-7,6,-2,-17
1170,-11,-4,-20,5,-6,-2,0,-3
1175,12,1,10,12,-1,6,1,8
1180,-25,-5,-12,21,21,11,-5,-23
1185,29,8,-4,-3,-2,4,4,17
1190,-5,-1,4,-17,5,-11,-3,8
1195,-4,-7,4,-25,-31,-31,-6,-7
1200,-9,-2,-7,-4,14,14,2,-24
1205,-3,3,-18,-19,-34,-3,-2,18
1210,-6,-7,-11,18,-23,-6,-2,-11
1215,30,9,-6,-3,33,-20,1,49
1220,0,-4,2,13,-4,-3,0,-9
1225,-4,-4,-2,-17,-9,-11,-3,7
1230,-3,4,8,4,18,17,3,-25
1235,-23,-3,5,23,-20,17,-4,-20
1240,0,0,-9,-5,1,0,2,-3
1245,17,3,-12,5,-8,-7,3,21
1250,-5,-5,-10,0,-14,-14,-2,16
1255,-1,-3,-2,3,13,13,-1,-16
1260,-9,-1,4,-1,-4,0,-2,8
1265,-7,1,-12,-24,3,-2,-1,-29
1270,4,2,17,0,-3,-6,-2,15
1275,-9,-3,11,4,4,11,4,-33
1280,4,-2,-6,2,-12,1,-1,7
1285,-18,-5,8,-6,6,4,-6,19
1290,12,-1,-18,9,-21,-24,2,-1
1295,7,1,-10,2,23,28,1,7
1300,-4,-5,4,-8,-18,-3,-2,-13
1305,-3,0,8,21,29,-4,-2,-22
1310,-16,-3,-3,-14,-5,19,-3,-15
1315,12,1,8,-30,-36,-5,-2,31
1320,1,0,-6,23,20,14,0,-9
1325,11,4,11,17,-7,17,2,20
1330,-3,0,-6,-4,-4,-26,-4,-33
1335,-12,-4,0,-35,13,0,-1,13
1340,9,0,19,5,-9,15,0,-4
1345,-8,-5,-9,-4,-7,-35,1,-30
1350,-10,-3,-4,5,-8,5,-2,15
1355,-14,-4,8,12,11,-11,-3,-13
1360,26,7,3,-4,9,0,2,37
1365,-5,-4,-1,-10,-20,-3,-5,-7
1370,5,-1,-4,-10,1,-32,3,6
1375,0,2,-1,0,-2,-7,0,-20
1380,-15,-1,-3,-7,-2,6,0,-5
1385,3,-1,-7,31,17,19,3,-1
1390,-2,-5,5,-3,-13,-8,-6,-3
1395,4,3,-1,36,17,41,3,10
1400,-5,-3,-16,-51,-22,-63,-5,-10
1405,-5,-4,14,-14,20,10,-1,-6
1410,8,6,-11,23,-27,2,-4,-7
1415,6,0,6,-30,11,-1,-1,33
1420,0,4,19,35,-17,-3,-1,10
1425,11,-1,-8,-18,19,13,3,-16
1430,-3,-8,-12,0,8,-25,-3,2
1435,-24,-3,5,-8,-7,-1,-2,-23
1440,6,3,4,-35,1,-2,3,-22
1445,4,1,7,56,6,0,0,55
1450,2,5,12,15,8,36,5,-17
1455,-16,-10,-22,-24,-21,-32,-6,-39
1460,22,5,-9,-19,5,16,0,5
1465,-16,-2,20,21,-1,-19,-2,-33
1470,16,1,-5,-22,6,5,4,50
1475,15,6,6,20,11,22,-1,-27
1480,-11,-2,-5,4,-3,4,-2,3
1485,-8,-4,2,-76,-20,-1,-9,12
1490,2,1,-1,87,39,1,5,-5
1495,-2,-2,-3,-9,-24,-12,0,5
1500,5,1,8,2,15,-4,-2,20
1505,-2,-1,-1,0,5,8,2,-14
1510,-18,-6,-3,-28,-11,4,-3,-5
1515,15,1,-4,5,4,-18,-1,29
1520,-17,-3,-5,-19,-12,15,-1,-24
1525,10,3,4,57,4,-8,-3,13
1530,-1,-4,-5,-39,-11,5,0,-17
1535,2,0,-2,19,8,-18,-1,-6
1540,-11,-3,-7,13,-10,14,-2,0
1545,2,1,-27,-21,-3,-2,-1,-16
1550,-5,-1,21,-30,13,20,-4,20
1555,4,6,6,27,-22,-12,3,0
1560,-15,-10,-10,-4,-24,-31,-4,-17
1565,11,0,-25,5,-2,9,2,5
1570,2,3,15,0,17,5,-3,-24
1575,-7,-1,-12,-5,5,3,0,23
1580,-8,-1,0,14,17,6,0,7
1585,5,0,-1,-5,-4,-22,-3,-14
1590,4,1,-4,-13,-24,-5,-3,15
1595,0,2,36,7,5,-3,0,-14
1600,1,-4,-26,3,4,2,0,8
1605,-16,-8,-12,-7,3,16,-2,-18
1610,18,8,-1,15,1,1,-2,46
1615,-5,-6,-36,-33,4,34,-3,-38
1620,8,6,6,19,-1,-27,3,5
1625,-5,-2,10,-19,-21,-8,-1,3
1630,-6,-4,-5,-4,4,5,1,0
1635,11,0,-3,10,-9,10,3,22
1640,10,8,0,-19,-18,-11,-1,-36
1645,-11,-6,-10,-19,3,5,-1,17
1650,-3,0,5,18,-4,-3,-3,-44
1655,-10,-4,11,15,13,-14,-3,30
1660,6,-2,-2,-9,30,22,0,-1
1665,1,5,20,1,-34,-1,2,-3
1670,-2,-5,-24,-26,-1,-26,-1,-6
1675,10,0,5,5,8,-6,2,11
1680,-1,1,-3,7,-8,11,-4,-27
1685,13,6,2,26,59,8,4,48
1690,-1,0,21,-12,-45,-13,-2,-32
1695,-17,-6,-25,-11,-15,-15,-2,18
1700,10,0,23,0,10,-24,-6,8
1705,6,-1,-15,-24,-9,-8,-2,-4
1710,0,0,-5,-26,26,7,1,0
1715,-11,-3,-4,31,30,25,2,-44
1720,1,-2,12,2,-53,-14,-2,63
1725,-9,-3,-14,-9,-8,-21,-6,-40
1730,7,-1,-6,8,1,11,0,34
1735,9,1,-1,-26,6,17,-1,-8
1740,-17,-4,1,7,16,21,0,-14
1745,14,4,-5,11,-9,-15,1,17
1750,2,-2,-4,12,1,0,1,27
1755,4,1,-1,-19,-27,-1,1,-37
1760,-5,-2,-9,2,4,8,-3,28
1765,17,4,6,-15,9,7,3,2
1770,-6,-5,-9,14,2,5,-2,-3
1775,-1,0,-1,-5,24,-7,-1,-14
1780,-4,-3,-3,6,-17,-1,0,-3
1785,-13,-6,0,-15,-13,20,-1,-1
1790,1,2,1,5,13,-12,0,1
1795,-3,-1,10,-1,-13,1,-3,-10
1800,7,0,-12,-9,21,16,2,-1
1805,-6,-3,-6,15,16,5,-1,-22
1810,-3,-3,3,2,-5,11,-1,5
1815,-15,-1,-8,-14,-9,-12,-5,-38
1820,-3,-5,5,-10,-10,-4,0,28
1825,9,2,5,-3,17,25,-3,12
1830,-9,-5,-4,20,-24,-42,-2,-16
1835,8,3,-13,-14,7,1,1,28
1840,0,-2,-8,13,16,0,-4,-7
1845,-12,-2,1,-27,-7,-10,-4,-14
1850,-10,-5,-1,36,5,8,2,17
1855,16,1,13,1,-23,-20,-7,-14
1860,-5,-3,-26,1,33,11,6,2
1865,-2,-1,-3,-3,-17,-4,-4,-14
1870,-6,2,5,-22,-12,-24,-2,-7
1875,-16,-4,8,12,-22,-4,-1,4
1880,8,2,14,-11,10,10,-2,19
1885,-5,-2,-9,28,-23,-16,1,-16
1890,10,3,-17,-13,18,29,0,4
1895,1,-4,-7,25,5,4,2,1
1900,-3,0,10,-11,-11,-18,-4,-38
1905,1,3,10,-7,-2,3,1,7
1910,-3,-3,3,-19,26,29,-2,-8
1915,17,3,-6,-3,-6,-43,2,37
1920,-12,-3,-7,3,-6,-9,-1,-19
1925,3,2,1,4,-3,1,-3,14
1930,-5,-4,3,-11,12,15,0,-3
1935,-8,0,30,-4,-10,13,1,13
1940,10,0,-28,-52,-21,-4,3,5
1945,5,-2,-7,40,33,-4,-2,-4
1950,5,3,-5,-10,-2,2,3,-15
1955,-19,-7,28,-1,-15,12,-8,5
1960,2,-2,6,8,15,-12,2,5
1965,-5,-1,-2,10,1,18,2,-10
1970,1,-1,-4,0,-28,-24,-4,-8
1975,-13,-4,-20,-10,34,20,0,-21
1980,16,9,9,17,-16,12,3,33
1985,-9,-7,6,-18,1,-24,-3,-5
1990,-11,-1,11,13,-4,20,0,-3
1995,11,4,8,-7,-12,-15,-2,-8
2000,-20,-5,3,-14,5,-19,-2,-5
2005,10,-1,-39,10,-6,9,-4,11
2010,19,4,9,-8,-12,-11,5,-7
2015,-3,-1,-17,-1,8,18,-2,-17
2020,-13,-1,11,14,30,6,-1,-5
2025,0,-1,10,-18,-36,-1,1,-11
2030,-1,-2,-2,-4,-5,-18,-7,11
2035,-1,0,-9,-6,8,-12,2,1
2040,5,-3,-6,12,-14,12,-2,7
2045,-5,2,19,-5,16,-3,-1,-10
2050,2,-2,-20,-10,3,13,1,1
2055,1,-3,-8,3,-8,-14,0,8
2060,-5,-2,11,6,-7,0,-5,-27
2065,-2,-6,-11,-5,-11,-8,-1,13
2070,0,1,10,10,1,-3,-1,4
2075,-3,-1,-6,-12,0,4,1,20
2080,-5,-4,-11,-33,23,20,-3,-45
2085,19,3,16,68,-15,-3,5,54
2090,2,1,5,7,15,-13,-6,-52
2095,-2,-2,-13,0,-14,0,-1,38
2100,-6,1,10,5,-7,1,1,-8
2105,-3,1,10,-18,46,13,1,-11
2110,-6,-3,2,21,-16,4,-3,22
2115,-4,-1,2,1,-10,-6,-5,-27
2120,1,-1,-26,-11,15,14,0,1
2125,-7,-3,0,-29,-4,-17,1,-8
2130,-1,-3,-9,13,8,16,1,3
2135,-3,2,-11,-6,-1,-5,-3,-10
2140,3,1,1,-22,-7,6,0,19
2145,0,-1,-10,37,-29,-21,-1,-5
2150,-6,0,-3,-29,10,2,-2,-5
2155,5,0,-5,15,31,14,2,1
2160,-1,-3,7,23,-38,-19,-3,-4
2165,-13,-4,-9,-41,13,7,-7,-7
2170,0,1,9,18,-11,-4,0,12
2175,-2,-1,12,-18,-1,-1,0,-29
2180,16,2,-21,30,14,-9,4,40
2185,2,-3,5,-17,-5,-4,-1,-19
2190,-9,-5,6,3,-12,8,-5,-11
2195,5,-1,-4,-8,-1,-22,-3,18
2200,-12,-3,5,-33,-19,-6,-4,-29
2205,-9,-1,-9,18,-2,-2,-1,-22
2210,7,0,-20,-12,13,3,1,19
2215,0,1,14,22,15,15,0,-9
2220,-9,-7,-6,0,-22,-2,-2,0
2225,0,0,-7,-27,-9,6,-2,21
2230,6,2,0,-2,4,-2,2,0
2235,-1,-3,-16,17,0,11,4,-3
2240,6,2,15,22,10,5,0,0
2245,-9,-1,2,-18,16,-3,-3,-17
2250,-14,-2,5,-28,-15,-3,-1,-3
2255,10,7,29,2,-6,-5,-1,22
2260,11,-2,-24,16,5,-27,-1,0
2265,12,3,9,6,1,4,1,3
2270,-4,-3,-14,-11,-6,-15,-2,-2
2275,-6,-3,-1,12,-4,4,-2,-15
2280,-14,0,35,12,-2,-7,-5,-27
2285,-3,-1,-11,30,6,-14,-1,14
2290,12,1,-7,8,-13,-5,3,12
2295,-14,-7,-20,-25,-30,-11,-3,-25
2300,6,5,30,1,15,16,2,11
2305,0,-3,1,-20,-3,6,-4,-10
2310,-2,-2,-14,13,9,5,2,4
2315,8,-1,-17,10,21,-6,-3,5
2320,-6,-2,12,25,-2,1,0,0
2325,-14,-2,14,-18,-8,11,-2,-16
2330,-11,-2,14,16,14,-10,-4,2
2335,0,-2,-23,-15,-9,2,-1,8
2340,6,2,-13,-15,-13,-9,0,0
2345,-9,-2,16,23,-1,8,0,9
2350,-2,-4,-4,23,4,-6,-11,-20
2355,15,7,-8,2,-2,2,6,-21
2360,-3,-2,50,-1,1,6,-4,29
2365,2,-1,-11,6,18,11,7,14
2370,-6,-2,11,-23,-16,-11,-2,-10
2375,-2,-3,6,18,2,3,1,14
2380,5,6,-14,-20,-8,-5,3,-28
2385,10,-5,-19,-14,1,10,-1,16
2390,7,3,14,-5,40,41,2,9
2395,-3,-4,-17,-11,-36,-90,-7,-3
2400,7,2,-2,-5,7,6,2,-7
2405,-16,-1,-1,-9,-17,6,1,-15
2410,43,12,13,28,-8,4,5,26
2415,-3,-1,1,-8,13,35,0,0
2420,-11,-4,-25,0,-9,-24,-7,-11
2425,-3,-3,11,-15,8,-15,-5,-3
2430,-15,-2,-19,-27,-29,-6,3,-27
2435,-6,-3,17,21,4,7,-4,26
2440,5,1,-6,11,-3,-4,2,-2
2445,13,3,-2,-7,-1,-34,-2,2
2450,-17,-5,-3,-9,1,0,0,3
2455,0,1,9,-14,1,4,-1,4
2460,-12,-3,-4,-11,-13,2,-1,-26
2465,5,-3,-14,-57,-5,-3,1,49
2470,0,-2,-15,20,11,-10,-7,-50
2475,-1,0,7,-10,-5,22,2,8
2480,8,0,-6,4,29,11,2,27
2485,-2,-1,-7,-1,-16,-23,-4,-23
2490,-7,3,36,-19,12,-13,-3,10
2495,-19,-6,-34,-37,-14,17,0,-30
2500,22,1,-16,22,-17,1,5,53
2505,0,0,4,18,4,-3,1,-10
2510,-1,-4,-14,-9,-6,10,-1,8
2515,-8,1,19,-8,6,-2,-5,-21
2520,-7,-3,-6,39,8,8,0,-9
2525,-15,-3,-12,-12,4,2,-1,-29
2530,23,4,2,13,-12,-4,3,56
2535,24,9,19,-9,12,-3,1,11
2540,-11,-5,-13,-8,-7,15,-6,-30
2545,-7,-1,37,28,26,22,2,-12
2550,-2,-2,-4,-7,-22,-28,-3,7
2555,-4,-5,-22,-36,-3,-1,-2,9
2560,7,0,0,-1,10,-3,0,9
2565,0,-1,3,44,4,5,-1,-18
2570,-18,0,22,-14,-3,-5,0,-20
2575,7,0,12,13,-13,-24,0,38
2580,-2,-3,-14,-36,-1,-4,-6,-27
2585,-9,-4,13,-44,-19,10,-3,0
2590,-3,-5,-9,35,5,5,2,6
2595,-2,-2,-18,35,26,11,1,-21
2600,-16,-4,0,-2,-5,-2,-6,27
2605,18,8,9,12,-8,-4,0,0
2610,-14,-5,-9,-6,2,8,-1,-5
2615,11,-1,3,15,0,-6,-3,3
2620,-3,1,14,-11,-4,4,-1,3
2625,7,-2,-18,33,3,-20,0,7
2630,-2,-6,-15,-15,0,14,3,-9
2635,-20,-4,7,-16,-5,10,-4,-36
2640,13,3,10,69,14,-10,4,-4
2645,9,4,-4,-28,-15,10,-6,43
2650,7,7,31,-17,8,-27,-3,2
2655,-9,-11,-39,59,-5,11,8,9
2660,2,-1,33,-27,-3,-12,-7,-27
2665,-5,-2,-6,7,10,4,-1,-12
2670,-10,-2,12,-34,-8,10,-1,-24
2675,-12,-3,-11,2,-15,-21,-2,12
2680,3,1,-11,-47,11,6,1,-8
2685,8,4,39,67,3,4,0,36
2690,19,0,-35,13,6,-2,2,28
2695,23,13,29,-11,1,-2,-1,-17
2700,-20,-14,-40,-32,-14,-5,0,10
2705,-10,-2,7,-12,-9,27,-2,-62
2710,-11,-2,-13,-27,-7,0,-9,3
2715,12,2,10,7,8,-2,3,24
2720,-16,3,18,1,-10,-7,-3,-59
2725,10,-2,-10,29,10,10,1,11
2730,-3,-2,1,1,-29,-54,-6,32
2735,8,0,-9,-21,-3,12,1,-5
2740,-11,-1,1,-35,-3,5,1,11
2745,8,0,-12,38,17,6,1,-14
2750,-1,4,-1,16,17,15,3,-26
2755,1,-1,12,15,-2,-13,-5,8
2760,5,-2,-21,-37,-8,-4,1,5
2765,-16,-5,-11,-24,-11,10,-1,9
2770,13,4,-8,-9,-1,-7,-3,-19
2775,-4,-2,-12,-66,14,7,1,20
2780,5,-5,-2,63,-4,-18,0,-7
2785,-11,-2,6,-55,-3,-7,-2,-16
2790,7,-3,-24,3,-1,12,2,2
2795,-7,-3,-21,-5,-8,14,-3,11
2800,-2,2,15,-12,5,-18,1,39
2805,-7,0,-1,12,-6,-20,-2,9
2810,-2,-6,6,-2,2,11,-7,-22
2815,-12,-6,-3,-20,-9,8,-1,-15
2820,3,3,3,26,6,-10,-2,20
2825,10,1,-18,3,-3,-14,3,19
2830,-15,-3,14,17,0,33,0,-7
2835,-9,-3,0,-17,-6,-13,-3,-37
2840,4,-1,-24,44,10,-5,2,-19
2845,3,-2,0,-58,-21,-13,0,42
2850,-1,2,-1,-22,16,4,1,5
2855,7,2,35,63,8,13,4,4
2860,-6,-1,0,-11,-11,12,-3,-13
2865,-11,-2,8,21,2,3,-2,-30
2870,12,-2,-7,-1,-14,-2,3,32
2875,2,2,-17,-18,9,-13,-3,2
2880,11,0,-2,-10,-6,2,-6,13
2885,4,2,-5,-5,-4,9,3,-12
2890,-11,-3,-24,-8,-17,-6,-6,-11
2895,-5,0,4,50,9,4,4,-4
2900,3,-3,2,0,-1,8,-2,11
2905,-5,-4,-7,-38,0,-6,-5,-23
2910,-4,-4,2,15,-4,-20,-2,-12
2915,7,2,9,-2,-10,12,-1,33
2920,-2,3,2,10,-4,-13,-1,-13
2925,-4,-2,6,-33,-11,0,1,5
2930,-5,-2,1,8,33,19,0,-3
2935,2,-1,-7,0,-23,-14,-1,5
2940,37,7,-1,0,-5,3,2,31
2945,-18,-3,-8,9,13,-3,-2,-8
2950,4,2,2,-5,-6,-6,-5,-12
2955,-10,-2,8,-38,-1,7,-2,-15
2960,-17,-5,2,32,6,-3,-3,-15
2965,-3,-3,-14,-7,3,21,0,10
2970,4,-3,4,34,11,-1,4,-13
2975,10,0,-5,-28,-2,-17,-2,5
2980,-15,-5,8,-13,-2,0,0,-15
2985,19,6,-1,1,3,2,-2,13
2990,-4,1,-6,-35,-6,-2,-1,15
2995,-9,-2,-6,-12,-6,-2,-4,-20
3000,-28,-5,7,-27,-13,2,1,-36
3005,25,7,-6,64,24,-1,2,45
3010,4,0,8,-6,-20,4,-4,-26
3015,0,-1,-4,24,6,-8,0,-23
3020,-2,-3,-7,-3,3,11,-2,27
3025,-17,-8,-4,-17,-18,-14,-3,-13
3030,-1,6,15,-47,-9,0,-1,-26
3035,3,-2,-22,27,31,7,2,12
3040,15,2,0,5,15,5,0,11
3045,-5,-3,0,-11,-29,-7,1,-5
3050,0,-4,0,23,12,-24,-2,14
3055,-18,-6,-2,-37,-23,11,-5,-33
3060,-13,-1,20,-45,-11,-18,-6,8
3065,14,1,-30,0,23,3,3,24
3070,2,2,9,47,-1,9,4,-19
3075,4,0,-1,-5,11,-3,-1,23
3080,8,-3,-26,37,5,5,-2,17
3085,-3,0,15,-11,-7,-10,-1,-15
3090,-10,-5,5,3,-10,4,-8,-33
3095,8,1,23,12,-5,-13,-1,37
3100,-4,6,-16,-33,-10,11,0,-6
3105,7,-5,-2,33,44,2,-2,11
3110,0,-5,-30,20,7,-12,0,0
3115,3,2,14,3,7,9,1,31
3120,0,-1,8,5,-18,-6,0,0
3125,-4,-1,1,-2,-7,-7,-4,-29
3130,-14,-3,23,-5,-5,3,0,18
3135,-3,-2,-14,4,11,1,1,-25
3140,-5,-5,1,-9,0,-5,-4,-6
3145,-15,-6,-11,-43,-22,-1,-4,-12
3150,19,5,20,38,5,2,3,16
3155,4,4,-7,-18,-13,-11,-1,15
3160,5,-2,-9,2,18,3,-1,-14
3165,-3,0,13,-11,-8,11,1,-9
3170,-3,-3,10,6,17,-15,-1,7
3175,0,-3,7,31,1,7,-1,-10
3180,3,-2,1,-11,-3,2,0,20
3185,-1,0,-14,-13,-2,-14,-4,-21
3190,-3,-2,-12,-16,1,10,1,-3
3195,8,4,10,-9,-16,-14,0,21
3200,-10,-2,-5,9,5,-1,1,-19
3205,-2,-1,16,28,2,-3,-5,3
3210,24,8,-7,-24,-5,-2,2,4
3215,-14,-3,22,1,-3,2,-6,-44
3220,2,-4,-27,-52,-10,-1,2,33
3225,-3,4,18,48,-22,1,-4,-10
3230,-10,-2,-5,-8,7,-8,-1,3
3235,-3,-8,-23,-16,-4,3,0,-45
3240,-3,1,12,-5,17,-2,0,38
3245,7,-1,-7,12,-1,4,0,-22
3250,-2,-1,-4,-12,2,1,-1,2
3255,2,-1,8,16,-6,4,-3,3
3260,-14,-2,5,25,3,1,-4,-20
3265,-2,-2,-12,-25,-3,-6,1,32
3270,21,2,13,12,-6,0,-2,8
3275,-9,-4,-23,-19,21,8,3,-9
3280,11,1,3,16,4,8,3,11
3285,-4,2,3,-6,-9,-7,-3,-18
3290,-14,-2,2,-8,-2,-3,1,13
3295,-3,-2,5,6,3,-10,-4,14
3300,2,2,11,4,-8,-5,-1,-6
3305,10,4,-2,-6,2,-5,1,-17
3310,5,-2,-2,1,-3,0,2,22
3315,-5,-1,13,0,-11,-1,-4,-7
3320,0,2,-8,-11,26,8,1,-21
3325,-4,-6,1,51,-7,-10,0,6
3330,7,2,-2,14,-1,7,2,14
3335,7,1,-1,6,1,1,0,7
3340,-4,1,31,-13,-20,2,-2,-19
3345,-8,-2,16,-16,-2,4,-3,4
3350,0,-6,-26,-12,28,9,-1,-23
3355,-4,-2,-10,14,-9,-2,3,16
3360,12,4,2,26,1,2,3,-6
3365,6,1,2,-23,-5,6,0,24
3370,-4,-4,-1,-12,-17,-1,-6,-1
3375,-6,2,8,-6,9,0,0,-10
3380,-2,-10,-4,-15,-24,-4,0,-11
3385,4,-3,-23,2,18,6,-1,15
3390,-17,-5,-9,-7,-8,-6,-4,-7
3395,7,3,2,4,-12,-23,1,-36
3400,2,1,-7,40,8,3,0,42
3405,-6,0,14,-44,-4,-11,-5,-16
3410,-12,-5,-17,7,8,11,1,4
3415,-3,3,-10,-26,-23,-9,1,12
3420,3,2,-7,10,-2,-4,-2,-16
3425,0,-4,-9,26,16,8,-1,-42
3430,-4,1,0,5,-16,2,1,37
3435,-2,-1,5,3,15,14,-3,-26
3440,-3,-2,-7,-19,-9,-1,-2,21
3445,-8,0,1,-9,-7,-5,0,-16
3450,-16,-5,7,11,-3,-12,-6,-28
3455,17,5,-12,-5,5,11,-3,27
3460,-2,-5,-12,0,12,-13,-5,-17
3465,-4,-4,19,5,-34,-12,-1,-4
3470,-12,-4,-10,-21,-3,-2,-2,-18
3475,-8,-1,-9,-27,9,14,3,19
3480,25,5,-13,65,33,26,1,-4
3485,-5,-3,-10,-31,-10,-23,-1,-1
3490,4,4,9,19,-4,-3,1,-8
3495,11,2,3,-7,-1,1,0,12
3500,-13,-2,0,-27,-16,6,-1,-16
3505,2,-1,8,2,12,1,1,33
3510,17,6,6,7,3,1,2,-3
3515,-6,-4,1,26,9,-5,-4,-11
3520,0,-1,-5,-7,-6,-8,0,1
3525,-6,-1,24,-8,-3,-2,-2,1
3530,-7,-1,-21,-39,-3,-5,-5,-8
3535,0,-4,-12,37,15,25,4,-3
3540,4,-1,-2,-4,-11,-29,-3,-1
3545,11,1,-10,11,1,0,-1,23
3550,-7,-2,19,-22,-5,9,-1,-7
3555,7,3,-6,21,1,-6,5,28
3560,-18,-5,5,-11,-11,5,-3,-47
3565,16,5,-17,-6,19,9,-1,8
3570,-1,1,3,-23,-21,-3,5,25
3575,-9,0,14,35,10,-9,-6,-16
3580,-3,-2,31,0,-10,-4,-1,21
3585,6,-2,-41,22,28,13,4,-8
3590,7,2,10,6,-2,1,3,-9
3595,-16,-8,1,-45,-9,-12,-4,-12
3600,-2,1,0,28,10,8,-4,27
3605,-5,0,19,-52,-15,-3,-2,-21
3610,0,-2,-21,41,8,7,1,-1
3615,9,3,20,-20,-13,-25,0,30
3620,-3,-4,-12,-17,-2,-3,3,-16
3625,-3,1,-2,-1,2,-1,-1,-19
3630,-3,-2,1,-20,-11,7,-2,32
3635,-13,-2,15,38,8,-8,-7,-55
3640,21,5,-7,-10,16,-2,3,19
3645,-3,0,6,12,-10,4,1,16
3650,-2,-3,9,-5,9,1,-1,-16
3655,2,-4,-19,-18,-9,5,-1,17
3660,-6,0,-8,3,-2,2,-2,6
3665,-3,-2,2,4,2,1,-2,-20
3670,-5,-2,4,0,10,-10,-2,-37
3675,13,-1,8,12,1,2,3,57
3680,-7,0,-15,-44,-23,-5,1,-23
3685,0,1,-25,5,7,0,-2,-1
3690,-8,-3,22,16,5,-4,0,7
3695,-1,-1,-2,-9,-13,-5,-3,-20
3700,-7,-6,-10,-13,0,10,4,-10
3705,-15,-3,16,-7,1,-5,-5,-8
3710,9,1,-15,1,14,6,1,1
3715,2,0,10,10,-6,-10,-5,7
3720,-4,-4,6,-1,-4,-5,-1,-10
3725,2,1,-10,-63,-23,-7,-2,21
3730,12,2,13,69,-1,-12,-3,-17
3735,1,4,-1,16,17,12,1,12
3740,-6,0,17,-9,14,-2,-3,-20
3745,-10,-6,-2,18,-27,-14,1,-4
3750,5,2,13,-9,-7,4,-1,16
3755,-14,-5,-11,-24,-6,7,1,-7
3760,1,-2,-11,-2,-2,-4,-4,2
3765,2,3,-4,34,19,12,3,3
3770,1,-5,-20,-28,-4,-4,-2,8
3775,1,-3,-5,-9,-9,0,1,-12
3780,-9,0,8,-21,-5,-3,-2,-7
3785,-6,-3,0,40,1,1,-1,-5
3790,10,1,-12,-22,-6,-3,-1,17
3795,-6,1,17,-19,9,4,-3,-39
3800,5,-1,-3,41,-5,15,-3,20
3805,12,-2,-10,-9,-4,-8,3,-5
3810,3,2,-3,-6,-3,-1,-2,25
3815,0,-2,-6,-5,1,-1,0,-6
3820,-15,3,13,0,16,3,-3,-60
3825,8,3,20,-1,-11,-4,-3,44
3830,-3,-4,-23,20,1,12,4,-21
3835,1,-1,-7,-18,-5,6,-1,-11
3840,-5,-4,3,0,0,-1,1,28
3845,-12,0,13,-30,-5,-16,-3,-24
3850,-13,-2,6,30,8,-2,-5,-14
3855,0,-2,-5,23,-17,-1,2,16
3860,23,5,-4,7,7,2,0,19
3865,0,-4,-1,-4,0,-18,-3,7
3870,-3,0,10,-20,-13,-3,-2,-1
3875,-14,-3,-8,-28,-8,-2,-3,-21
3880,-9,1,8,8,8,-2,0,-6
3885,1,-2,-14,24,-4,16,5,1
3890,0,1,9,2,6,-1,-1,-3
3895,6,-2,-12,-5,-19,3,-2,8
3900,1,2,-2,-15,6,-6,-1,1
3905,-3,-2,-3,6,7,5,0,7
3910,-7,-3,-17,-31,-2,-5,-2,-18
3915,-9,0,20,3,3,0,1,-3
3920,8,-2,-13,31,-5,-3,1,31
3925,11,2,-2,16,12,2,-2,-18
3930,2,-2,-7,-3,1,0,0,0
3935,5,3,-8,-23,-2,-3,1,-4
3940,-17,-4,-16,-10,-6,-4,0,-39
3945,-7,-2,-1,-2,1,13,0,16
3950,11,3,24,9,14,-14,-4,13
3955,0,3,-3,6,-26,-2,0,4
3960,-5,-6,-8,-11,-13,-9,-3,-21
3965,-8,-1,-9,-28,-8,9,-4,-16
3970,-4,1,8,-10,-3,2,1,-3
3975,8,-5,-41,24,23,-5,5,29
3980,6,0,0,1,-8,-13,-3,10
3985,4,-2,-8,-4,7,-10,-3,2
3990,0,1,-2,-29,-19,1,-1,12
3995,-4,1,24,-15,3,-1,-2,-13
4000,-2,2,-9,-9,-2,9,0,-13
4005,-10,-4,-8,35,12,2,2,-13
4010,16,1,-1,4,-10,-4,3,36
4015,0,2,11,11,15,6,-3,-4
4020,1,-1,5,-21,-14,3,-2,21
4025,-10,0,9,-6,-12,0,-2,-40
4030,2,1,-7,34,8,4,-1,2
4035,-1,-2,6,0,14,-6,-1,6
4040,0,1,13,-17,-13,5,1,9
4045,11,2,-1,20,6,-1,-2,15
4050,-14,-7,-21,-12,-2,-1,0,-30
4055,3,4,15,6,-7,-2,-2,30
4060,-7,-5,-21,7,9,-2,-3,-28
4065,9,4,6,-34,-1,-6,2,19
4070,-11,-5,6,42,4,0,0,-15
4075,-1,1,-6,-2,1,-3,1,10
4080,4,-3,1,-10,2,-2,-3,1
4085,-1,-2,-8,-2,-13,-10,-2,-13
4090,2,0,5,-24,-2,-2,-1,11
4095,-4,-3,-8,-6,-8,1,-3,-4
4100,-8,-1,7,53,19,6,-1,-12
4105,23,4,-4,2,13,-4,4,24
4110,-10,-4,1,-18,-4,3,-4,-19
4115,-3,-1,-8,-7,-10,-5,-3,-8
4120,6,3,2,-24,-4,5,2,26
4125,-11,-5,-16,-10,11,6,-1,-51
4130,1,-1,-5,16,-4,-6,-3,35
4135,11,0,-6,-4,5,4,0,-7
4140,-15,-3,5,7,-5,-6,1,-1
4145,-9,-4,11,-14,-10,2,-6,-21
4150,2,6,7,-3,0,-7,-2,-20
4155,2,-4,-12,23,1,6,3,8
4160,7,0,5,4,-3,-18,-4,17
4165,-13,-4,6,3,-6,3,1,8
4170,4,1,2,-64,4,-1,-2,-2
4175,-4,1,4,45,-6,-4,-2,-8
4180,2,-8,-32,8,16,3,2,-2
4185,23,5,-3,0,-6,4,1,18
4190,-10,-4,-1,7,4,-10,-2,-14
4195,0,2,16,-27,-1,2,1,-10
4200,-8,-7,-10,4,-16,-5,-1,0
4205,-18,-2,-8,31,9,1,-2,10
4210,12,4,2,5,1,9,0,26
4215,16,2,-1,1,1,0,-2,4
4220,0,1,14,-5,-10,-5,0,-13
4225,-8,-2,5,-7,-5,5,-1,14
4230,-4,0,8,30,-3,-2,0,-31
4235,-17,-9,-21,-8,5,3,-4,5
4240,10,4,23,18,4,0,0,15
4245,9,1,-21,10,1,-21,-3,-1
4250,0,-3,-26,-25,0,6,5,5
4255,-8,-2,-3,-16,-3,-8,-2,-23
4260,-2,1,14,7,0,7,3,2
4265,-4,0,3,-20,3,-6,1,4
4270,-7,-1,15,0,-11,-6,-4,0
4275,-3,-5,-10,9,12,-1,1,0
4280,19,6,-7,-8,-13,3,2,16
4285,0,2,9,-14,19,20,-2,-9
4290,2,-3,-6,-24,-5,-6,-2,13
4295,-18,-3,2,13,6,1,4,-22
4300,19,5,-6,18,10,0,-4,18
4305,-5,-4,-6,3,-8,-4,-2,6
4310,5,2,7,0,-6,7,5,-5
4315,-2,-1,22,-13,-8,-5,-3,6
4320,-12,-5,2,33,7,5,0,-17
4325,3,-5,-7,-5,-16,-2,2,18
4330,-4,-3,-9,10,-1,1,-3,-27
4335,8,3,4,-5,2,-1,1,2
4340,-15,1,8,-17,-9,4,-3,-8
4345,-5,-1,13,-17,-1,-2,-2,-13
4350,7,-3,-3,10,-2,-8,-1,15
4355,12,-2,-11,2,4,23,2,3
4360,-4,-3,0,-23,2,8,-2,-7
4365,-3,2,11,34,26,1,3,9
4370,-5,-2,8,-17,-13,-4,-4,1
4375,6,2,-17,24,-8,-14,-3,2
4380,7,-3,0,-12,6,5,3,-9
4385,-7,-3,17,-7,-5,5,-2,-30
4390,-11,0,13,17,10,14,-1,65
4395,13,5,-9,-10,-5,-10,-1,-26
4400,-1,1,2,18,-7,-11,3,21
4405,-5,-3,-4,-6,-7,-11,-7,-29
4410,16,0,-16,28,1,0,1,-18
4415,-11,-4,14,-7,-3,11,3,15
4420,-13,-4,-13,-54,-6,-10,-8,4
4425,9,5,6,42,-2,12,2,9
4430,-13,-1,4,10,0,3,-1,-20
4435,0,-2,-9,-3,5,-10,-1,-12
4440,4,1,-5,-9,-13,-9,-2,16
4445,-7,-4,5,-2,-6,-2,-3,10
4450,4,1,11,-11,3,3,-2,9
4455,18,3,6,3,-2,-2,4,-4
4460,-6,-5,-24,0,15,-5,-4,-2
4465,2,1,-22,-17,-10,20,4,9
4470,0,3,18,4,6,-12,-8,-23
4475,-17,-6,0,-21,-27,-10,1,0
4480,-8,-3,13,-27,6,-3,-3,-26
4485,12,-6,-33,-18,-13,0,0,47
4490,17,4,-14,49,9,-18,3,-10
4495,-8,-2,7,-21,-6,-2,1,24
4500,1,0,10,31,5,-4,-5,-28
4505,-11,-1,0,-15,-7,4,-3,-20
4510,-1,-1,-5,-14,-12,-10,-2,-16
4515,-4,-2,-11,6,31,14,0,69
4520,16,6,-14,10,-23,-23,1,-13
4525,-13,-2,11,-4,13,11,5,-7
4530,-2,3,-4,-13,-7,31,-3,-8
4535,-15,-5,8,4,-25,-5,-1,-28
4540,-1,-4,-16,-21,17,7,4,9
4545,10,2,-4,-1,20,26,3,9
4550,-14,-4,17,36,8,-29,-6,-3
4555,5,0,8,0,11,-15,-2,-17
4560,1,7,18,25,-13,10,3,-7
4565,0,-2,-6,-25,-4,-4,-3,-38
4570,1,-3,-9,-28,3,9,2,29
4575,-4,0,20,27,-2,-23,-6,-20
4580,-4,-4,-8,-11,-2,0,0,21
4585,8,3,7,4,-7,-11,-1,19
4590,-9,-2,6,-8,-14,0,-2,-20
4595,-6,-3,-12,-12,18,3,-1,-10
4600,-6,1,-14,-47,0,3,1,-4
4605,2,0,25,73,29,-3,-2,0
4610,4,-7,-20,-17,-34,-10,3,14
4615,4,3,6,-18,-7,17,1,-4
4620,4,-1,-1,39,-1,-7,0,-4
4625,2,2,6,9,7,-10,4,16
4630,1,0,-7,-23,-3,-6,-3,2
4635,4,-1,-13,-4,13,13,-6,-28
4640,0,6,29,-1,-6,12,10,-25
4645,0,-2,-16,-9,-9,-15,-2,44
4650,-8,0,22,9,6,13,6,6
4655,-3,0,-15,35,7,20,-8,-8
4660,-7,-4,18,-22,3,-36,-4,-4
4665,11,1,-1,12,-11,-11,-1,-18
4670,3,3,13,14,14,8,7,15
4675,-5,-2,-1,-21,-8,12,-7,10
4680,-2,-1,-20,0,-8,25,-2,-10
4685,-2,-2,-8,-17,-17,-34,-1,10
4690,-13,1,7,-26,2,-1,-3,5
4695,4,-4,-20,-14,-13,-25,-4,-7
4700,6,3,-3,44,31,29,1,-3
4705,-14,-8,0,-10,-22,-11,-2,-3
4710,12,0,-7,-16,3,-2,-1,-29
4715,3,2,17,8,-4,-9,-2,26
4720,-7,-3,-14,3,-1,-15,2,14
4725,17,4,10,-9,-10,-2,-4,7
4730,1,-4,-12,24,23,4,1,-22
4735,-1,2,5,-5,4,-2,0,13
4740,-10,-4,4,-12,-14,-8,-4,-2
4745,-3,-1,3,-10,0,16,0,-45
4750,-10,-3,16,6,4,-2,-3,32
4755,8,1,-28,-5,-4,-16,-1,-5
4760,2,-3,-5,11,3,31,0,8
4765,-2,-4,-16,-22,1,-31,-2,-6
4770,-5,0,-13,-27,-9,-4,0,-20
4775,-5,-2,30,36,-3,3,1,22
4780,7,-3,8,-2,-2,-8,-4,-1
4785,5,1,-8,-3,15,27,3,3
4790,1,1,-9,4,-14,-2,1,-9
4795,-9,-4,5,8,1,14,0,-12
4800,-2,-2,-5,7,2,-14,-6,10
4805,-4,0,28,2,-8,12,0,-1
4810,-3,0,-15,25,20,10,0,-2
4815,-2,-1,11,4,5,-18,1,3
4820,8,1,-1,2,-2,-5,-1,1
4825,4,3,-3,-5,-1,-17,-3,-10
4830,-5,1,-7,-10,-6,2,-4,3
4835,-6,0,7,-44,-14,-12,-2,2
4840,5,-2,5,15,9,6,6,11
4845,-7,0,1,-5,9,1,1,4
4850,8,-3,-28,-8,-2,-8,-6,-3
4855,1,-1,-11,44,4,-6,1,-18
4860,2,1,11,-21,-6,7,-3,23
4865,-2,1,-16,-5,-8,-3,5,-13
4870,-6,-1,9,-9,-16,12,-10,2
4875,-2,-2,-3,-17,5,4,4,-24
4880,-9,0,-3,-1,-6,-11,-1,-8
4885,2,2,17,19,8,-3,-4,14
4890,-7,-7,-13,-29,-3,18,8,-15
4895,12,4,3,13,11,10,-7,31
4900,-3,-5,1,7,-20,-10,-3,-18
4905,-12,-9,-12,18,-21,-5,-1,2
4910,7,0,5,-33,9,-12,0,4
4915,-11,-5,-29,-1,-1,14,5,-26
4920,24,9,5,-10,1,-21,-1,35
4925,-14,-1,8,-4,-7,1,-12,2
4930,10,1,-9,25,26,1,3,14
4935,-4,1,10,-9,-8,7,3,-18
4940,-11,-3,-5,-13,-6,-13,-1,-1
4945,-10,-1,0,9,5,11,-1,-27
4950,5,-2,4,-2,-13,-41,-5,7
4955,1,0,13,9,3,8,2,23
4960,-5,-2,-5,-3,-4,-11,-10,-34
4965,13,1,-12,34,13,8,7,11
4970,-12,2,2,4,-1,31,2,-23
4975,1,-2,10,12,2,-16,-4,13
4980,-7,-6,-23,-38,-5,8,1,5
4985,0,-1,-7,-12,-3,-3,-3,-7
4990,-6,0,2,12,-7,5,0,1
4995,-1,0,-15,-19,-4,4,-2,13
5000,-5,-2,0,3,14,9,-3,-8
5005,1,1,-1,-21,-10,14,1,13
5010,-8,-8,3,9,10,-20,1,-1
5015,10,0,7,-69,-18,-8,-5,-18
5020,-6,-2,15,24,-5,-7,0,17
5025,4,-2,-20,50,25,20,3,-19
5030,13,1,1,-7,-4,-19,-3,10
5035,-7,-4,-12,-6,-14,1,0,-3
5040,1,2,8,-19,-2,-4,0,-1
5045,3,2,7,-21,-6,-2,-3,16
5050,-10,-7,-2,4,-3,4,-5,-16
5055,2,5,18,26,9,1,5,-8
5060,24,-1,-27,2,6,3,2,37
5065,-4,0,1,-3,-3,-1,-1,15
5070,-9,-2,-9,0,3,-3,-6,-37
5075,-5,-1,14,-18,-10,-2,-1,18
5080,-8,-2,-1,5,-3,-2,-4,-2
5085,11,1,-6,11,9,-13,0,15
5090,3,3,5,-11,-18,-4,0,4
5095,-4,1,-5,-2,16,6,-3,-32
5100,-4,-1,4,16,-3,28,2,-14
5105,0,1,-2,-27,3,-16,0,-7
5110,-4,-5,3,28,-14,4,-3,11
5115,-5,-3,8,-24,-6,-9,-2,-5
5120,-3,-2,-23,28,4,17,5,3
5125,-4,0,4,-8,-8,4,-5,-27
5130,0,-3,1,-2,14,-1,1,-9
5135,-1,-1,0,-7,-10,6,-2,40
5140,20,2,1,22,5,-6,3,5
5145,-2,-1,25,14,-28,16,-2,-7
5150,-3,-2,-21,-1,8,4,-1,-25
5155,0,-6,-25,-3,-9,-5,-3,9
5160,-17,-1,10,-25,17,-8,-5,-12
5165,7,0,7,-9,0,-20,-5,17
5170,10,4,6,28,10,8,8,11
5175,12,2,-13,1,-15,-7,0,-15
5180,-14,-3,-13,-10,-9,0,1,-27
5185,-2,-1,-1,-27,9,2,-1,13
5190,-3,-1,11,-9,1,-32,-2,2
5195,-3,-4,-9,18,7,32,0,5
5200,5,-1,6,-9,-4,3,-1,-7
5205,-8,-3,-5,-3,10,-6,-1,-16
5210,-9,-2,5,-11,-27,0,0,22
5215,18,2,-12,8,14,-16,-1,11
5220,-6,-1,24,14,-1,1,-4,-21
5225,-7,-3,5,-12,0,1,-3,1
5230,8,3,-19,3,12,1,4,4
5235,-4,-2,5,-6,-1,-18,-4,-14
5240,-6,-3,-12,-25,-18,-3,-2,-7
5245,-8,0,7,-11,0,-7,1,-15
5250,20,3,12,23,-12,-13,-2,8
5255,0,-4,-16,-20,-2,17,3,23
5260,-4,-1,1,28,-3,-17,-9,-27
5265,-3,-4,-15,1,12,6,4,-8
5270,-8,-2,1,-35,-2,28,-2,-11
5275,3,-1,2,8,-2,3,1,35
5280,0,3,-1,-9,-2,6,2,-7
5285,8,0,-31,5,3,-2,0,-7
5290,-4,1,1,4,9,2,-1,2
5295,-8,-5,-2,-1,4,-4,-3,-25
5300,-14,-4,-3,-32,-9,-1,-1,15
5305,-3,0,-4,-4,-4,-18,-4,-2
5310,-6,-2,17,-5,-6,-1,-1,-2
5315,14,3,14,8,8,5,1,-11
5320,-1,0,-7,35,4,-1,0,-13
5325,6,-1,4,25,-4,6,1,41
5330,-6,-5,-6,-3,27,7,-6,0
5335,-7,-3,-5,-9,-16,-36,-2,2
5340,4,-1,2,-1,4,4,1,-7
5345,-1,1,10,-5,-5,-12,-3,-15
5350,-3,0,-14,-50,-18,32,-4,4
5355,-16,-1,14,74,6,1,-3,-9
5360,8,-4,-8,3,2,-16,-4,2
5365,5,2,15,-4,3,-5,0,11
5370,4,-2,-6,-8,3,2,5,20
5375,-1,0,-4,-18,-3,-4,-3,-21
5380,-9,-6,-18,-15,-4,8,0,21
5385,1,5,18,-2,-13,-6,-1,-13
5390,18,0,-14,16,4,-3,-1,23
5395,1,2,-8,-4,8,28,4,-14
5400,-7,-2,10,8,2,-53,-3,-8
5405,-14,-7,-13,-44,-9,6,-5,-26
5410,11,4,28,37,-9,-5,2,-2
5415,-1,0,-8,-11,25,9,4,26
5420,12,0,-12,-43,-5,17,-4,-14
5425,1,-6,-11,5,-2,-2,-5,17
5430,-16,-3,11,28,-10,-20,-4,-36
5435,-7,0,4,0,3,-9,-1,6
5440,5,2,5,-26,0,22,-1,15
5445,-1,3,-13,-7,-3,-8,0,-12
5450,-2,-3,-13,8,14,9,5,7
5455,0,2,8,-4,-7,-7,-3,-22
5460,-9,-5,-6,2,-3,3,1,20
5465,-2,-3,-5,4,-4,16,-2,9
5470,-1,2,0,-15,2,-13,-2,-9
5475,2,3,9,7,-8,-5,3,-4
5480,3,3,-8,-35,-15,-10,3,8
5485,9,1,4,65,12,15,1,3
5490,-8,-5,0,-3,-3,-7,-6,-11
5495,-8,-5,2,14,-4,-9,-5,-19
5500,8,3,26,-20,-9,8,0,33
5505,3,1,6,50,19,-7,-4,-8
5510,3,-3,-13,5,3,0,5,0
5515,2,-1,-12,-8,-2,14,-2,-1
5520,-7,-2,14,10,-6,-5,0,-8
5525,-6,1,-6,-22,0,-13,-2,-15
5530,-2,2,14,-1,-5,-3,-4,16
5535,-4,-3,-7,-5,0,-20,-6,-23
5540,17,4,-4,12,4,7,3,22
5545,-11,-7,8,-6,-1,-4,1,-8
5550,-2,1,-14,-22,0,0,-2,-23
5555,1,-3,-6,11,-4,0,4,33
5560,12,5,-1,5,5,9,-1,-33
5565,-8,2,21,-53,-17,-16,-4,19
5570,1,-1,-16,65,5,0,1,-8
5575,-6,-5,-15,-44,0,-3,-2,4
5580,-4,-2,-4,39,11,1,-1,-10
5585,-3,-2,-1,-15,1,11,2,-3
5590,-4,-4,12,-10,-17,-15,-2,13
5595,4,4,8,-2,0,13,2,2
5600,-12,-2,-8,9,5,-9,-3,-3
5605,6,1,-10,-24,6,2,-4,-8
5610,-2,-1,14,3,-6,-4,0,19
5615,7,-1,-18,32,9,4,0,-5
5620,0,1,14,-17,-8,-11,0,0
5625,-11,-3,34,23,-14,-20,4,7
5630,5,-3,-35,17,11,5,-4,-15
5635,1,-2,-6,-2,0,-18,-2,-7
5640,-5,0,0,0,0,5,-1,4
5645,-5,-4,8,10,-3,2,0,-16
5650,-1,-4,-13,-48,-15,-6,-3,30
5655,7,1,-2,-10,2,-2,-2,-2
5660,-5,-1,8,10,-5,11,-1,-27
5665,-9,-7,-30,-7,18,8,0,15
5670,14,5,15,-10,-3,4,0,8
5675,-7,-2,1,7,-2,-1,-2,-13
5680,1,-1,-2,13,7,-1,0,-14
5685,1,-1,-11,-13,-9,1,-2,6
5690,0,-2,-4,-7,-6,-2,1,-6
5695,-8,-2,11,-3,2,5,-1,-14
5700,-12,-4,10,-13,0,-2,-5,-20
5705,-9,-3,-13,12,2,6,1,28
5710,48,12,1,-10,-2,6,2,14
5715,3,1,-14,5,-6,-4,1,11
5720,-12,-5,-12,1,1,14,-2,4
5725,-7,-5,-17,-10,2,1,-2,-37
5730,-10,2,6,-19,-9,0,0,-7
5735,-4,1,6,-7,-8,-4,-3,16
5740,8,-1,-16,25,9,12,1,8
5745,5,2,5,-8,-8,-10,-1,-1
5750,-9,-3,-8,9,3,-5,-3,-10
5755,3,1,8,10,-4,-1,-2,-8
5760,-6,-4,-17,-12,-5,-11,1,7
5765,7,4,19,-9,-8,12,-1,3
5770,-5,-3,-9,8,12,2,2,-5
5775,-6,0,11,-6,-5,-1,-3,-6
5780,6,1,11,-19,-6,-3,-4,11
5785,-6,-5,-21,39,1,-8,2,-6
5790,-3,5,23,-5,3,3,1,-39
5795,21,3,-10,-6,-1,0,1,53
5800,-2,-1,5,7,2,-8,-1,0
5805,0,1,0,-11,-5,1,-3,-12
5810,-20,-4,15,-11,0,0,-3,-11
5815,-7,-6,-8,-30,-3,2,-4,-9
5820,3,3,7,27,3,-5,-1,-5
5825,9,2,12,10,0,1,3,-11
5830,-10,-5,-16,-23,-15,6,-1,8
5835,-2,-2,17,6,-1,-10,-1,2
5840,-3,-4,-13,-14,-1,-13,-4,-13
5845,8,4,8,20,5,12,1,0
5850,-1,-4,-4,-1,2,2,2,2
5855,-5,1,4,3,0,0,-1,7
5860,3,1,2,-10,-10,2,-2,4
5865,-4,0,0,-5,7,3,2,2
5870,6,0,-12,24,-4,-16,-1,-13
5875,-5,-1,3,0,1,3,0,2
5880,-12,-4,4,30,7,5,3,4
5885,31,6,-12,-15,-4,17,-6,16
5890,-12,-7,-3,-5,0,1,0,13
5895,-3,-5,-28,-31,-19,-4,1,-1
5900,-4,3,22,23,22,4,-2,-26
5905,-4,-1,0,3,-22,-20,1,14
5910,6,-1,-6,-4,-3,-3,-4,11
5915,0,-2,9,30,13,11,0,-29
5920,-3,0,11,-20,-3,-4,-3,6
5925,-15,-8,-10,-4,1,14,1,-9
5930,2,1,7,-1,-3,-19,-3,-2
5935,2,0,9,-31,-1,-6,-2,4
5940,-1,0,-19,13,-8,11,1,2
5945,1,-1,-10,23,17,-16,-4,-1
5950,-5,-2,-11,14,6,5,0,-3
5955,-7,1,-1,-14,-2,1,-4,-16
5960,-2,-4,-9,-29,-6,-10,-2,5
5965,7,-2,-7,-3,-4,-4,1,3
5970,-14,-1,9,-23,-5,4,-1,15
5975,14,1,-24,-7,14,-4,1,-7
5980,5,4,2,8,7,-2,1,1
5985,6,-2,-3,-9,-9,-8,-2,-18
5990,5,0,-7,-32,-5,13,-2,16
5995,-15,-3,11,9,-6,-4,-1,-15
6000,13,2,-5,-6,15,-4,1,44
6005,-8,0,0,25,-22,-6,-2,-21
6010,-7,-3,4,9,4,-8,2,14
6015,-2,-4,-12,-17,-5,10,-7,-25
6020,7,-1,-19,-11,-6,1,-1,-6
6025,-10,-1,11,-12,4,-12,-6,0
6030,2,-1,-18,-3,-6,1,-4,-18
6035,-22,-3,-5,13,-3,5,0,2
6040,26,3,-3,-2,1,16,6,11
6045,-3,-1,-3,-19,-3,-21,-2,7
6050,-3,1,8,13,3,7,-1,-14
6055,-3,-2,1,4,3,-2,1,-13
6060,-16,-3,4,-9,0,-9,-6,-3
6065,12,2,0,15,-11,7,0,3
6070,-1,2,8,27,9,-4,0,-1
6075,10,3,0,23,3,-1,3,9
6080,-10,-2,8,7,-5,1,0,-5
6085,0,0,-4,-7,8,8,2,6
6090,-5,0,16,-16,-1,-4,-4,-9
6095,9,2,-15,-19,-9,2,1,21
6100,-2,-4,-12,-9,-11,-12,-1,-11
6105,-13,-4,3,12,15,6,-3,-18
6110,18,2,-2,13,3,11,3,56
6115,1,-2,8,7,-2,-21,-3,-27
6120,9,4,0,-15,-3,-2,1,10
6125,-8,0,33,-48,-16,-8,-6,-25
6130,-21,-10,-22,23,8,7,2,0
6135,15,8,4,14,5,-6,-3,13
6140,-3,-7,3,26,-12,5,1,27
6145,-2,1,-18,-12,3,-4,-5,-32
6150,1,-2,-4,-7,2,3,1,-24
6155,-8,-4,11,-2,0,-4,-4,-5
6160,-8,-4,2,10,-4,-7,-1,2
6165,19,3,-17,-21,1,11,4,39
6170,-6,-6,-9,1,-2,12,-2,-7
6175,1,1,-3,-1,1,0,1,1
6180,4,-1,-4,-20,-3,-3,-5,-18
6185,-14,-3,3,16,7,0,2,11
6190,14,11,15,-57,-6,-11,-4,-21
6195,-10,-4,-9,36,4,-7,-2,19
6200,0,3,-2,20,10,-5,2,-4
6205,11,-1,-7,-12,-3,1,4,6
6210,1,2,13,10,-3,-7,0,-15
6215,-10,-1,45,8,0,13,-2,7
6220,9,2,-34,-7,-1,-8,-1,-3
6225,-4,1,3,-14,6,-3,-5,8
6230,-2,-4,-10,4,6,5,2,-5
6235,4,-1,8,-1,-19,-10,0,3
6240,-7,0,17,-16,-6,5,-6,-15
6245,1,3,-1,41,0,4,1,-1
6250,-19,-8,-2,1,1,-14,-1,-8
6255,20,3,-5,-19,-4,12,-4,-14
6260,-2,0,26,32,7,1,-2,20
6265,2,-2,-11,-21,-4,-5,0,4
6270,-8,-2,1,12,5,0,0,-3
6275,-7,-5,-25,18,1,6,2,14
6280,1,-1,15,-12,-7,-6,0,-19
6285,-2,0,-9,11,6,1,-2,-10
6290,-2,-3,-1,4,3,-7,-4,23
6295,3,-1,-7,-35,-1,2,1,-2
6300,-6,-3,-6,-7,-2,4,-3,-15
6305,5,-4,-3,-24,-7,-8,-3,8
6310,9,3,7,18,-15,-4,1,-4
6315,-2,-1,-3,15,13,1,1,8
6320,-3,-3,-3,-10,-3,0,-4,-9
6325,-2,3,1,18,3,-1,1,-10
6330,10,-1,5,-10,-8,-5,-2,17
6335,-1,-2,-18,-9,6,-5,-1,4
6340,-9,-5,9,5,-8,0,-4,-25
6345,-3,-4,0,-12,-1,-15,0,6
6350,1,3,-7,-4,-3,-6,1,-7
6355,-7,-1,19,4,-1,0,-3,-12
6360,-1,-2,-14,-4,2,-3,3,8
6365,-9,-4,-20,-35,-8,6,-1,2
6370,4,2,-8,13,11,2,-2,-14
6375,-3,0,13,-6,-4,-5,-2,-6
6380,1,-1,-5,23,5,5,2,-5
6385,-9,-4,9,11,-7,-1,-3,-6
6390,14,4,-3,-8,16,-2,5,46
6395,12,5,-2,-7,2,4,-4,-35
6400,-2,-1,-6,-30,-6,-11,-2,2
6405,-11,-3,-4,30,2,13,2,-1
6410,-1,-4,-2,-21,-10,0,1,16
6415,9,0,3,31,9,-7,-3,-7
6420,1,4,-5,-1,-3,3,5,11
6425,2,-5,-2,-3,5,-24,-3,0
6430,-8,-1,-15,-25,-19,-6,-10,-33
6435,-5,-5,10,9,7,6,3,25
6440,-3,-3,2,21,5,-1,-1,-1
6445,2,4,2,39,4,-4,-2,-2
6450,-3,2,16,25,8,10,0,-15
6455,-1,1,-12,-25,-12,-4,0,5
6460,-7,-7,-2,-27,-3,-5,2,12
6465,16,3,6,10,-1,7,-5,-5
6470,-2,-2,12,5,-6,-1,-3,1
6475,-11,-3,-20,-14,-1,8,3,-23
6480,-2,-1,6,-18,6,-5,1,15
6485,-3,-4,4,14,-6,3,-6,16
6490,4,1,-5,-6,-2,-15,-5,-4
6495,-6,-2,-5,3,2,16,2,-4
6500,-11,1,10,-21,-2,-11,-2,1
6505,-4,-2,8,-3,-9,-14,-1,-8
6510,0,0,-18,-3,-3,15,-2,-12
6515,2,-2,-11,16,4,-2,2,10
6520,0,-3,-10,-6,-7,4,-7,-7
6525,1,1,15,4,13,3,4,10
6530,-11,-3,-9,1,-1,3,2,-17
6535,-4,1,4,-21,-9,-6,-1,-10
6540,15,6,-8,22,-1,5,0,11
6545,1,1,1,-65,9,11,-2,27
6550,1,-2,6,26,-4,-11,-1,6
6555,5,0,-6,28,11,4,3,-1
6560,-8,-4,3,3,0,3,-2,-9
6565,0,2,7,-7,-3,6,0,-10
6570,-8,-5,11,-46,-15,-6,-6,-8
6575,0,-3,-22,12,10,-4,0,10
6580,3,3,17,20,10,16,0,-17
6585,-7,-3,-10,-43,-6,-6,3,10
6590,-12,0,-5,17,-9,4,-3,-23
6595,3,-1,-1,-32,-10,-4,3,20
6600,13,2,-10,-6,1,7,0,-2
6605,7,-3,-14,47,11,4,-2,-6
6610,-11,-2,11,-3,-13,-9,0,5
6615,-6,3,9,-1,3,-1,-2,11
6620,10,1,-1,-17,-10,-10,-4,-33
6625,1,5,1,-12,-9,-3,1,26
6630,9,-2,-13,-8,6,4,2,4
6635,0,-4,17,15,7,1,-1,-9
6640,-9,-4,-5,-10,-23,-13,-2,1
6645,-2,-3,3,16,6,-1,0,-17
6650,0,-1,-4,-6,0,8,0,3
6655,2,1,-3,-34,-9,2,-3,-12
6660,-10,-1,8,1,10,-20,-3,6
6665,-5,-3,2,-42,-6,27,3,10
6670,14,4,-5,39,1,-10,2,-1
6675,10,1,-13,-6,-5,-1,-1,16
6680,1,-3,-9,-1,-4,1,0,30
6685,-13,-6,-13,-5,-10,-7,-4,-34
6690,-1,-2,2,-9,5,4,0,-8
6695,11,5,5,8,16,6,-3,21
6700,-1,-2,-9,8,-9,-12,1,-5
6705,-3,-3,12,9,-6,-16,-2,-3
6710,-9,-2,-1,4,8,6,1,0
6715,-4,0,-9,-11,-11,-8,-3,-13
6720,-8,-2,6,-12,9,16,-3,-19
6725,6,0,3,35,-3,-6,-1,17
6730,8,4,4,12,7,2,-1,-4
6735,-8,-4,2,0,-8,-2,-1,-5
6740,-7,-5,-16,-28,2,-2,-2,-4
6745,4,5,-10,-5,1,4,3,-4
6750,2,1,7,-27,8,4,-3,-6
6755,-9,-6,0,32,-23,-13,-5,6
6760,-4,-2,-4,11,9,21,5,7
6765,-3,1,16,9,3,5,-2,-25
6770,11,0,-15,-6,4,0,1,32
6775,-4,-1,-2,-36,-21,-12,-2,-15
6780,-7,-4,-5,7,2,-4,-1,-3
6785,6,5,15,29,6,2,1,-7
6790,-3,-5,7,-14,3,-6,-3,14
6795,9,1,8,23,0,-2,1,-6
6800,-1,-3,-8,-2,-2,-4,-1,3
6805,-5,-3,1,-21,-5,2,0,-20
6810,-4,0,-9,1,1,-8,-2,-3
6815,-10,-2,13,-8,-2,-4,-5,-17
6820,17,6,21,35,4,4,0,12
6825,-7,-7,-20,2,7,-10,-1,-4
6830,-7,-2,-3,-5,-9,-4,0,20
6835,-2,1,15,0,-2,2,-2,-21
6840,-3,1,-2,-3,-6,2,1,21
6845,-1,-1,-14,-39,-8,-2,-4,-2
6850,-2,1,5,12,19,0,2,-12
6855,-3,-4,-10,5,7,4,0,-7
6860,1,3,3,-3,6,-10,-4,-13
6865,7,3,26,2,-10,-2,-2,20
6870,-7,-7,-5,8,-1,-4,-2,-18
6875,-1,2,-15,-43,-9,-10,-2,13
6880,-3,-1,-1,26,4,7,-1,-23
6885,-13,-4,-5,5,3,1,-1,27
6890,16,5,6,-10,-7,5,-4,-13
6895,2,0,8,-2,2,1,2,-1
6900,-4,0,9,-18,-6,-12,-3,-7
6905,4,2,-13,16,4,9,1,4
6910,-16,-4,-14,-33,-11,-3,-1,-5
6915,2,-4,-10,43,14,3,2,8
6920,20,4,1,-7,-6,2,0,2
6925,-1,0,-3,5,10,2,3,5
6930,3,1,3,-18,-10,-1,-1,12
6935,-12,-1,19,29,-4,-5,-3,-38
6940,-9,-10,-34,-31,0,-1,-4,25
6945,16,4,-17,-3,-2,0,3,-8
6950,3,-1,1,13,1,-7,-3,-13
6955,5,2,-1,-14,-5,3,-1,17
6960,-16,-6,14,13,-4,0,0,-9
6965,-5,-2,-11,23,4,3,-4,21
6970,-6,-3,-5,3,0,-11,-2,-19
6975,6,2,-2,-13,-3,0,2,-1
6980,4,2,-3,3,2,-5,4,1
6985,-4,-3,1,-30,11,4,-3,-2
6990,-6,-2,20,44,-24,0,0,3
6995,-8,-4,-9,31,11,10,-4,-13
7000,-1,-3,-15,3,-5,-8,-1,18
7005,9,0,1,-6,14,-8,-2,-32
7010,-7,-5,6,-11,4,8,-3,20
7015,1,-1,-13,-39,-12,-9,-2,-11
7020,2,5,28,46,7,-2,1,3
7025,-9,-3,-1,-17,-7,-3,-4,-11
7030,-12,-4,-1,-2,2,9,-1,-4
7035,13,-1,-22,-1,9,3,9,33
7040,-1,0,-5,-15,-2,-1,-3,-14
7045,-6,-1,5,-1,-6,-6,-5,-10
7050,0,0,-3,-7,-2,5,0,-4
7055,0,2,19,-13,-1,4,-1,-8
7060,5,-4,-20,13,-2,1,-1,6
7065,10,2,1,23,4,-3,4,9
7070,4,1,11,22,8,8,-2,-7
7075,-4,-1,-6,7,0,-4,0,4
7080,3,-4,-16,-49,-11,2,2,17
7085,-7,-2,1,17,-12,-13,-5,-41
7090,13,5,-3,11,4,1,5,38
7095,-5,-6,-17,-1,-4,-15,-4,-13
7100,2,3,9,8,6,-1,-2,3
7105,-9,-5,-6,-29,-12,3,1,-3
7110,-2,2,-6,5,0,-3,0,4
7115,4,2,13,-20,-4,2,-3,0
7120,-6,-1,0,31,7,-2,2,-15
7125,-1,1,5,4,0,11,0,2
7130,-2,-3,-20,-27,-3,-15,-4,-4
7135,-2,-3,5,-20,11,9,0,3
7140,-10,-6,-8,-17,-9,5,2,0
7145,13,2,-7,34,5,-3,1,-51
7150,-2,-1,17,-5,-1,9,-5,19
7155,-11,-3,0,-23,-14,-10,1,14
7160,0,2,17,-9,22,-5,-3,-25
7165,2,-1,-6,10,6,7,2,21
7170,-4,-4,-9,-18,-20,-20,-1,-13
7175,11,4,19,25,2,5,0,10
7180,-12,0,6,-15,-7,-8,-5,-22
7185,-7,-2,-4,-9,8,-1,-1,18
7190,8,3,27,29,6,2,3,-11
7195,-9,-9,-24,7,5,-14,-5,13
7200,-6,-5,0,-28,-6,0,0,-31
7205,13,3,11,7,-11,5,-3,52
7210,5,5,-7,-7,8,17,4,-2
7215,-7,-5,-12,-25,-17,-1,-2,-12
7220,-4,-4,19,39,2,2,-2,4
7225,-16,-5,-4,1,-2,-2,-4,-28
7230,10,-2,-12,-58,26,20,4,21
7235,11,1,-8,33,-13,-26,2,6
7240,1,3,-3,13,-4,-12,-1,-1
7245,-7,-3,-3,-11,-9,0,0,0
7250,-3,-3,29,-14,3,0,-7,15
7255,2,0,-2,27,15,24,-2,-16
7260,8,-1,-9,-18,-13,-38,3,34
7265,-4,-5,-6,-2,-23,-10,-5,-8
7270,-2,3,2,19,17,14,-1,-20
7275,-9,-1,11,-40,-29,-12,-6,-14
7280,3,0,-10,33,19,30,2,29
7285,8,4,8,-35,-13,-6,5,33
7290,-12,-5,12,10,-11,-15,-7,-48
7295,1,0,-21,55,25,14,2,12
7300,10,2,-5,-16,-4,6,-1,-10
7305,-8,-3,-8,-19,1,-20,-3,19
7310,6,3,16,22,-2,-9,0,7
7315,-9,-2,13,1,2,-7,-2,-23
7320,-5,-2,3,-20,-7,0,-3,7
7325,14,5,0,19,16,4,1,-20
7330,-4,-3,-19,-8,-18,-8,1,-20
7335,-5,3,27,26,6,-3,-3,9
7340,-6,-1,11,9,3,11,-2,-5
7345,5,2,-23,-18,-7,-14,4,12
7350,5,-5,-29,2,-4,11,3,2
7355,-3,0,22,-19,-6,-26,0,-18
7360,-6,-3,-12,-4,0,11,-6,12
7365,6,1,8,16,-1,-5,-2,4
7370,-8,-2,-25,7,-5,3,-2,-25
7375,1,-6,-10,-41,12,8,-2,11
7380,7,1,11,0,-7,-10,-5,-12
7385,-6,-3,10,15,3,-14,-2,-6
7390,-9,-1,-21,-16,-24,-12,-2,-7
7395,-2,1,-4,-3,1,32,4,-17
7400,3,-2,-12,-12,5,-10,0,17
7405,-4,-1,7,31,6,17,0,5
7410,-6,-5,-7,-13,-1,-24,0,-9
7415,2,0,-10,1,7,-3,-1,4
7420,-12,-2,13,-16,-21,10,2,1
7425,4,2,5,42,39,7,-4,-18
7430,16,2,6,9,0,-27,1,22
7435,7,1,-5,-6,16,5,-1,10
7440,2,-4,-22,-10,-29,-1,1,5
7445,-15,-4,37,-25,-16,-1,-4,-20
7450,3,0,-8,36,9,0,1,17
7455,5,3,9,28,11,6,2,-16
7460,-1,-2,-3,0,5,-8,-1,15
7465,-8,0,0,-24,-16,7,-4,-21
7470,-3,0,9,-29,-5,1,-2,8
7475,-1,-6,-26,9,1,4,-4,9
7480,10,5,13,13,6,-7,1,-10
7485,-12,-8,-9,-4,-4,-1,0,9
7490,3,1,9,-7,-4,0,-3,-9
7495,-6,-3,8,18,-20,-12,-7,11
7500,-8,-3,-3,-51,28,10,1,-3
7505,12,2,4,38,-5,19,-1,1
7510,-3,-3,3,4,10,10,0,-6
7515,-8,-3,-1,-18,-11,-19,-1,5
7520,6,2,14,21,-10,-22,-4,-20
7525,-8,-6,-35,-40,3,-4,2,2
7530,-4,-2,-3,5,12,21,2,12
7535,2,3,0,18,-15,-8,0,-27
7540,-5,0,6,-3,8,12,1,12
7545,8,0,-3,9,10,26,1,-9
7550,5,0,2,8,-14,-19,-1,24
7555,0,0,-8,-27,-2,9,1,9
7560,2,0,1,15,12,7,-4,-25
7565,-16,0,1,-7,-41,-23,-1,-22
7570,-5,-6,-18,-37,7,6,-3,12
7575,16,1,-16,-4,2,-4,2,6
7580,1,1,0,-1,9,1,4,17
7585,6,0,-7,4,10,10,-1,-9
7590,-2,2,17,4,-1,9,0,20
7595,-11,-2,-4,-33,-16,-13,-6,-10
7600,-5,-3,2,24,1,-3,0,-25
7605,-4,-1,20,-27,7,-3,-3,-13
7610,7,0,-11,6,-8,-3,3,26
7615,6,2,0,14,3,18,0,13
7620,7,1,-5,-2,-11,4,3,-1
7625,-1,1,-1,-20,8,5,1,22
7630,-12,-1,-11,25,-6,-11,-7,-30
7635,3,0,-1,-10,2,-6,-1,0
7640,-10,-7,-9,14,-12,6,-3,10
7645,1,3,1,10,26,-5,-1,-1
7650,-6,0,-8,-20,-8,-8,0,-9
7655,4,4,18,19,8,4,2,12
7660,-8,-4,-13,-30,-5,-4,1,-7
7665,-2,-7,-24,-24,-7,-3,-6,1
7670,2,3,5,19,16,6,3,-4
7675,-9,-3,18,27,-21,-15,-5,-16
7680,4,0,4,-4,6,12,0,14
7685,0,3,-1,-7,7,-8,0,1
7690,-8,-1,19,-13,-36,-5,-3,-29
7695,-10,-3,-12,-14,11,-11,3,8
7700,25,6,-6,21,-9,-1,1,4
7705,2,-2,-2,-3,-18,-19,0,16
7710,-10,-4,-9,2,5,-8,-2,-18
7715,7,1,8,-4,13,11,2,5
7720,-8,-3,-1,-12,-6,0,-2,1
7725,-6,-2,2,14,4,-7,2,3
7730,21,5,5,-3,3,-10,1,-8
7735,-5,-4,-1,-1,-2,1,-4,6
7740,-5,-5,-18,-11,-1,2,-3,-22
7745,-1,1,7,-18,-6,11,1,7
7750,-2,-4,7,35,10,4,1,12
7755,-4,-3,-7,10,5,4,1,-4
7760,4,0,0,-1,5,-1,-1,-4
7765,-4,-1,-23,-44,-11,9,1,2
7770,-3,-2,-8,3,9,-3,0,-11
7775,5,1,1,-7,-9,1,-1,20
7780,-7,1,16,5,6,-12,-3,6
7785,11,2,18,8,-15,17,-6,1
7790,4,-1,-4,-27,-4,1,2,-9
7795,1,-4,-10,27,19,14,4,26
7800,-1,-2,-14,-10,-5,8,-3,0
7805,13,3,1,12,-2,-9,-1,-19
7810,9,1,12,-1,7,6,0,17
7815,2,0,1,-10,-4,8,-2,-20
7820,-6,0,8,3,-13,-10,-1,-11
7825,-13,-5,8,-2,9,-6,0,2
7830,-21,-4,17,26,-2,14,-3,25
7835,20,3,-8,6,18,7,-1,-6
7840,-1,0,-15,-5,-12,-16,0,-6
7845,-7,1,30,3,-1,7,-4,4
7850,6,-1,-2,28,1,-13,4,-19
7855,-4,-3,-6,-4,-3,7,0,20
7860,4,2,19,14,1,4,0,12
7865,-8,-1,-3,17,0,-7,-3,-34
7870,11,0,-12,-22,14,-10,-5,17
7875,-4,-1,-10,-24,-5,-4,3,4
7880,1,0,0,8,-3,-26,-4,-14
7885,-9,-4,-11,-5,-5,1,1,16
7890,1,2,3,-8,0,1,-4,-1
7895,-6,-2,6,20,-4,-3,-3,-10
7900,-4,-3,-10,14,12,20,1,-14
7905,10,-1,-2,-4,-11,-22,1,1
7910,-12,0,17,-38,-21,-4,-4,-10
7915,3,2,8,47,4,0,3,5
7920,5,-1,-1,2,11,6,0,0
7925,-3,-4,-7,-20,0,2,0,-20
7930,-3,0,-13,7,-4,1,-2,32
7935,-18,-3,6,-30,-8,-1,-3,-13
7940,2,1,27,-7,-8,-17,-3,-22
7945,12,-1,-14,-9,16,6,2,28
7950,-20,-6,-24,-15,-10,-9,0,-64
7955,5,1,-7,-22,-1,-4,4,55
7960,21,2,14,28,9,-1,-5,1
7965,-5,0,11,-8,-5,-11,-2,-6
7970,-3,-5,-6,2,4,8,-2,-14
7975,-13,-3,2,27,-6,-2,-1,-23
7980,-6,0,5,-8,-4,10,3,-3
7985,3,0,-14,-14,-3,-20,-3,-1
7990,9,2,-7,-3,5,4,-3,3
7995,0,-2,-11,-28,-8,5,-2,-24
8000,-10,-2,3,25,-2,-10,1,-1
8005,-3,-2,-16,-1,-2,4,-2,17
8010,0,-2,-6,2,10,-2,-1,21
8015,6,1,13,-13,4,-8,-4,-19
8020,-2,-2,-24,-22,-5,0,4,-7
8025,-5,-6,-5,10,-1,-1,0,-5
8030,-15,-4,12,-27,-25,2,-2,-11
8035,15,4,2,30,41,0,-3,16
8040,-5,-3,-1,-6,1,2,-1,-1
8045,3,2,3,15,-4,-14,-2,21
8050,-5,1,19,6,-8,9,0,-21
8055,-13,-8,-12,-6,-8,-28,-6,-36
8060,7,0,-13,-18,4,-1,-1,29
8065,7,3,7,62,15,19,7,9
8070,2,-2,-1,-13,-6,-18,2,-1
8075,-3,-1,-3,-16,-9,-1,-1,0
8080,3,4,-3,17,7,3,-2,-3
8085,2,-2,-3,-6,-2,-6,0,-13
8090,-7,-3,-3,10,2,5,-2,-11
8095,-2,-4,-1,-9,-12,-5,-2,11
8100,-6,-2,-7,-22,-10,-8,-3,-4
8105,7,4,4,-15,11,20,-2,3
8110,0,-3,-9,23,-7,-22,2,5
8115,-16,0,8,-33,0,32,0,-14
8120,11,3,0,29,9,-12,2,8
8125,-4,1,11,-16,-5,-4,-1,-13
8130,-1,-2,-21,9,12,4,-3,5
8135,-8,2,3,-9,-11,-3,1,-9
8140,-10,-7,-4,-21,0,12,-4,1
8145,-2,-2,-14,12,3,-9,1,-6
8150,11,3,-6,15,13,2,1,3
8155,-10,-4,5,0,-10,23,4,-5
8160,-2,-3,1,-25,-14,-10,-4,-18
8165,-1,2,7,4,-13,-1,-2,29
8170,9,3,-6,-18,17,19,2,14
8175,9,0,-14,-2,-33,-70,-5,-3
8180,-10,-4,-14,-10,0,11,4,-4
8185,-4,-4,3,-2,-4,-1,1,5
8190,3,0,-4,2,15,13,-1,0
8195,11,5,-6,9,-3,5,1,7
8200,6,-1,-19,-28,-3,-16,3,5
8205,-3,0,2,22,5,6,-6,-9
8210,0,0,10,11,9,-1,4,18
8215,-8,-2,-4,-12,5,26,3,-3
8220,0,1,9,0,-2,-6,-4,-12
8225,-8,-2,-9,8,3,13,-4,-13
8230,4,0,1,-4,-10,-17,-5,2
8235,-10,-4,-4,-4,5,0,-2,-24
8240,2,2,14,29,11,6,4,37
8245,10,2,-9,14,4,3,6,6
8250,-8,-1,13,-32,-14,0,0,-13
8255,-1,-2,1,19,-5,-9,-5,3
8260,-2,-2,-3,-2,0,25,0,4
8265,-6,-4,-14,3,-7,-33,-6,-29
8270,17,2,-8,4,-3,2,-1,25
8275,9,2,6,-24,2,-2,-2,7
8280,-9,-2,10,14,-4,5,-5,-8
8285,-4,-1,9,-40,-8,3,3,8
8290,-3,0,-4,31,3,-7,-5,-9
8295,-10,-4,14,14,10,17,-6,-27
8300,-4,0,-8,-17,-7,-20,2,-3
8305,7,1,-4,26,1,18,3,26
8310,-15,-6,-9,-39,-9,-14,-5,-21
8315,12,6,-1,21,3,-3,5,6
8320,-8,-2,3,16,11,3,-8,-21
8325,-20,-7,-10,-7,-11,2,-3,10
8330,19,6,5,-5,-7,-4,1,-19
8335,-4,1,32,7,8,-8,-3,18
8340,-4,-3,-15,-28,-12,7,0,-15
8345,2,0,4,14,12,2,1,-6
8350,-3,0,-5,-3,-4,-7,-1,0
8355,0,-2,-4,19,-5,-18,-4,2
8360,-2,0,0,-2,3,-2,4,-3
8365,-16,-2,28,1,-3,-1,-3,0
8370,39,8,-10,16,5,13,3,34
8375,6,2,-17,-16,10,1,0,-8
8380,-1,0,15,7,3,-8,-4,21
8385,-2,0,1,-17,-21,12,2,-24
8390,-23,-8,2,-6,-5,-8,-3,-19
8395,12,2,-9,-8,4,2,3,43
8400,17,5,-1,16,7,-5,-1,-18
8405,16,4,-1,-21,-2,-3,-2,-2
8410,-12,0,33,-7,-9,16,-3,-6
8415,-9,-8,-16,1,-6,-7,2,-12
8420,-13,-7,-9,-5,15,2,0,8
8425,-1,0,6,21,-11,-10,-3,1
8430,5,2,-3,-9,-1,19,2,-19
8435,4,-2,-4,-34,-6,-2,1,20
8440,-9,-3,-8,35,-6,-6,-4,-26
8445,-8,-1,-1,-13,5,-3,0,-9
8450,-4,-3,-7,-1,6,5,-1,37
8455,7,2,-1,3,4,-10,-3,-6
8460,-6,-6,-7,-26,-3,11,-1,-27
8465,-2,-4,-1,6,2,-16,-5,16
8470,5,-1,-10,-1,-5,-7,4,29
8475,-5,3,15,11,0,12,1,-46
8480,-8,-3,-2,-9,-15,-2,-3,32
8485,16,2,-9,34,22,5,1,-8
8490,-4,1,10,-8,-11,-12,-3,-15
8495,4,-4,-16,-10,-4,11,-1,27
8500,-8,-2,2,-16,-12,-1,3,3
8505,5,-1,-1,-87,-3,-25,-5,-4
8510,-1,-1,-21,63,18,13,2,3
8515,3,-1,-10,2,2,-13,-1,-31
8520,-1,-2,3,-1,-8,-2,-3,15
8525,-4,-5,-14,-24,-12,4,1,17
8530,5,1,4,-20,-4,-15,-1,-1
8535,-6,0,8,10,11,3,-5,-19
8540,3,-5,-1,37,-3,-4,-2,-12
8545,-9,-2,-3,18,4,-1,4,9
8550,5,1,-5,-12,-4,4,-2,9
8555,-4,1,40,30,0,1,0,-1
8560,5,-1,-30,-34,-1,6,-5,-9
8565,4,3,-2,35,13,13,0,-18
8570,-18,-5,4,6,-10,0,0,-17
8575,-10,-2,-4,-32,3,-5,-4,-7
8580,13,2,3,7,-23,15,1,18
8585,2,1,-2,-25,6,-2,2,6
8590,5,-3,-18,3,7,-2,-4,-16
8595,-6,-6,-26,-32,-9,1,0,15
8600,2,4,19,32,3,-1,0,0
8605,-3,-5,-7,-3,-6,-3,-5,-26
8610,-9,2,18,-16,-5,15,2,-1
8615,-1,-2,17,14,-7,-21,-5,-4
8620,3,-2,-12,-5,16,-4,2,1
8625,4,0,-8,1,-1,2,3,19
8630,1,0,1,-8,10,0,-2,-6
8635,-3,0,-16,-9,-16,17,1,1
8640,-1,2,20,0,8,-9,-3,15
8645,-10,-4,7,-28,2,1,-3,-33
8650,-9,-4,-10,22,-25,-7,0,-9
8655,38,5,-6,16,19,1,4,56
8660,-2,1,-9,-32,-6,-16,-2,-13
8665,3,1,3,31,0,2,-2,1
8670,-12,-3,4,-8,5,-6,3,0
8675,-4,2,7,-6,-8,6,-3,-39
8680,12,0,-20,-11,3,12,0,31
8685,-2,2,36,-10,4,-33,-5,-1
8690,1,-6,-14,4,1,8,4,3
8695,-11,-2,-11,18,4,6,-1,-15
8700,-12,1,31,11,-3,-1,-4,-11
8705,3,0,-17,-6,-9,-1,-2,14
8710,9,0,-19,-26,3,7,2,7
8715,-12,-3,13,3,0,1,4,16
8720,-3,-2,-10,6,4,4,-9,-32
8725,5,0,-5,12,-3,-12,-2,19
8730,-3,-2,7,-26,-20,-13,0,16
8735,1,-1,2,21,16,-5,-6,-20
8740,-2,4,7,11,9,3,5,-25
8745,2,-3,2,-1,10,12,1,26
8750,0,-1,-24,-2,1,-9,-3,1
8755,-5,-2,9,-25,-10,2,-2,-8
8760,2,-2,-12,13,-4,-8,2,4
8765,-2,-4,-21,-38,-8,6,1,-13
8770,-4,0,22,20,3,-6,-1,6
8775,0,-2,-19,4,-6,-9,-7,0
8780,-1,-2,11,9,-2,-6,0,15
8785,-9,-4,-3,8,-1,11,3,-26
8790,3,0,4,-6,-2,0,-7,-1
8795,22,4,2,20,-3,-6,3,34
8800,1,0,-7,-12,22,3,-1,-19
8805,-9,3,27,18,-22,-7,-4,-15
8810,1,1,4,7,14,15,4,-9
8815,-13,-4,-25,-26,-20,0,4,-1
8820,-6,-6,4,-4,6,-6,-1,-6
8825,11,5,-12,25,23,21,3,1
8830,12,0,3,16,-4,-36,-5,11
8835,-13,-6,3,-24,-7,12,1,-13
8840,14,5,5,4,-14,-8,2,27
8845,-4,-2,-12,-6,5,3,-2,-18
8850,0,3,5,-14,6,4,-4,-6
8855,-8,-6,17,1,-18,-5,-2,-2
8860,-16,-3,-8,14,3,-5,-2,-28
8865,1,-3,-4,10,-1,0,-3,17
8870,3,4,-6,1,8,6,-1,8
8875,7,4,11,-11,-7,-5,-6,-6
8880,-11,-4,1,-29,-12,5,0,-8
8885,-9,-4,-3,41,2,-5,-1,-16
8890,-13,-4,19,19,-4,-5,0,-35
8895,8,2,-15,-1,18,2,0,16
8900,5,1,1,-16,-14,-19,-2,23
8905,-1,1,-6,-16,-3,11,0,-5
8910,-3,-5,1,5,12,13,-4,-15
8915,-1,0,-7,-1,-6,-13,0,19
8920,-5,-4,8,-25,-2,6,0,1
8925,-2,-4,4,-8,-15,-3,-7,-13
8930,4,3,-2,26,34,4,1,-1
8935,-14,-5,-10,-6,-5,3,1,-5
8940,14,3,9,-34,-9,7,2,31
8945,-2,-5,-9,-5,-1,-8,-3,-15
8950,8,-2,-14,41,-5,2,1,22
8955,-5,1,-4,0,13,9,0,-13
8960,-4,-4,-5,1,-3,-12,0,-31
8965,14,2,7,-10,2,8,2,23
8970,-5,0,1,-45,-21,-21,-5,-8
8975,3,-1,3,14,-4,-9,-2,-16
8980,-2,3,4,23,7,21,-2,12
8985,-12,-3,6,1,3,-11,1,-24
8990,-9,-3,15,-2,-10,18,2,4
8995,3,0,-22,-34,0,-23,-5,-23
9000,8,0,5,11,11,13,-1,23
9005,-5,-5,-4,4,-17,-38,-4,-12
9010,-2,2,11,-11,-1,-4,-2,15
9015,-6,-2,-1,-3,-10,6,-1,-2
9020,8,-1,-39,-9,-10,-13,0,14
9025,4,1,-2,-2,33,14,-4,10
9030,-9,-5,-5,-37,-8,14,0,-23
9035,-1,-2,-2,41,5,-1,1,1
9040,12,3,5,-11,-7,-29,-2,26
9045,9,4,26,-13,0,10,1,-8
9050,-6,-3,-19,-3,-22,-11,-3,1
9055,2,-3,-12,5,5,1,3,8
9060,-14,3,32,11,-9,-2,-8,-28
9065,-2,-2,-12,24,7,16,1,17
9070,11,-1,-2,-27,-15,-55,-2,0
9075,1,1,15,13,2,6,-1,-16
9080,-11,-5,-14,-7,-7,1,-1,12
9085,8,1,-7,13,-8,-12,1,37
9090,-5,4,13,-38,12,28,-2,-18
9095,18,2,-6,20,-11,-25,0,22
9100,-7,-2,8,4,14,9,3,-15
9105,-2,0,-12,-35,-7,7,1,1
9110,6,1,-5,45,3,13,1,-11
9115,-8,-2,8,-42,-8,-16,-4,-16
9120,0,1,-2,8,-2,0,-1,24
9125,-6,-6,0,14,-13,0,-2,-26
9130,-3,-1,15,7,8,6,-5,19
9135,-6,-1,-14,-23,19,-1,3,14
9140,23,0,-10,14,-14,12,0,-17
9145,-4,0,-4,-1,-4,-10,3,9
9150,-1,-4,9,2,1,6,-1,-25
9155,-19,-4,-5,-12,-15,11,-3,-9
9160,0,-4,-29,-19,9,5,0,15
9165,2,5,21,4,-11,-25,2,-9
9170,-4,-5,-18,7,6,-13,2,18
9175,6,4,25,-47,-6,17,-3,-8
9180,-15,-6,-3,35,5,-13,-4,-26
9185,2,1,-2,-9,-13,0,-1,3
9190,-5,0,-1,3,0,9,-2,2
9195,-6,-6,-20,-25,-9,3,-1,-21
9200,22,7,3,13,18,5,-1,31
9205,2,-2,-3,-9,4,8,-3,8
9210,-1,-2,-4,-7,-8,1,3,-6
9215,-1,3,26,38,4,0,0,-8
9220,-20,-2,5,-33,-2,-4,-3,-15
9225,5,-3,-19,10,-9,21,-1,-10
9230,19,3,-5,6,10,-3,-1,-17
9235,3,3,17,22,1,1,-1,40
9240,-5,-4,-14,-25,3,-8,2,-17
9245,-9,1,15,5,-3,2,1,14
9250,4,0,-9,-1,-18,-17,-6,-3
9255,-4,-3,-8,28,8,12,1,-11
9260,-6,-1,13,-1,1,11,2,-3
9265,2,0,10,-2,-15,-13,-5,13
9270,-2,-4,-8,-1,4,0,2,3
9275,11,0,-16,0,8,-2,-2,14
9280,-4,-1,1,-6,-18,-4,-1,-15
9285,-8,-1,7,-22,10,16,-3,-49
9290,5,2,-9,30,10,-9,0,54
9295,7,-1,-2,10,11,-22,-4,5
9300,2,-2,1,14,-9,14,3,-2
9305,1,1,10,1,11,-22,1,-9
9310,-11,-5,-5,-36,-8,13,1,-10
9315,-3,-3,-24,-28,-11,2,-4,-5
9320,-4,0,10,19,20,1,2,7
9325,14,0,-12,9,4,10,-3,-10
9330,-8,2,-1,-6,6,-7,2,-2
9335,-10,-5,9,-47,-25,16,-1,1
9340,-6,-2,0,16,-10,-8,-3,-9
9345,-5,-3,9,-8,1,-2,0,14
9350,-6,-7,-23,14,-2,-10,-2,-5
9355,3,3,1,5,12,5,4,-5
9360,15,3,0,-8,-2,9,-1,7
9365,-16,-4,-1,16,-16,-23,-5,2
9370,14,3,11,-7,0,1,-3,1
9375,-7,-3,3,17,8,9,3,-5
9380,-6,-1,4,9,-2,-8,-2,0
9385,1,1,1,6,11,3,3,5
9390,-3,-1,-4,-25,-1,7,-4,-11
9395,9,1,-10,9,-3,-1,2,-2
9400,-8,-4,19,-13,0,-5,1,-5
9405,3,-1,-20,-28,-3,-1,3,25
9410,-8,-4,27,34,-7,-36,-7,-16
9415,0,1,7,19,-3,-1,0,8
9420,2,-1,-8,17,-5,-4,0,-4
9425,-5,-4,5,17,32,7,1,2
9430,5,-1,-22,-21,-25,5,1,-1
9435,-4,-2,4,-10,6,-7,-1,-1
9440,-10,2,14,-6,-5,0,-4,0
9445,7,-2,-5,28,4,-3,-1,3
9450,-4,-4,-13,-14,3,16,1,-2
9455,-9,-1,21,-2,4,-13,-4,-13
9460,-7,0,-2,-29,-11,15,-1,-6
9465,-2,2,9,14,-8,-17,-2,-3
9470,10,1,10,46,16,-1,-2,1
9475,-1,-3,-6,-7,-2,2,0,24
9480,0,-2,-10,5,0,-5,0,-32
9485,-8,-2,1,-33,-2,2,-3,21
9490,7,2,1,-1,-1,2,-3,-21
9495,-9,-3,-3,26,4,13,3,-8
9500,6,-3,-6,-32,0,-8,-2,17
9505,-3,-2,-9,0,-27,4,-2,-9
9510,16,9,25,1,31,9,3,11
9515,5,-5,-13,19,10,-18,6,32
9520,4,1,-11,-5,-9,-29,-4,-35
9525,1,-1,15,-11,-11,8,-3,-10
9530,-17,-9,-14,23,3,-3,0,-1
9535,1,-1,-13,-9,3,6,-2,-12
9540,5,-1,4,32,7,6,3,28
9545,-2,1,-9,-11,-2,0,-2,1
9550,-6,-1,12,-23,-2,-5,0,16
9555,8,1,2,11,-32,3,-3,-6
9560,-11,-4,-8,-7,11,5,0,-2
9565,-2,-2,-23,17,8,4,1,-16
9570,14,6,0,-14,-12,12,4,14
9575,-7,1,38,1,-9,-9,-3,-1
9580,2,-1,-23,-14,0,12,0,15
9585,6,0,-8,31,6,2,-1,-12
9590,-16,-4,-16,-13,-11,-1,-2,-15
9595,14,2,-2,-6,10,5,4,20
9600,9,5,12,21,11,10,-1,-3
9605,-7,-9,-17,-44,-9,-28,-4,10
9610,-5,-1,-4,10,-8,-5,-2,-21
9615,-3,-1,16,22,-3,22,-2,1
9620,2,2,-12,-24,3,-7,0,-2
9625,-1,0,-12,-14,4,6,4,-21
9630,-1,0,10,-17,-9,-4,-5,29
9635,-10,-3,-5,6,13,-8,-1,-7
9640,14,0,10,16,-14,-17,3,3
9645,0,-1,-2,2,5,7,-2,6
9650,-5,-2,5,-27,-34,-12,-4,-20
9655,-18,-4,-19,-14,36,18,-2,-1
9660,5,1,6,15,4,-3,-4,1
9665,1,4,7,8,-13,-10,-1,1
9670,-15,-5,-1,-20,4,5,-1,4
9675,7,-4,-31,4,-3,-11,0,-11
9680,-16,-4,1,-7,-1,15,-2,-7
9685,9,5,7,6,2,-11,0,24
9690,-2,-1,10,-13,-3,8,0,0
9695,6,4,-4,17,-3,-29,-5,-10
9700,-5,-3,10,-9,0,-3,0,-13
9705,0,-2,2,15,0,7,0,8
9710,11,5,-3,3,-2,-7,3,-2
9715,2,0,6,-30,-6,7,-4,-9
9720,-12,-7,7,14,-6,7,-1,14
9725,5,2,-12,-17,5,1,-2,-2
9730,4,1,-4,34,5,2,2,-5
9735,6,0,-21,-77,-20,3,1,15
9740,-3,7,53,49,7,0,-3,-20
9745,-5,-5,-6,-29,10,3,3,5
9750,4,-4,-1,-1,6,1,2,4
9755,-8,-3,-6,3,-5,-3,-2,-17
9760,-2,1,-9,-36,-2,4,1,7
9765,-6,-2,-3,36,-17,-33,-5,-6
9770,-4,-1,9,2,7,-6,-3,-18
9775,-2,-2,-3,-11,-2,3,1,14
9780,5,1,-16,-6,0,3,-2,-10
9785,-2,-1,17,-11,0,8,-1,-4
9790,-6,-5,-16,25,-1,8,-1,-2
9795,5,0,4,18,9,-1,5,4
9800,-5,-2,-19,-24,10,-13,-3,-29
9805,-3,1,6,-5,-4,10,-3,23
9810,-9,-3,10,14,-10,-7,-5,-15
9815,4,4,10,-5,1,4,-2,3
9820,18,-1,-25,-15,-13,-6,8,19
9825,3,-2,9,24,19,2,-5,-3
9830,6,2,-1,-7,5,13,4,7
9835,-12,-3,-5,1,-5,-3,-1,-12
9840,-14,-3,37,-8,-6,-1,-6,-5
9845,-6,-1,-18,-13,-13,19,0,-19
9850,5,-1,-19,1,18,7,-1,-3
9855,-5,-2,-1,8,-3,-17,-1,-9
9860,10,5,2,-9,-4,-7,3,34
9865,-3,-4,-5,-12,-11,1,1,-1
9870,-3,1,3,17,4,-9,-5,-1
9875,-1,1,4,8,-9,3,-2,-15
9880,3,-3,-18,4,25,2,-5,3
9885,-5,-2,-15,-13,-16,-16,2,4
9890,13,2,13,-1,-6,-6,0,11
9895,0,-2,-8,-5,-2,-6,-2,8
9900,-10,-1,14,3,-9,4,-3,-8
9905,2,-4,-17,-15,22,17,1,18
9910,4,-2,-9,9,-6,1,0,5
9915,10,1,1,7,-3,6,-2,-9
9920,-2,-2,-6,3,-7,0,2,4
9925,-8,0,35,-1,-1,3,-4,-20
9930,-6,-2,-21,-20,-4,-5,0,-3
9935,-2,0,-5,30,16,25,3,16
9940,14,0,-13,10,-2,-1,-3,-6
9945,2,2,6,0,-1,-3,2,-16
9950,-1,0,10,-18,-7,2,0,15
9955,-7,2,14,-25,-19,-9,-4,-3
9960,-12,-8,-33,-5,-3,-1,-1,-7
9965,2,3,21,26,12,6,-2,-7
9970,2,1,13,10,-9,-19,-2,3
9975,7,-3,-18,-13,10,3,3,-12
9980,3,2,14,9,-10,-9,-3,16
9985,4,0,2,9,4,9,0,14
9990,-13,-1,-11,17,2,-7,2,-11
9995,2,2,5,0,2,5,2,-5
10000,-8,2,1,-9,3,-1,-1,-10
10005,4,1,6,-3,2,14,0,-14
10010,-7,0,10,-9,-5,-36,-3,-24
10015,2,-3,-5,26,4,-5,0,41
10020,-11,-4,-5,6,-8,-6,0,-12
10025,16,2,-1,-1,9,-6,-3,-4
10030,-1,-1,-13,-11,6,19,-4,-2
10035,4,2,10,-11,-9,-1,-3,-4
10040,-14,-3,21,7,-3,-12,0,-11
10045,0,-2,-4,18,8,9,4,-1
10050,-1,-6,-16,-14,-15,-5,0,20
10055,5,1,14,30,17,0,1,25
10060,-8,-4,-17,-12,-6,6,-5,-18
10065,3,3,-1,-5,-6,-8,-1,-3
10070,-7,-3,4,-10,-6,-7,-2,-26
10075,-6,0,1,-6,8,-1,-1,39
10080,5,-4,-14,-26,-22,-13,-1,4
10085,-10,-5,-11,0,-15,9,-5,-10
10090,4,1,10,22,15,14,2,8
10095,-7,-3,-12,-23,14,-13,-1,-12
10100,-1,0,6,-9,-4,5,-1,-9
10105,-13,-1,17,31,-8,-4,-3,-5
10110,5,-3,-26,-21,-8,-3,-2,12
10115,-8,-2,16,8,-12,4,0,-19
10120,2,-6,-15,4,10,7,2,7
10125,-3,3,1,-19,1,-15,0,-6
10130,2,0,7,23,5,10,0,34
10135,-4,1,8,-5,-11,-3,-4,-34
10140,3,2,-14,-34,8,3,1,3
10145,-2,-5,-1,19,1,5,3,10
10150,-3,-1,-1,-11,7,9,-1,1
10155,-4,-2,-18,-11,-5,-2,-6,-27
10160,11,5,18,17,0,0,1,23
10165,-1,-5,-21,-38,-7,-11,-6,-10
10170,-6,-2,4,-8,3,9,6,6
10175,6,1,-4,-3,-14,-28,-5,-10
10180,-2,1,3,34,17,5,1,-24
10185,-2,0,5,-19,-9,-4,0,25
10190,-2,0,15,20,15,2,-3,6
10195,0,-4,-5,-4,-10,6,2,3
10200,-6,-2,-26,-5,2,13,-4,-32
10205,0,-3,-17,4,0,-10,2,23
10210,10,5,5,2,-7,1,-3,-31
10215,-3,0,11,17,14,0,-2,23
10220,4,2,-2,1,-9,7,0,8
10225,-5,-1,-5,7,6,7,1,-8
10230,-4,-4,-5,-20,2,14,-3,-11
10235,-9,-1,37,-31,-13,-31,-4,-2
10240,5,-2,-9,31,-3,-9,-1,-8
10245,4,2,5,-24,-4,3,4,9
10250,-13,-2,-4,-8,1,-1,-3,-17
10255,5,-1,-6,17,13,5,1,-5
10260,1,0,9,-2,1,18,-3,6
10265,1,1,0,1,-9,-5,1,-1
10270,3,1,6,-7,-7,-6,0,-5
10275,-5,-2,-18,2,-5,20,1,-17
10280,-9,-4,-4,-11,6,-21,-1,6
10285,-4,-4,-13,-5,5,-7,-3,-6
10290,12,3,-4,20,-3,-16,-1,13
10295,6,2,-4,-10,1,11,-1,-4
10300,-4,-2,6,7,-4,0,1,32
10305,1,-2,-9,-16,-2,7,-4,-28
10310,-4,-1,-3,-14,7,-8,-1,22
10315,6,-1,10,26,-12,5,0,-5
10320,4,1,12,7,5,-18,1,-1
10325,-7,-2,1,-12,-21,-7,-5,-2
10330,4,1,-9,-18,17,3,1,-6
10335,-3,-3,-2,44,4,-6,-1,10
10340,5,-1,-23,-3,10,11,-1,0
10345,-4,-2,21,-5,-8,-32,0,11
10350,6,-1,2,6,-11,1,0,-9
10355,2,3,-14,-42,2,-4,0,28
10360,-10,-7,-3,30,-8,-7,-7,-15
10365,19,3,-5,10,16,6,0,11
10370,-4,1,-7,-1,-14,-8,1,-1
10375,-8,-4,-12,-34,-7,-1,0,-6
10380,-5,5,12,-38,-6,5,1,-22
10385,1,-4,-16,8,-2,1,1,22
10390,7,2,5,38,7,6,-1,-2
10395,-4,-3,2,-4,-1,5,-3,-5
10400,0,2,18,-3,-9,-11,-1,-4
10405,1,-2,-1,16,20,2,0,-6
10410,-6,-4,1,-7,1,4,1,13
10415,-3,4,17,15,-1,6,1,-25
10420,-5,-1,-6,-18,-2,-4,-2,11
10425,13,5,0,2,-13,-11,-4,-8
10430,-4,-2,-9,22,18,16,4,20
10435,0,-1,-7,-4,-4,-13,-4,-47
10440,-6,-3,12,-23,-13,5,-2,19
10445,0,2,2,-21,-5,1,-5,-12
10450,1,3,0,34,9,2,4,1
10455,-5,-4,2,-23,-6,-4,-1,-8
10460,6,1,-14,34,16,21,3,5
10465,-12,-3,-4,-17,-15,-23,-1,-4
10470,0,0,7,-32,-12,-3,-4,7
10475,8,1,2,31,10,6,-2,5
10480,-10,-6,-27,-50,5,-7,-5,-37
10485,12,2,-12,4,6,15,4,55
10490,0,0,7,0,-14,-12,-3,-25
10495,-6,-2,-15,-5,-10,17,-1,22
10500,6,-2,11,-10,-6,-7,-2,10
10505,-11,-1,5,36,7,9,1,-31
10510,6,1,1,-36,1,-3,3,4
10515,-5,-3,-2,37,11,-5,-1,2
10520,22,1,-4,-4,-1,-1,5,27
10525,-13,-3,9,9,-11,6,-2,-22
10530,-4,3,11,-27,-6,1,-5,1
10535,6,-2,-8,22,13,2,-3,2
10540,-1,0,-1,22,-3,-9,3,-1
10545,-1,0,7,-3,4,-7,-1,-7
10550,-9,-7,-9,-24,-11,-6,-2,-11
10555,5,1,-2,-22,-10,2,1,10
10560,-3,-2,-28,4,8,-8,-1,6
10565,2,-2,-9,-33,-21,-2,-4,-13
10570,-3,0,-1,55,12,-2,1,-11
10575,8,-2,-3,-23,-4,6,3,17
10580,2,0,13,21,7,0,-2,-1
10585,-9,-6,-4,-18,-5,4,0,-7
10590,-8,-4,-9,7,-9,-5,-2,6
10595,-16,-7,-14,-51,-11,-10,-6,-14
10600,16,10,33,55,-1,-1,-2,10
10605,0,-1,1,19,12,1,-3,-11
10610,12,2,-3,-8,10,5,2,20
10615,0,0,-1,-8,1,-2,1,-4
10620,-14,-3,0,-36,-17,-4,-5,-7
10625,-10,0,14,36,16,0,-5,-30
10630,-4,-5,-4,6,1,8,1,13
10635,1,1,8,-5,-3,-16,-3,-20
10640,-4,-1,3,-29,-9,6,-1,-11
10645,7,1,-6,45,10,5,1,4
10650,-9,-3,12,-14,-3,3,-1,-1
10655,0,-2,6,-6,4,-12,-3,0
10660,2,2,-1,7,-6,-1,0,19
10665,6,2,10,-28,-8,-9,-3,-7
10670,-4,-4,-10,2,-4,1,-2,9
10675,7,3,-6,19,7,2,4,-18
10680,-10,-6,-9,-2,-5,0,-1,-2
10685,10,-1,-9,0,-2,-1,-3,29
10690,-2,0,3,2,5,-3,-4,-11
10695,4,1,6,1,-7,9,-1,9
10700,-2,-2,-13,-19,9,-10,-1,-19
10705,-8,1,-9,-4,7,5,1,0
10710,0,-2,-4,15,-14,-1,0,13
10715,-8,-3,-18,-5,10,-10,-6,-14
10720,0,-2,3,-4,-3,12,6,7
10725,0,-1,-11,-33,-20,6,2,-4
10730,6,2,-5,-2,1,-34,-6,-32
10735,-4,0,-1,0,-10,1,0,7
10740,-6,2,8,-13,0,-1,-2,10
10745,8,1,7,26,3,-7,0,6
10750,3,3,-10,13,11,17,3,-12
10755,-4,-3,-2,6,-5,-1,2,17
10760,3,-3,5,-4,-1,-4,-2,-4
10765,-6,-3,-1,-9,-4,1,3,-5
10770,16,4,28,14,5,-1,-3,22
10775,-6,0,-1,30,-6,-2,-4,-10
10780,2,-2,6,29,9,-11,0,-1
10785,-9,-2,2,-45,-20,0,-5,-11
10790,-9,-6,-28,-30,0,3,3,4
10795,3,0,-11,6,-9,2,-2,-1
10800,8,2,-1,-5,20,0,-3,11
10805,13,2,-2,-1,4,1,3,10
10810,-12,-4,-5,20,-5,4,-2,10
10815,-5,-3,1,-37,3,2,-1,-20
10820,-9,-4,-17,16,-5,-7,-3,-7
10825,-1,-1,7,-16,4,2,-1,8
10830,-5,0,13,-28,-9,-3,-4,-17
10835,-3,-1,-12,23,12,4,4,11
10840,0,-6,-13,-8,-4,8,-1,-18
10845,-2,3,3,-1,-4,-21,1,-6
10850,-5,-6,-3,-25,1,10,-4,-9
10855,-2,-1,3,-2,-10,2,2,12
10860,-5,-1,8,14,0,5,-1,18
10865,12,1,7,2,8,6,-1,8
10870,-3,0,-10,-16,-11,1,-1,-24
10875,3,0,7,-3,0,-6,-3,7
10880,-11,0,-1,-4,-7,11,0,-18
10885,-9,-3,-6,6,21,3,1,7
10890,12,3,22,-7,-40,-12,-5,6
10895,3,-2,-11,36,8,9,2,3
10900,2,0,-20,-21,-2,-5,2,0
10905,-15,-5,-1,-2,-6,-1,-5,-16
10910,11,2,18,8,26,1,3,-7
10915,-6,-2,-16,-31,-15,-11,-5,3
10920,-3,-1,7,27,-3,-9,-1,-14
10925,4,2,-11,3,5,5,2,22
10930,0,1,-4,-4,0,-3,-5,-2
10935,-10,-5,9,-20,5,-6,2,4
10940,17,5,6,-15,-12,12,-2,15
10945,-10,-2,27,26,-7,5,-1,-11
10950,-2,3,-2,7,3,-9,2,2
10955,9,3,19,31,18,2,2,-9
10960,-6,-8,0,2,-20,-4,0,-1
10965,6,2,7,10,0,6,-1,-4
10970,1,-2,-14,-2,-3,5,-1,6
10975,-6,-1,2,2,-2,-15,1,5
10980,7,6,8,4,18,5,5,1
10985,2,-3,-7,-4,-29,-13,-4,-7
10990,-22,-5,1,16,19,1,-3,-31
10995,4,1,9,-20,-10,-4,-1,22
11000,7,1,2,1,4,1,-3,-33
11005,7,2,-16,-12,5,-1,1,14
11010,-2,-3,-16,11,6,3,-1,-9
11015,-1,2,-3,14,-24,-4,2,9
11020,-12,-6,-10,-5,8,14,3,-19
11025,-2,-3,7,2,5,-8,-3,27
11030,3,-1,-13,11,10,3,-1,10
11035,9,4,4,-16,1,8,-1,-1
11040,-9,-1,0,15,-7,-4,-3,-5
11045,-8,-2,-5,-6,-3,0,-4,-51
11050,-6,0,2,-13,0,-2,5,36
11055,3,0,-4,-9,0,-2,-4,-16
11060,-8,-1,2,-1,7,-6,-2,-2
11065,2,-1,-12,-35,-4,8,0,10
11070,6,1,18,20,8,-4,-3,-7
11075,-6,-3,-9,-3,-8,0,-5,-9
11080,-4,-1,-17,-1,-5,0,0,6
11085,-6,5,47,-35,-4,-4,-1,-10
11090,-4,-8,-53,60,-1,-8,0,-25
11095,12,4,-4,-11,11,6,4,23
11100,2,-4,-3,-3,-16,-4,-3,9
11105,2,0,0,-2,-6,-13,-1,8
11110,-8,-3,17,-33,-14,-5,-5,-20
11115,-28,-9,6,27,12,-16,1,-4
11120,23,7,-13,-39,16,-2,-4,13
11125,0,-4,-22,-12,-3,1,1,-2
11130,13,4,11,1,-9,6,3,19
11135,-7,-6,-21,-25,-4,6,-5,-16
11140,-9,-2,-2,-7,13,3,4,15
11145,6,2,29,33,2,-1,-2,-7
11150,4,-1,-20,-45,-11,-7,1,-5
11155,0,-3,-9,-2,19,18,2,-4
11160,-1,-2,-2,37,-6,2,0,8
11165,3,-7,-24,-8,-3,-15,-4,-18
11170,13,7,38,24,14,8,0,43
11175,4,5,21,-19,-30,-2,-2,-27
11180,-8,-5,-5,7,12,-2,0,8
11185,-2,2,6,20,5,-1,-3,-1
11190,-16,-2,-3,-44,-12,-3,-6,-17
11195,9,4,-4,30,20,11,5,-4
11200,3,1,8,8,-17,-9,-1,7
11205,-2,-3,-12,1,3,4,-2,-4
11210,-7,-3,-7,-42,-21,-12,-2,14
11215,10,4,-9,-7,11,1,3,3
11220,0,-2,-10,1,-9,-2,-1,1
11225,4,-1,-14,-14,6,-5,0,-5
11230,-9,-3,5,15,0,25,2,-7
11235,7,1,9,-4,-15,-14,-3,3
11240,-10,-2,12,2,11,6,-3,-13
11245,-15,-4,-10,-20,4,9,-2,4
11250,10,4,-1,22,9,-17,2,-14
11255,3,-1,-3,-19,-12,-3,-1,13
11260,15,2,8,11,-5,-8,1,18
11265,-4,0,-1,24,1,18,3,-7
11270,4,-4,-11,-4,0,-3,-1,6
11275,-3,-5,6,19,-1,4,-1,-3
11280,-11,-2,-6,-29,2,-11,-3,-14
11285,9,2,-3,-1,-5,6,4,30
11290,-17,-1,8,28,4,-1,1,-51
11295,7,1,11,-8,-2,-7,-8,42
11300,14,1,-6,-11,1,7,2,-8
11305,-15,-2,3,17,3,2,-1,-10
11310,12,1,-3,3,-7,1,0,19
11315,-14,-5,1,27,7,2,-2,-24
11320,-10,1,15,-34,-18,-5,1,-13
11325,4,1,-6,42,19,1,-2,-23
11330,0,0,-5,8,-19,-31,-4,15
11335,-3,-2,-22,-14,-8,-15,-3,-25
11340,3,0,-7,-14,-7,0,0,40
11345,-4,2,16,8,2,5,0,-12
11350,-6,-5,-3,-9,11,18,1,1
11355,-2,-2,-10,-11,4,2,3,4
11360,-2,0,18,7,-5,-3,-6,-31
11365,5,3,-3,-1,1,-7,3,22
11370,-1,1,9,-6,1,4,0,-6
11375,10,-5,-2,12,-3,-4,-6,25
11380,-15,-5,-10,-43,-5,3,-3,-10
11385,3,-3,-25,-6,-13,-7,1,1
11390,2,1,6,27,28,1,0,1
11395,-5,-2,1,-9,-8,-14,0,-13
11400,3,3,8,20,1,2,0,-4
11405,-6,-3,2,-20,-14,-9,-8,-1
11410,1,0,-18,-34,-3,-3,3,16
11415,-1,1,15,12,14,8,-1,-1
11420,9,2,3,31,0,7,-1,-21
11425,-17,-2,-9,15,-14,-13,2,12
11430,28,8,34,-1,-12,5,-4,11
11435,-12,-2,-8,-7,-6,-6,-3,-5
11440,-9,-4,22,16,6,-4,5,12
11445,9,-4,-9,-10,9,9,2,-2
11450,-15,-1,18,7,-8,-4,-2,-15
11455,2,1,-16,6,-7,2,-2,3
11460,-8,-1,-9,-9,6,0,-2,-12
11465,-1,1,13,34,4,-7,-5,-11
11470,-7,-6,-23,-14,-3,3,-3,-3
11475,-7,-2,1,-3,-11,-6,2,8
11480,10,1,-15,-2,6,-23,-1,17
11485,12,7,18,-2,-16,14,-2,-9
11490,-5,-4,-1,5,5,-3,-2,-49
11495,-4,-3,0,-8,-2,7,0,21
11500,-13,-5,-16,-17,5,-1,-2,-15
11505,7,-3,-5,-22,5,-2,-1,33
11510,1,0,-14,38,-1,0,4,8
11515,-5,2,26,-5,2,8,0,-23
11520,-2,0,5,16,-1,-2,-1,-1
11525,3,-4,-8,-27,1,0,-3,-11
11530,-15,-4,-11,-22,-7,1,-2,-2
11535,14,5,16,22,-8,-4,0,18
11540,-5,1,1,-16,19,3,-2,-13
11545,-6,-4,-15,20,17,-6,-4,-4
11550,2,-1,-4,-15,0,-3,2,15
11555,-3,-2,5,3,-7,-3,-3,-25
11560,10,2,-13,15,-11,4,-1,10
11565,-12,-2,-3,-9,7,-9,1,-5
11570,6,-1,8,-1,-4,-2,-2,12
11575,-1,-2,-6,-6,21,2,0,-14
11580,-15,-4,11,13,-15,12,-3,7
11585,21,7,-4,38,11,-13,2,10
11590,4,1,0,12,-4,1,3,5
11595,2,0,-10,-7,7,3,1,-14
11600,-9,-3,7,3,-5,-1,0,10
11605,9,4,15,-28,-17,4,-2,-1
11610,0,-4,-25,-19,5,4,-4,-9
11615,-1,-1,-8,23,-2,-5,4,23
11620,-1,-7,-15,-16,-3,-10,-3,-21
11625,-12,0,12,1,6,19,4,-4
11630,-1,2,9,-15,-34,-8,-4,2
11635,-9,-3,-2,-40,-6,-21,-5,-11
11640,5,-4,-7,52,14,3,0,9
11645,-3,-1,-8,-9,0,3,1,11
11650,-7,-2,3,-14,16,20,0,5
11655,7,1,2,25,2,-14,-7,-23
11660,5,3,-4,-12,-25,-2,2,35
11665,-1,-2,-3,1,1,-6,6,-1
11670,3,-2,15,-8,4,-1,-3,-2
11675,0,0,1,-3,-4,13,0,15
11680,8,0,-4,-3,-5,-3,-6,-18
11685,-10,-3,-5,14,30,-3,-2,-2
11690,1,2,0,2,1,15,3,-15
11695,0,1,26,-9,-27,-6,-3,3
11700,1,1,-22,4,2,7,3,-14
11705,5,-4,-11,-19,1,-4,0,8
11710,-7,-4,-17,-26,10,-2,-4,-27
11715,-2,-2,-4,-1,0,6,2,22
11720,2,4,7,-6,-2,-9,-2,-10
11725,-10,2,13,11,-17,1,-5,-11
11730,0,-1,-4,9,0,-7,1,13
11735,7,2,-11,-13,9,12,2,-23
11740,6,-4,4,-20,-3,-8,3,25
11745,-4,-3,-11,-9,0,3,-4,7
11750,-9,-1,10,13,0,5,0,6
11755,-4,-2,0,5,-5,-2,-1,-23
11760,2,2,21,17,2,-34,1,9
11765,-4,-4,-24,-21,-16,12,-1,5
11770,0,1,21,24,16,-3,-5,-5
11775,-10,-7,-27,-16,-4,9,1,-2
11780,0,-1,1,-53,-5,-10,-5,-1
11785,12,0,-25,20,13,5,3,-18
11790,4,3,12,-13,-16,-16,-1,23
11795,-7,-6,-21,1,9,9,0,-9
11800,-1,1,7,-1,-3,7,0,-18
11805,-9,-1,17,-35,-10,-16,-5,-5
11810,-6,-6,-14,24,-1,-7,-2,-4
11815,0,3,15,4,17,12,-1,12
11820,18,2,-2,-2,-9,-17,4,23
11825,1,-1,11,-12,0,0,-5,-23
11830,-3,2,-10,38,2,-4,-4,13
11835,2,-3,-3,-3,11,6,3,24
11840,-2,-3,4,2,0,16,-5,-27
11845,-5,-2,-3,-15,-24,-11,0,2
11850,1,0,-12,-1,4,10,2,-18
11855,-8,-4,-8,-11,-1,-6,1,17
11860,3,2,-16,-9,10,1,-5,-14
11865,-6,-2,10,16,-1,2,0,6
11870,-2,-1,4,-8,-3,-6,-2,-4
11875,-3,-2,1,11,-14,-7,0,20
11880,-7,-3,-7,-2,4,11,-3,-15
11885,-5,0,10,-9,-2,-4,0,8
11890,-2,-1,-9,-8,-2,-10,1,-3
11895,5,3,-1,-28,-7,1,-4,-20
11900,-20,-4,-4,34,-10,-2,-1,-34
11905,8,0,-1,-2,-3,-3,-1,17
11910,5,-1,10,8,21,10,1,19
11915,-1,0,-8,-14,-2,-4,-3,-11
11920,-4,-3,-7,-19,-15,-1,3,10
11925,5,-1,1,19,-4,-4,-1,-13
11930,-5,-3,-2,-2,-3,10,1,-8
11935,1,0,5,-12,-7,-9,-1,-7
11940,-2,0,1,21,5,9,1,3
11945,-9,-4,-15,1,14,3,-3,-15
11950,8,1,-12,-19,-4,-2,2,23
11955,0,-1,17,14,5,-9,-6,-9
11960,12,4,-7,0,2,12,3,15
11965,-2,-3,-2,-27,-5,-3,-3,0
11970,-7,0,-7,20,8,7,0,-9
11975,-4,-5,-13,5,-8,-3,1,-28
11980,-7,-3,13,-15,16,-11,-3,5
11985,8,3,1,15,-4,4,-1,-6
11990,-10,-3,7,-4,-15,-9,-5,-11
11995,11,3,9,30,6,5,3,10
12000,-5,-2,5,2,8,13,0,5
12005,-2,-3,-2,-5,0,-14,-1,-12
12010,0,-3,-14,-21,-17,-12,-6,9
12015,-8,1,4,-37,15,1,2,9
12020,5,0,-6,28,-11,12,0,-14
12025,1,5,0,13,3,7,3,-21
12030,1,-2,10,-25,-8,-6,-4,12
12035,-9,-3,-9,6,2,0,-2,-8
12040,-3,-2,6,9,-2,-4,0,28
12045,9,-1,-8,-9,7,0,-1,-18
12050,2,-3,2,7,-1,-3,-1,-4
12055,-4,1,7,8,-7,5,1,-13
12060,-5,-5,-6,-14,6,-2,-3,10
12065,4,4,3,32,-10,5,-1,-3
12070,-2,1,13,-15,-2,-3,-1,-7
12075,7,1,12,20,2,1,-2,-4
12080,-7,-3,-8,22,-3,-8,-3,-5
12085,0,-1,-11,-20,2,-9,-3,40
12090,5,2,-9,6,1,6,2,-18
12095,-8,-5,-11,7,3,-12,-2,-2
12100,3,1,-1,-7,-7,4,2,-3
12105,9,1,-2,-13,6,18,0,14
12110,-2,0,9,-7,-9,-12,-2,5
12115,-4,1,3,-1,6,1,-3,-8
12120,0,-3,-18,-52,1,4,-1,0
12125,-6,-1,28,45,-15,-10,1,-8
12130,2,5,-13,1,11,8,3,5
12135,2,-3,-9,-14,-7,-9,4,3
12140,-6,2,14,31,11,2,-5,-19
12145,-9,-1,9,-12,-6,9,-1,13
12150,13,2,5,-10,-9,-8,-2,-17
12155,3,0,-23,-4,0,3,0,15
12160,0,-1,-2,-4,8,2,-1,1
12165,-7,-2,14,2,-5,-11,-3,2
12170,-1,-6,-27,27,24,18,0,6
12175,9,-1,-5,-7,-13,-16,0,22
12180,-6,-4,5,-7,1,-8,-1,-24
12185,-17,-4,-23,3,12,-2,-2,-29
12190,18,5,4,-21,-29,-3,2,30
12195,13,6,5,30,17,3,1,-26
12200,-10,-4,3,-1,-8,3,-3,25
12205,7,3,9,8,7,-6,1,5
12210,-15,-7,-8,-18,-2,-8,1,-32
12215,-2,3,26,3,-16,5,-3,-3
12220,6,5,-1,11,9,-4,2,-17
12225,0,-5,-29,10,-5,-5,-5,9
12230,-16,-7,4,-9,-3,11,3,10
12235,0,-2,17,11,7,-2,-3,1
12240,4,0,-1,-9,-11,6,-1,-3
12245,2,2,7,-23,-1,1,3,12
12250,0,-1,7,38,9,-10,-1,-14
12255,-12,-6,-10,-17,-11,4,-2,16
12260,-3,2,22,1,8,-14,-2,0
12265,3,0,3,6,-5,5,2,-8
12270,4,-1,-13,-26,-11,-10,0,5
12275,-6,1,9,9,8,10,0,-13
12280,6,-1,-2,10,3,9,-1,9
12285,-3,-6,-1,13,-13,-14,-2,-14
12290,-15,0,7,2,-12,1,-4,-1
12295,7,-4,-11,-12,0,-1,1,13
12300,18,4,4,-12,-3,7,1,9
12305,-13,-3,14,-26,4,-8,-4,-3
12310,6,-1,3,17,6,17,-1,-9
12315,-4,-2,-20,-26,-17,-16,3,13
12320,1,-1,1,23,2,-6,-3,-3
12325,-3,0,18,7,3,-7,0,1
12330,-8,3,9,-14,3,-14,-7,-21
12335,0,-6,-14,-3,7,14,-3,13
12340,-14,-4,3,26,5,7,0,-23
12345,13,-1,-19,-10,-6,10,-2,17
12350,4,2,10,14,3,-11,0,11
12355,0,-1,-10,-2,-11,-9,-5,-27
12360,-13,-5,-8,-24,-13,-10,-1,-3
12365,-8,-3,-4,0,5,7,2,-4
12370,13,4,0,4,10,5,1,-12
12375,-7,0,5,1,-9,-17,2,9
12380,2,-2,-7,-12,-2,8,-4,11
12385,-2,0,6,13,2,2,1,1
12390,-13,-4,-12,-15,-2,2,0,-34
12395,14,6,14,10,7,-1,-1,24
12400,-4,-2,-14,-3,-11,-22,-3,13
12405,29,7,5,-12,0,5,4,8
12410,-9,-4,4,5,3,-1,-2,15
12415,-2,-2,-2,-25,-8,27,-3,-21
12420,2,-1,-3,30,-2,4,3,8
12425,-3,-2,-23,-27,5,-1,-1,9
12430,-4,-3,3,35,1,-7,1,-4
12435,0,0,2,-2,12,3,-3,-21
12440,-3,-3,10,-24,-3,-13,-1,2
12445,-3,-3,-16,-9,-8,-2,-1,-10
12450,-2,0,2,-11,3,21,-5,-6
12455,0,-3,-26,8,-24,-55,1,16
12460,12,-2,-7,-2,19,1,0,25
12465,3,2,1,-9,-10,-10,0,-22
12470,-7,-9,-21,-32,-10,-6,-6,13
12475,-11,0,1,35,19,23,-1,-23
12480,13,4,-10,-1,-3,-5,3,4
12485,2,-1,-9,-38,-4,-2,-1,12
12490,-2,-4,0,20,2,3,1,-3
12495,-2,-2,0,-11,14,2,-2,-9
12500,-8,-5,-11,1,-9,-6,3,1
12505,-6,0,16,27,10,6,-9,-18
12510,-5,-2,6,-43,-19,-9,-4,-4
12515,-9,-5,-5,25,8,5,4,-3
12520,19,5,6,22,5,24,-2,43
12525,7,2,2,17,-10,-11,0,8
12530,-4,1,-7,-13,38,14,-2,-5
12535,-7,-1,22,41,-30,-21,2,-15
12540,-4,4,13,-26,4,-8,-6,-19
12545,-9,-3,-9,-6,-6,24,0,8
12550,-2,-4,-1,-1,9,-27,0,15
12555,-8,-4,-6,-20,17,23,-3,-23
12560,-3,-5,0,-41,-32,6,-1,-15
12565,4,1,-22,12,12,-30,-2,-18
12570,9,1,8,14,-8,14,3,21
12575,-8,3,-8,9,4,-15,-1,-22
12580,-11,-4,6,-3,-20,14,-2,5
12585,15,0,4,-9,12,13,1,27
12590,3,2,-3,-6,-8,6,3,-14
12595,6,0,18,-21,-10,-8,-5,33
12600,-12,-4,8,12,-2,-6,-5,-57
12605,-4,1,10,11,27,7,5,15
12610,8,1,-11,44,-6,7,2,6
12615,3,-4,5,-47,10,30,-4,-17
12620,5,-1,-2,16,-5,-33,-4,-12
12625,-7,-2,5,34,34,5,-1,24
12630,14,3,-3,-16,-28,-40,3,11
12635,2,0,-4,3,-6,26,0,18
12640,-2,1,9,-30,-4,9,2,-4
12645,-1,0,3,23,1,3,-1,-9
12650,-1,-1,10,1,4,-2,1,7
12655,-5,-3,-1,12,6,0,-2,-6
12660,19,8,15,-29,-8,-33,1,21
12665,-11,-5,-4,-33,-8,6,-3,-8
12670,-3,-1,-21,-13,11,6,0,11
12675,12,-4,3,34,21,-7,-1,7
12680,-13,-2,-16,-28,-12,38,-3,-15
12685,0,0,0,13,-20,-43,1,13
12690,3,1,13,-2,-8,-4,-5,-18
12695,4,2,14,-45,-7,-2,1,18
12700,-10,-4,-27,21,18,-39,1,-30
12705,0,-1,14,-13,-22,25,0,16
12710,-10,-2,-7,6,13,11,-4,-12
12715,-2,1,18,-7,-2,-3,4,21
12720,18,-1,-18,22,2,-5,2,34
12725,-1,2,15,-13,6,9,-4,-38
12730,0,0,22,4,-9,-14,-1,9
12735,-7,-2,-18,26,1,-1,-3,-13
12740,-11,-2,17,15,13,42,3,19
12745,-13,-7,4,14,0,-14,-8,-43
12750,9,0,-8,3,1,-5,3,11
12755,1,0,2,0,-10,-13,-4,-5
12760,-6,-1,5,-31,-7,6,-1,2
12765,-9,-5,0,38,3,5,0,-7
12770,7,-1,-5,-8,2,-6,-5,-7
12775,5,-2,-9,-15,-10,0,0,12
12780,-11,-3,18,24,4,-2,0,-12
12785,8,-1,-17,-34,-1,1,0,20
12790,-9,-1,-11,-11,-19,-11,-4,-2
12795,13,2,-5,31,4,22,5,1
12800,-1,-3,-1,1,22,-12,-3,-12
12805,-5,-2,-9,-11,-15,-2,2,-8
12810,-13,-3,2,-1,9,4,-4,-10
12815,-2,-1,-6,-18,-1,-12,1,-10
12820,-2,-2,-24,-59,-15,16,-1,11
12825,8,1,2,27,-9,-28,3,4
12830,1,-3,-5,-7,7,-3,-5,7
12835,-2,-3,-24,-16,-14,4,3,-17
12840,1,1,5,19,7,-2,0,-17
12845,-5,-2,-7,-32,1,4,-1,33
12850,0,2,5,-15,-5,11,-2,-7
12855,4,2,5,14,-6,-21,0,3
12860,-10,-5,-14,12,-8,8,-3,9
12865,7,4,17,-17,-16,3,-7,-22
12870,-10,-4,-2,30,21,-1,0,-10
12875,4,-1,-6,-30,-11,-4,-5,32
12880,2,2,-14,6,8,-5,2,-3
12885,-3,-3,-7,10,16,27,2,-23
12890,-2,-2,11,37,-18,-25,-3,-14
12895,-5,0,7,-27,0,-9,-6,10
12900,3,2,2,14,7,3,2,-8
12905,-1,-2,-9,2,-10,-11,-3,-15
12910,-3,-1,-18,-31,0,19,2,20
12915,-1,-4,-16,-21,-11,-48,-2,2
12920,10,5,12,-5,8,-6,-3,-24
12925,0,0,2,43,-21,1,2,6
12930,1,0,-8,-2,24,17,3,-1
12935,-9,1,15,3,8,0,0,9
12940,-2,-2,17,1,6,0,-2,-12
12945,-10,-3,-9,-16,-8,-3,-3,1
12950,15,4,6,13,10,7,3,-9
12955,3,2,-4,-21,-3,12,3,15
12960,-13,-3,23,28,1,2,-3,3
12965,10,4,-24,9,10,-11,3,-10
12970,-5,-4,5,8,-14,-1,-2,1
12975,0,-6,-19,1,11,13,-2,-27
12980,-3,1,-5,-4,1,-5,1,17
12985,-6,-3,10,-64,-12,-5,-4,-7
12990,0,0,-5,28,7,17,4,-7
12995,12,2,13,18,-4,-11,1,22
13000,2,-1,-13,-2,-6,-9,-1,19
13005,-4,-2,18,-45,-6,18,-7,-45
13010,13,5,2,21,-4,-12,1,30
13015,-12,-2,6,19,3,18,-3,-16
13020,-1,-2,-2,14,13,-3,1,-27
13025,0,1,-4,3,7,-10,-1,47
13030,-3,-5,7,-47,-23,-13,-3,-24
13035,-5,-5,-1,39,5,15,-2,-12
13040,9,1,4,-6,6,10,1,10
13045,-7,-2,-6,14,3,-2,4,6
13050,-5,-5,-18,-22,-2,2,-6,-24
13055,-4,-1,8,-6,-4,-4,-2,2
13060,3,-5,-9,-10,-2,-4,-1,0
13065,-5,1,1,0,5,11,2,-10
13070,4,3,7,-7,-3,1,-1,15
13075,-16,-1,6,20,6,-4,-2,-27
13080,5,-4,-10,-1,-35,-1,-3,16
13085,0,-3,-15,-17,21,-14,2,-20
13090,-3,2,18,0,-5,-2,1,5
13095,3,1,-22,-19,-13,-9,0,-6
13100,-3,-7,-43,7,4,11,1,-19
13105,5,-2,-8,20,9,5,2,57
13110,-3,-2,6,1,-13,-7,-1,-12
13115,1,2,2,-21,11,13,-1,-9
13120,-2,-1,2,-4,-3,-14,-4,2
13125,-1,1,7,24,-4,-8,-1,-24
13130,-6,-2,-2,-15,1,4,-2,7
13135,10,2,7,15,1,3,4,19
13140,9,4,4,-15,-2,2,-2,-15
13145,-8,2,14,-2,-11,0,-4,-15
13150,2,0,-5,14,11,10,3,22
13155,2,-1,-2,-7,0,2,-2,-11
13160,-8,-1,7,8,-2,-6,-1,-12
13165,-17,-5,7,5,-5,-5,-3,-34
13170,33,7,-8,-11,11,-4,2,78
13175,8,2,-6,-31,-18,4,-1,-15
13180,5,-4,-14,21,-16,-8,-1,5
13185,-3,-1,-2,-4,5,5,-1,6
13190,-19,-4,2,1,8,0,-1,-33
13195,-4,-3,0,11,4,-1,-2,1
13200,-4,1,8,-19,-1,-5,1,-1
13205,8,0,6,1,-7,-4,-4,14
13210,-10,-7,-23,-8,-14,-2,-1,-18
13215,4,4,2,11,10,0,2,14
13220,-3,0,4,0,-3,2,-1,-9
13225,0,-2,-14,27,1,-1,1,14
13230,1,-4,0,17,-1,5,-2,-25
13235,-4,1,16,-10,1,-5,-2,15
13240,-1,-4,-6,-21,3,-5,-4,-11
13245,14,4,-13,1,-6,7,6,38
13250,-10,-4,5,-5,-3,-3,-7,-20
13255,-9,-5,-12,23,12,-3,1,-12
13260,-2,-1,5,-15,-1,1,0,10
13265,11,1,-6,6,-6,10,-4,8
13270,-8,-4,10,-14,-16,-20,-2,-8
13275,9,2,0,3,2,18,2,0
13280,-12,0,7,2,14,-5,-2,-10
13285,10,-2,5,0,-24,10,-1,-1
13290,-3,1,8,-11,8,-14,-4,-1
13295,-13,-2,0,-6,-8,4,-4,1
13300,6,0,-13,57,14,0,0,-10
13305,1,-2,-8,-13,14,-2,0,-23
13310,7,3,-5,-7,-1,-2,1,25
13315,4,0,17,11,5,2,-1,-3
13320,-6,-5,11,-59,-27,-25,-3,16
13325,-1,2,-8,37,3,7,-1,-8
13330,-5,-2,-14,-1,10,18,7,-4
13335,16,0,-5,-13,12,-5,-3,15
13340,11,11,25,11,-41,18,3,-6
13345,-16,-9,-18,-74,-1,-12,-2,3
13350,0,3,-8,25,1,8,4,-12
13355,-11,-5,-9,12,-8,-17,-5,-2
13360,13,3,-1,19,-2,-4,-1,-3
13365,-6,0,7,-13,10,-4,-4,-6
13370,-7,0,48,29,-11,-4,-7,-3
13375,-11,-7,-20,-34,4,2,1,-25
13380,14,-3,-3,21,12,4,2,43
13385,-19,-7,-1,-1,-9,-9,-4,-11
13390,18,7,-1,-18,6,1,0,1
13395,-4,2,7,17,-19,-31,-5,-11
13400,-24,-4,-2,-8,22,10,-3,-18
13405,4,0,-9,2,-15,14,3,17
13410,-1,-3,-12,-7,-14,-9,-3,1
13415,4,0,-2,-13,7,-1,-2,-1
13420,-5,3,-2,-18,-1,-2,1,11
13425,-9,-7,-3,17,21,-8,-6,-35
13430,6,-3,-22,-8,-16,-10,1,17
13435,1,3,13,-11,-12,-14,-2,-11
13440,-12,-6,-19,16,3,-1,0,-3
13445,-12,-3,7,1,30,6,-1,-33
13450,11,5,3,4,-14,13,0,29
13455,0,-4,-20,-16,-9,5,0,-3
13460,3,3,8,2,13,13,0,3
13465,-1,4,45,-11,-1,-8,0,12
13470,-23,-10,-18,11,22,-36,-8,-59
13475,15,4,9,22,0,9,-4,39
13480,-4,-5,-21,-10,9,17,3,-4
13485,10,3,-2,1,4,5,1,7
13490,6,1,3,4,-2,6,0,-9
13495,-9,-2,0,-6,5,10,4,39
13500,10,0,15,-4,-49,-22,-7,-40
13505,2,2,15,19,-12,-1,4,35
13510,3,-1,-24,-5,-3,8,-1,-4
13515,0,-5,-23,12,30,2,-1,-12
13520,-5,0,3,-11,-40,31,-1,22
13525,1,-4,-18,-19,-9,-40,-5,6
13530,-3,-2,10,-11,12,22,0,-6
13535,-11,-1,2,-14,-20,-18,-4,-16
13540,5,-1,-7,23,30,5,4,-15
13545,3,-2,-2,3,-17,-4,-3,28
13550,-3,4,40,-25,5,6,-1,6
13555,3,-2,-18,14,13,11,8,-6
13560,-7,-1,17,5,9,-31,-5,-30
13565,2,-1,-11,3,-3,-1,1,16
13570,4,1,-18,-23,-11,-5,0,9
13575,0,3,22,-5,-9,7,0,7
13580,-7,-3,-5,17,10,5,1,-41
13585,5,-1,-2,1,14,3,-2,24
13590,-15,-3,5,12,-3,8,2,-10
13595,1,-4,-8,-41,-2,14,-6,7
13600,12,1,-13,26,15,2,2,24
13605,-3,3,-4,-3,-18,-14,-3,-21
13610,-11,-6,-16,-18,-4,-4,1,-21
13615,-2,0,7,11,3,-10,-3,5
13620,-6,-7,-5,-7,3,-11,-4,36
13625,-4,3,9,0,-3,20,0,-21
13630,5,3,18,42,-2,-1,1,18
13635,6,1,-5,8,-4,8,6,-18
13640,3,-1,-9,-31,22,-8,-1,14
13645,-4,-1,10,11,-5,3,1,-33
13650,-10,-1,-12,-3,11,5,-5,19
13655,-1,-4,-24,-34,-33,-9,0,3
13660,12,5,10,49,6,8,1,-11
13665,10,-1,-5,-44,2,8,-1,33
13670,-7,-7,-7,0,-1,-21,-2,-41
13675,0,0,2,14,-6,-13,-1,-15
13680,-11,-4,27,-4,-5,-5,-8,8
13685,-10,-3,-10,23,29,-3,2,7
13690,6,-1,1,-18,-30,10,-6,6
13695,-1,-3,-2,11,10,3,1,2
13700,-7,-3,-6,-19,-7,-6,-1,-22
13705,-5,-2,-4,1,1,-8,-1,-2
13710,3,0,-3,-21,-7,16,2,4
13715,-11,2,11,19,20,-8,2,-15
13720,-1,-3,7,10,-2,-8,-5,31
13725,9,1,-7,-13,-2,-2,1,2
13730,-7,-2,-3,4,-20,-15,-2,-4
13735,1,2,4,26,-11,4,-3,-9
13740,-7,2,-5,-39,7,7,2,-19
13745,5,-1,13,29,-8,-2,-2,25
13750,11,6,-4,14,35,5,-2,-28
13755,2,0,3,13,-19,-6,-1,7
13760,-4,-6,-19,-32,-15,-4,-4,-6
13765,-1,-2,-12,-7,2,13,-1,-10
13770,-12,-4,7,-41,-21,-25,0,22
13775,6,2,-2,23,20,21,-6,-10
13780,4,1,2,14,0,-2,2,5
13785,6,0,-10,-12,-4,-10,2,17
13790,3,-1,13,19,9,13,-3,1
13795,-5,1,-6,-12,-1,4,3,-8
13800,5,0,-16,-55,-15,-5,-1,13
13805,-15,-5,7,34,15,1,-6,-60
13810,-2,-4,-1,23,-6,-1,-1,31
13815,2,0,4,-11,-3,-9,0,2
13820,-11,-3,11,-11,4,17,0,-8
13825,7,-1,-21,35,9,-12,2,-13
13830,9,-1,-6,-7,16,-1,1,4
13835,1,-2,7,-2,-11,4,-3,-5
13840,-2,1,4,-5,4,8,2,33
13845,-7,-4,-5,-8,-6,7,-2,-20
13850,-19,-3,2,6,-11,-18,-1,-51
13855,11,0,13,10,22,10,1,47
13860,3,1,-10,-25,-9,-15,-3,-5
13865,0,4,23,26,-2,3,0,5
13870,-7,-3,-10,9,15,2,0,-5
13875,-7,-6,-18,-15,5,-7,-2,-28
13880,4,0,0,-9,-10,-3,0,7
13885,-2,-2,-2,-22,-22,-18,-3,18
13890,8,3,11,29,10,7,0,-19
13895,-14,-2,-1,-15,-15,6,-2,-33
13900,2,-4,-11,19,-1,-39,-5,24
13905,-9,2,8,-29,-6,0,2,18
13910,19,-2,-14,-22,8,2,-2,21
13915,-7,-6,-21,-16,19,22,2,-14
13920,-4,-1,-1,30,7,-17,-1,-41
13925,5,4,-4,-13,-24,-6,-2,47
13930,-6,0,4,-23,-11,-3,-2,-1
13935,-5,-1,-1,15,1,-4,2,10
13940,1,1,0,29,27,23,2,-12
13945,-3,-5,-9,-7,8,-29,-3,-21
13950,5,1,16,-7,-31,2,0,18
13955,1,-5,-4,-26,-11,-9,-4,-3
13960,-4,-1,1,4,-6,11,-1,5
13965,2,2,27,39,24,11,0,-16
13970,0,0,-20,-30,7,-3,-2,-1
13975,-2,1,6,20,-3,-2,3,1
13980,6,2,-4,-19,-5,12,-2,-32
13985,14,-3,0,8,0,-6,-5,29
13990,-8,0,14,26,-2,-17,0,-18
13995,-2,0,4,-35,-6,4,-3,14
14000,2,0,-20,9,-6,7,2,6
14005,-9,2,-4,-22,23,8,-1,-28
14010,-3,-6,-8,0,-15,-2,1,20
14015,-2,-2,6,20,-2,-16,-6,-3
14020,4,0,17,2,2,-15,-4,23
14025,0,-2,-18,-50,-12,2,-3,-29
14030,-6,0,-35,7,16,1,3,18
14035,1,1,19,-5,-11,-2,-2,-15
14040,-7,-5,-7,-20,10,-4,-3,-8
14045,-3,-1,-11,23,-3,11,2,6
14050,2,0,-3,12,12,-1,0,-14
14055,2,1,-2,-7,-8,2,-3,7
14060,-4,1,8,0,-10,-6,-2,1
14065,-12,-2,23,16,-11,1,-1,-12
14070,9,1,-15,-30,16,1,-1,30
14075,18,5,-10,57,11,5,-2,2
14080,-7,-5,10,6,-4,-23,0,11
14085,14,3,-3,3,-4,3,1,-10
14090,-12,-1,15,0,-14,5,-3,-16
14095,-14,-5,-22,-32,13,-3,-1,-17
14100,10,1,-3,5,3,10,4,37
14105,-1,-2,-7,-21,-10,1,0,-16
14110,-11,0,11,-4,7,2,-2,-20
14115,-6,-1,22,4,9,-5,-2,5
14120,-4,2,-21,-17,0,9,2,-6
14125,-5,-7,-8,-10,-6,7,1,-12
14130,7,2,-6,9,4,0,-4,-3
14135,-4,2,21,5,-14,-9,2,-1
14140,0,-2,5,17,-6,-3,-4,-1
14145,10,2,2,0,41,7,0,15
14150,-1,2,11,21,-21,-15,-1,-12
14155,-1,-3,-16,7,-1,4,0,8
14160,-1,2,4,12,1,6,-1,-10
14165,-1,-2,-6,-43,-14,1,-2,23
14170,6,-2,0,27,-2,0,-3,10
14175,7,0,-8,-8,1,4,3,4
14180,2,0,-2,-9,15,-9,-1,-6
14185,-17,2,4,15,-16,-6,-2,-37
14190,-3,-7,0,-21,11,11,-3,15
14195,-1,-2,14,21,-4,-10,1,-13
14200,8,0,-17,-26,-17,-3,-2,13
14205,4,0,-7,1,-6,10,1,-2
14210,-9,-1,-6,14,15,-3,-2,-3
14215,-5,-1,-7,-23,-20,-18,-5,-10
14220,-4,1,36,-30,15,5,2,3
14225,-7,-7,-14,52,-11,6,0,-12
14230,15,0,-2,-8,-7,5,3,13
14235,-5,-3,-8,3,3,-17,-3,17
14240,-7,1,16,-20,-27,-20,-5,-14
14245,16,-1,-24,-1,18,-3,1,27
14250,3,1,-2,-2,5,-16,2,3
14255,-4,-5,5,1,-2,10,-6,-8
14260,-3,-4,-16,8,-3,18,3,-6
14265,-4,-2,19,17,4,-25,-2,0
14270,-3,-1,2,-30,-33,15,-4,-15
14275,13,3,-15,-43,0,-6,6,14
14280,-15,-7,-18,18,13,9,-5,-22
14285,7,7,25,28,-4,10,2,-12
14290,1,-2,-13,-55,3,-15,-3,3
14295,-16,-7,-16,35,10,8,-2,-31
14300,8,0,-3,-11,-7,18,5,30
14305,22,8,16,21,-8,-13,2,18
14310,-8,1,-4,12,-7,4,-1,-31
14315,4,-2,15,-29,-4,9,2,32
14320,-5,-3,-9,24,2,7,-3,-27
14325,-10,-4,-14,-22,25,-1,1,17
14330,4,-1,3,-20,-21,-9,-2,16
14335,4,2,-4,-9,6,-1,-4,-8
14340,-8,-3,15,60,-17,20,-1,-21
14345,6,1,-6,-56,-18,-2,-4,-1
14350,-12,-5,0,47,21,2,1,-1
14355,-7,-4,1,-5,9,5,3,-11
14360,15,1,-27,-61,8,-17,-3,27
14365,0,-2,-23,9,-24,-22,-7,-7
14370,-1,1,18,9,11,6,0,9
14375,-4,-3,-5,12,-16,0,-1,-7
14380,-12,-5,-3,-7,9,-3,0,-12
14385,9,-1,-6,-25,-5,9,0,26
14390,3,-1,-2,11,3,8,1,-11
14395,-4,2,-11,6,-8,4,0,2
14400,-6,-3,2,-14,-3,0,1,-31
14405,-9,-4,-5,15,0,4,-6,-18
14410,3,4,18,26,4,6,8,29
14415,21,1,-10,-21,22,-4,-4,-6
14420,-7,3,14,-15,5,15,1,14
14425,5,-4,-12,-17,-24,-7,2,14
14430,5,1,18,16,5,-7,-2,-19
14435,-12,-3,-4,2,11,3,-1,20
14440,9,3,37,0,-21,-30,-3,0
14445,-19,-6,-4,-1,25,15,-2,-25
14450,1,0,-17,12,6,-8,-3,7
14455,-2,-4,13,12,-5,-9,-1,-1
14460,25,6,-2,36,8,3,-1,23
14465,-5,-1,9,-27,-6,26,1,-2
14470,-10,-6,-12,-11,-14,-18,-7,-15
14475,13,6,28,18,-21,-2,-1,39
14480,-12,-7,-23,-23,5,-5,-3,-33
14485,-3,-2,-7,-8,6,3,0,13
14490,-13,-3,-25,-18,0,-1,0,-19
14495,19,9,46,1,-3,3,1,17
14500,-6,-2,-4,40,-3,-17,-2,-1
14505,-1,-4,1,5,-13,16,3,-10
14510,-2,0,-4,-34,7,-1,0,-16
14515,-1,-1,-3,9,-5,-24,-6,-12
14520,9,2,3,2,2,10,0,-1
14525,-17,0,12,15,3,-10,-3,1
14530,1,-1,9,20,8,11,-1,-2
14535,15,2,-16,-6,1,6,3,-5
14540,-7,-3,-11,-33,-28,-5,1,-6
14545,-11,0,25,22,1,-4,-4,-15
14550,4,-8,-6,-5,-4,5,1,56
14555,-2,3,-10,7,21,4,2,-18
14560,6,1,12,19,9,-11,-2,8
14565,2,0,11,-8,2,-6,-1,-4
14570,-3,1,14,-34,-14,-10,-3,-3
14575,-13,-8,-32,23,2,13,0,-17
14580,-5,-4,-15,4,8,-10,2,8
14585,8,4,1,9,6,15,2,-15
14590,-4,3,2,1,2,1,0,-5
14595,-10,-4,4,-25,-10,7,-4,13
14600,0,1,-4,3,6,-14,-3,-16
14605,5,-2,-23,-12,5,-19,1,21
14610,-10,-4,-17,-36,-15,-4,-3,-27
14615,2,1,-15,-2,2,19,5,1
14620,25,4,0,27,15,-3,3,46
14625,-10,-3,-1,-12,-8,-4,-1,-9
14630,11,7,-5,-8,-6,5,-1,-14
14635,-11,-7,11,-15,-12,-16,-3,-13
14640,-16,-4,5,-20,7,-1,-4,-18
14645,13,1,-7,17,5,6,3,15
14650,-2,-1,8,33,-3,1,4,5
14655,-8,-4,5,-6,-1,-16,-7,-8
14660,-8,5,8,28,-13,29,-1,-21
14665,-7,-6,24,-43,-12,0,-4,11
14670,-4,-4,-22,28,12,-26,4,3
14675,10,2,18,16,-8,25,-1,6
14680,-1,-3,-11,-6,24,3,-1,-5
14685,-11,-1,-5,5,-8,24,-1,-27
14690,7,0,-10,-21,-3,-5,-6,22
14695,9,0,-7,-4,0,-20,3,34
14700,3,3,15,7,-1,13,-4,-28
14705,3,0,-8,-8,-4,-14,-3,-3
14710,-9,-5,6,25,10,10,5,13
14715,1,1,0,10,2,-5,-3,11
14720,-2,-2,-9,-6,0,-3,-2,-10
14725,1,6,-3,-14,0,-7,2,20
14730,-3,-6,1,-14,-8,-16,-2,-15
14735,-6,0,-23,-6,-2,10,3,-23
14740,-1,0,-10,12,16,-1,-2,13
14745,-4,-6,-5,-28,-16,-14,-5,-2
14750,3,3,1,7,12,13,1,-38
14755,-1,-1,-5,-2,4,-4,-1,12
14760,-12,-4,6,-25,-22,-12,-3,6
14765,5,2,6,12,8,3,2,-12
14770,-2,3,4,5,1,12,-3,18
14775,-4,-8,8,-1,-13,-5,-6,-11
14780,3,0,2,-4,17,0,5,9
14785,2,-5,-7,18,-20,6,-6,-6
14790,-1,-1,5,11,-4,-5,-3,-1
14795,-2,1,1,-23,-2,0,0,-23
14800,-14,-3,13,-33,-14,4,0,17
14805,9,2,-13,43,22,4,1,7
14810,28,2,8,20,2,8,4,-4
14815,-10,-4,-9,-7,1,8,-2,-3
14820,6,-1,-11,-4,-18,-14,1,-3
14825,-3,0,8,-18,5,-9,-1,-18
14830,-11,-1,-11,2,-11,6,-1,28
14835,-5,4,1,-41,10,-8,-2,-16
14840,26,-2,-8,14,-21,4,-1,15
14845,-16,-2,-5,-5,2,7,3,-36
14850,13,3,21,-19,-8,-12,-5,35
14855,-2,1,-9,19,-1,-8,1,-4
14860,-14,0,-13,-27,4,11,2,-3
14865,13,2,15,22,-2,-15,-2,-5
14870,-7,-7,-14,16,18,-15,0,-33
14875,-6,-4,1,-9,-15,-7,-4,7
14880,4,3,12,-1,-4,2,-2,9
14885,4,0,-4,-1,-7,-11,-1,14
14890,-12,1,14,3,30,-1,-7,-10
14895,-3,-6,-22,26,18,-5,-2,-6
14900,0,-4,-8,1,-16,-1,0,-16
14905,-14,-8,-7,-7,1,-2,-1,1
14910,2,0,-5,-17,-23,1,1,-8
14915,9,7,22,-30,5,-8,-1,0
14920,6,-2,-14,9,6,5,0,39
14925,-3,-3,-13,3,1,-11,2,6
14930,-10,-5,-9,-11,-17,0,-7,-48
14935,4,4,25,11,-4,7,-1,19
14940,2,-2,-13,-23,-9,-31,-3,-8
14945,1,2,12,19,-12,0,3,15
14950,-4,-3,-21,-13,-11,-19,0,-2
14955,-11,-4,6,-9,14,5,-3,-34
14960,-1,1,28,22,-27,-13,-3,19
14965,4,-2,-15,-2,4,14,-4,0
14970,-1,-1,-5,-17,6,26,3,6
14975,14,2,-9,3,-5,5,3,6
14980,-12,-5,-2,-18,8,8,0,-23
14985,-5,-1,7,-10,11,-17,-7,-32
14990,1,0,13,8,-2,7,0,51
14995,27,7,-9,25,-12,-6,0,26
15000,0,1,-5,11,21,13,0,-18
15005,-8,-1,-3,14,2,-1,3,22
15010,-1,-2,2,-30,2,-21,-6,-24
15015,-13,-4,-9,43,0,-1,3,-4
15020,-4,0,14,8,-9,-2,-2,-3
15025,0,2,6,-11,-1,6,0,-6
15030,2,1,-1,-22,-9,7,0,5
15035,-12,-4,6,6,-1,2,2,8
15040,1,-3,-11,21,11,-5,-4,-10
15045,22,6,8,-6,6,10,2,23
15050,-6,0,-1,3,1,-2,-1,-2
15055,-7,-3,0,-13,-1,10,-3,-20
15060,3,0,-10,-2,0,-10,-1,11
15065,-10,-4,6,-28,-3,-1,-3,-6
15070,11,5,-3,6,4,6,2,15
15075,-5,-6,-23,-12,11,-21,-2,-12
15080,-12,1,27,-14,-9,15,1,-23
15085,8,-1,-39,-29,22,-18,-2,4
15090,-8,-3,15,49,-57,-15,-3,-14
15095,4,-1,-1,-2,11,13,1,26
15100,3,-5,-14,-18,8,-2,-2,10
15105,-21,-4,14,3,5,2,-4,-43
15110,26,7,-13,-10,-5,3,1,35
15115,2,1,-9,-6,-2,13,1,-7
15120,-10,-1,8,25,2,-14,-3,-12
15125,1,-1,11,-8,-16,10,-1,-1
15130,-16,-7,-12,3,22,1,-3,-2
15135,5,0,18,5,-17,-7,-4,-6
15140,8,0,-22,4,20,-4,2,2
15145,-12,0,1,12,-15,9,-1,-20
15150,-12,-3,4,-15,16,4,3,15
15155,11,3,-6,-9,0,-15,-1,-19
15160,-16,-8,5,-1,-13,1,-5,-2
15165,14,3,-1,4,1,-12,0,5
15170,-10,-3,9,-28,-3,10,-1,-3
15175,-10,-1,-10,16,7,19,1,-36
15180,23,4,4,6,18,-4,0,37
15185,-2,-2,-3,9,3,0,-1,6
15190,0,0,6,7,-9,-8,-1,-9
15195,-4,-4,-11,-44,5,2,-3,16
15200,1,2,-3,-13,-32,-2,-2,-15
15205,17,1,-4,26,11,11,3,37
15210,-5,-2,-3,2,4,-28,-2,-44
15215,-11,-3,4,-20,-8,-19,-1,16
15220,1,4,16,18,-8,12,-1,-3
15225,-5,0,-3,7,-3,-5,3,3
15230,0,-4,-9,-5,25,6,-2,-7
15235,-6,-4,9,27,-10,-4,-2,-3
15240,10,1,-1,-36,0,-3,-3,1
15245,-10,-4,10,-5,-13,-5,-3,-11
15250,7,4,15,41,3,4,1,-7
15255,-17,-6,-8,-39,1,-8,-4,-12
15260,1,-2,-14,-3,16,18,2,17
15265,-4,-3,-2,1,-6,-23,-3,-2
15270,2,1,-1,6,14,6,0,-17
15275,0,-1,26,-22,-34,-14,-4,10
15280,-4,-1,-6,35,8,9,2,-16
15285,-1,-1,-17,-40,-8,-14,-2,-7
15290,-5,-2,-7,16,-2,9,1,17
15295,-5,-1,9,19,19,-2,-3,-19
15300,13,0,-9,-17,-18,-5,-1,21
15305,-3,-2,-5,-20,-7,18,-3,7
15310,-9,1,13,12,-12,-27,-5,-39
15315,2,-4,-22,4,-12,16,2,26
15320,-14,-6,-5,-12,4,1,-1,-14
15325,5,4,3,18,7,12,-1,-8
15330,0,-3,-6,1,-4,-3,-1,32
15335,4,1,6,28,-15,7,0,-18
15340,-5,-2,7,-2,3,-7,0,-6
15345,1,3,5,-6,4,-9,-1,5
15350,0,-4,-15,16,-19,11,-2,-3
15355,6,2,2,1,10,-5,0,8
15360,-5,-2,-5,1,6,3,-1,-12
15365,-10,-5,3,-13,-11,-10,0,-11
15370,8,-5,-4,-1,4,6,-2,3
15375,28,11,24,36,0,11,4,27
15380,-9,-3,-11,-8,-13,-14,1,-18
15385,0,-2,1,9,5,-7,-1,-18
15390,3,1,1,-46,-5,-1,0,21
15395,-11,0,-2,19,-7,2,-1,-27
15400,-4,3,-2,9,0,-8,-5,18
15405,21,2,-4,9,10,5,6,38
15410,7,-2,-13,-13,3,1,0,-20
15415,-4,1,-1,-22,7,-15,-1,3
15420,-4,-3,11,14,12,7,-1,-22
15425,-21,-4,3,-19,-35,-16,-7,-2
15430,4,3,1,65,16,9,4,-4
15435,9,-3,-8,1,13,-4,-2,23
15440,9,1,-4,-7,-11,-15,-1,-3
15445,-5,-4,4,-9,23,14,-4,-8
15450,-5,2,21,-9,-11,3,3,-4
15455,-11,-6,-23,-55,-8,-5,-3,-21
15460,-11,0,20,30,-1,4,-1,12
15465,21,-4,-23,24,4,2,0,16
15470,-4,-2,-8,-13,-8,6,-3,-5
15475,3,1,8,6,19,-7,0,-3
15480,2,-1,-2,-23,-13,-1,-1,8
15485,-4,-1,11,1,4,-10,-2,-8
15490,-21,-4,11,-1,2,-3,-1,-53
15495,27,1,-23,-6,-10,0,1,94
15500,11,4,0,-5,17,-1,1,-22
15505,5,0,-3,-7,-9,-2,0,14
15510,5,-1,9,5,6,6,-2,-4
15515,-16,0,15,11,-7,-7,-3,-22
15520,-4,-3,-2,5,-1,7,2,-5
15525,4,2,6,5,4,5,2,0
15530,-4,-2,-26,-37,-2,-7,-2,23
15535,4,-1,21,36,-8,10,0,-8
15540,1,-1,-4,9,-2,14,0,-2
15545,-3,0,-9,8,6,6,1,22
15550,7,2,-5,-32,-4,-2,-3,-3
15555,-11,-3,0,10,4,-1,-3,-7
15560,-2,-2,-5,-3,-15,-7,0,-12
15565,-11,-1,14,-13,-3,5,-4,-6
15570,-21,-10,-10,-3,-21,1,0,-3
15575,41,11,-3,25,14,-19,0,25
15580,2,0,7,-10,-3,-8,-4,6
15585,-3,-1,-17,-6,-1,0,1,-10
15590,4,0,-2,-17,-2,0,0,6
15595,-23,-5,-7,-14,9,7,-2,-26
15600,-2,-1,-4,0,-1,-3,1,4
15605,-5,-1,3,-6,-1,5,0,-10
15610,2,3,10,37,10,-24,-1,4
15615,-4,-6,8,-21,-23,-6,-7,3
15620,6,-1,-13,25,7,16,3,0
15625,-7,-3,-3,-12,-13,-1,1,0
15630,6,3,-1,0,5,7,-2,7
15635,-13,-1,-3,-9,15,-3,-1,-23
15640,2,-1,1,-37,-30,-6,-2,3
15645,-11,-5,0,29,-13,2,-4,-25
15650,2,1,5,13,21,4,5,22
15655,25,5,-1,-4,-4,-2,-2,5
15660,-7,-2,-2,3,7,14,-3,-6
15665,-2,-2,5,7,-5,-7,-1,-1
15670,0,-1,8,-3,-6,6,-5,2
15675,-12,-4,-13,-6,-5,0,3,-15
15680,-6,-3,-13,-13,4,-3,-3,0
15685,2,0,1,3,1,-7,2,-3
15690,5,2,18,-3,5,-1,-6,19
15695,-7,-5,-12,16,-4,10,1,-18
15700,3,-3,-13,-18,-10,-54,-3,-1
15705,4,1,3,7,11,0,1,1
15710,-6,-3,-10,-16,-9,6,1,-4
15715,-7,-1,9,-17,10,2,2,-2
15720,-4,0,17,32,11,9,-4,-5
15725,0,-1,-8,-3,13,-1,-4,12
15730,-9,-5,-15,-14,-22,-19,-2,-20
15735,6,2,-3,25,-10,14,0,18
15740,2,0,5,-6,14,-10,-1,-9
15745,3,-1,0,-9,0,-9,-4,4
15750,2,-2,-7,9,4,13,0,-11
15755,-16,-4,-7,-8,-16,3,-1,-1
15760,13,3,14,-11,-4,-10,-1,14
15765,4,-3,-5,-18,2,5,-1,1
15770,5,3,23,20,1,1,1,-13
15775,-13,-4,-8,11,12,2,-2,-24
15780,-4,-3,-22,-7,-7,8,2,13
15785,7,4,7,2,1,-2,0,0
15790,-1,0,-2,-15,2,8,4,3
15795,-3,-2,13,-4,-8,-3,-1,15
15800,-8,0,4,3,16,2,-1,-34
15805,4,0,-1,-4,-27,3,-4,22
15810,2,2,-5,12,6,-3,-1,5
15815,0,0,4,-17,-14,-7,-1,-2
15820,-5,-4,-13,-9,10,9,-1,-3
15825,-3,-7,-12,-6,-7,-13,1,-12
15830,1,2,3,12,8,1,0,3
15835,5,0,4,-9,-8,0,1,-3
15840,9,1,5,-2,-7,3,-2,17
15845,-9,1,11,15,8,2,0,-8
15850,8,0,-8,-29,-8,0,1,2
15855,-6,-3,-16,8,18,-3,-2,-1
15860,-12,-6,-2,-15,4,32,-1,3
15865,10,3,2,47,-4,-20,-4,-1
15870,0,-2,-9,-15,-9,-11,1,4
15875,-8,-1,-2,-5,-3,-3,1,-12
15880,-5,-5,3,9,5,2,-2,-3
15885,-13,-3,-9,-36,14,6,-2,-2
15890,0,-2,-3,5,-25,4,-6,12
15895,14,3,7,0,6,-15,2,7
15900,-1,-2,-12,10,-8,-8,-3,-15
15905,3,2,10,-12,7,0,3,-7
15910,-4,1,-9,6,12,-5,-1,-10
15915,-6,-4,15,-3,4,13,2,-23
15920,0,3,1,-17,-20,-9,-1,39
15925,-1,0,-13,40,-7,1,-3,-14
15930,7,2,7,11,46,24,2,13
15935,0,-1,1,-13,-38,-55,-6,-2
15940,14,3,5,-24,6,-8,3,3
15945,0,-2,-2,-8,10,9,-1,-6
15950,-5,-2,-7,-13,-31,-1,0,-8
15955,-3,0,-12,5,13,12,1,-4
15960,-11,-1,9,14,-14,-2,-3,-10
15965,6,1,-15,-4,3,0,3,8
15970,-4,-3,10,1,6,-6,-1,-5
15975,1,-2,-1,-8,-1,9,-2,-6
15980,9,3,-4,13,3,-11,3,19
15985,3,3,3,-31,-3,18,1,-3
15990,0,-3,-9,32,3,-13,-1,-13
15995,-3,-1,0,0,-8,7,0,10
16000,0,1,9,23,22,2,-2,1
16005,-10,-6,2,-9,-9,2,2,15
16010,4,-4,1,-22,-25,-32,-8,-9
16015,6,8,-15,-10,37,23,2,-14
16020,-2,1,8,-11,-48,-5,-1,12
16025,10,-3,-11,0,16,1,0,-21
16030,-1,-3,1,2,3,-3,1,23
16035,-3,-4,0,-20,-4,-10,-2,3
16040,-16,-3,-5,1,7,26,-4,-25
16045,-1,5,12,37,-2,-1,-1,-13
16050,-2,-4,0,-4,-4,7,-3,22
16055,0,1,7,36,0,-12,-1,2
16060,-3,-7,-1,-17,14,-4,-1,-12
16065,-13,-5,-6,-18,1,-3,-1,-34
16070,4,3,-17,-6,-16,-26,-4,14
16075,-18,-10,-6,-12,-6,11,5,66
16080,16,6,20,8,13,-10,-8,-48
16085,-4,-3,-15,-24,-14,36,2,8
16090,-10,-2,-12,-11,5,-13,1,-33
16095,4,1,6,-6,-8,21,0,10
16100,-10,-4,-17,-20,-8,-21,-1,6
16105,11,-2,5,31,-17,16,-2,23
16110,6,4,24,9,12,-19,0,-3
16115,3,0,1,33,16,-4,-3,-11
16120,-11,-5,-17,-17,-13,-9,3,-41
16125,6,2,5,-25,-3,-29,-6,28
16130,-4,2,3,8,-10,-1,5,10
16135,-6,-5,-5,0,9,-4,-1,-17
16140,14,1,-19,3,4,10,1,13
16145,-10,1,-7,-23,-22,-27,-2,-6
16150,-3,-3,-2,-2,-5,11,-1,-28
16155,-7,-3,2,-53,-12,0,-1,-1
16160,21,6,0,59,12,16,3,28
16165,-11,-2,-1,1,-7,6,2,6
16170,22,3,-21,-9,9,-10,-2,29
16175,-5,-4,6,-2,-9,-47,-3,-29
16180,-12,-4,-1,-8,12,11,3,-14
16185,20,1,9,2,-7,-17,-4,20
16190,-5,-4,6,21,18,27,2,-4
16195,6,0,1,-16,-32,11,-2,-9
16200,-6,-6,-16,-14,-17,-5,-5,25
16205,-7,-1,2,-23,10,-5,-2,-32
16210,-5,-4,10,30,9,18,-2,0
16215,9,5,-7,16,4,3,0,17
16220,-3,-2,11,9,27,10,1,13
16225,-2,0,21,22,-33,9,-1,1
16230,0,3,1,-25,-1,2,-3,-22
16235,-14,-6,3,32,1,2,-1,5
16240,13,5,4,15,25,20,6,20
16245,4,1,-9,-9,28,-19,-1,-10
16250,-3,-3,-12,-3,-15,22,-2,6
16255,-5,1,9,-8,-10,-17,-5,-16
16260,-16,-4,14,-4,32,-7,-3,-16
16265,8,-3,-8,22,-30,4,0,23
16270,11,5,-10,-15,4,14,3,8
16275,7,1,-5,-8,-3,6,0,-11
16280,-7,-3,1,-2,-21,-6,2,-9
16285,-16,-6,-10,26,38,26,-2,-36
16290,15,-1,4,2,-11,15,0,41
16295,-8,-3,-3,-15,3,-9,-2,-36
16300,-3,3,-10,-27,4,-6,-4,12
16305,-9,-5,-2,11,-12,-13,0,-8
16310,-18,-2,7,11,6,9,2,0
16315,18,7,2,2,27,27,0,17
16320,-7,-6,-6,-8,-46,-19,-2,-6
16325,-3,0,-7,2,26,3,-1,-8
16330,-9,-1,5,-28,-20,-18,-2,-10
16335,10,3,4,19,-1,1,0,5
16340,-4,1,5,29,0,9,-1,-15
16345,-3,2,32,-2,4,-20,-2,36
16350,5,-6,-9,0,16,-10,2,-7
16355,0,-3,-11,-17,-16,4,0,-30
16360,-2,1,6,-6,-12,4,-2,6
16365,-13,-1,-4,-12,11,13,1,15
16370,16,7,6,21,37,-9,-3,-12
16375,-6,-5,-12,-21,-6,-10,-2,19
16380,19,7,1,21,-12,-4,-1,7
16385,-8,-3,-4,-33,18,5,-1,-26
16390,-1,-1,-20,-30,-35,11,1,10
16395,-10,-2,-16,38,19,-1,4,-6
16400,-2,-1,16,-16,-3,-23,-5,-11
16405,18,2,-5,3,-18,-12,1,22
16410,-26,-1,9,-8,11,-3,-2,-51
16415,29,2,-4,2,-4,7,-6,55
16420,-5,-8,-29,-10,4,-16,-1,-1
16425,3,-1,2,5,-13,-1,-1,-22
16430,-16,-2,7,14,-3,5,-1,-21
16435,-14,-3,5,-13,-10,-33,-7,20
16440,-1,0,0,2,21,10,3,16
16445,-1,-2,-10,-14,-29,4,-1,-21
16450,6,1,7,14,20,6,0,4
16455,-10,0,-7,9,6,18,2,-14
16460,6,0,-9,6,-18,-28,-3,17
16465,-4,-2,-11,-20,8,2,-3,7
16470,-11,-2,-1,-3,-20,-16,-3,-42
16475,8,4,22,9,6,14,1,40
16480,1,-1,10,20,11,-6,-3,-20
16485,-8,-2,4,9,0,-19,1,-11
16490,-8,-1,2,-2,-1,3,-5,4
16495,22,3,-16,5,-7,6,5,12
16500,-10,-1,0,-3,3,8,-3,-12
16505,-4,-5,22,2,-21,23,-3,4
16510,3,-3,-7,-24,-13,-1,0,7
16515,-17,-2,12,14,2,5,-2,-38
16520,6,3,0,-55,-11,13,3,43
16525,7,0,-14,47,10,-15,-4,-33
16530,-12,-6,-1,7,-6,7,1,30
16535,14,2,4,-9,-5,-3,4,11
16540,0,-5,4,-4,-6,-26,-8,-14
16545,-20,-1,1,-9,6,17,2,-40
16550,39,9,-2,-7,-5,-17,0,63
16555,-12,-3,-7,-6,13,-2,-4,-24
16560,-13,2,22,21,-13,-16,1,-14
16565,-3,-4,-13,-18,12,-8,-6,0
16570,-4,-2,-18,19,-4,6,3,-21
16575,3,0,-10,3,9,-5,1,8
16580,7,-4,-2,-3,-3,20,2,13
16585,-2,1,5,-10,14,-3,-3,-5
16590,-11,1,30,10,3,-7,-2,1
16595,-3,-5,-15,7,4,14,1,1
16600,5,-1,-5,19,0,-6,0,-21
16605,2,3,12,2,-12,3,2,10
16610,-5,-6,-15,-36,9,-20,-6,-4
16615,4,9,24,17,-11,-11,-1,-9
16620,-5,-4,-6,-12,-12,12,1,-23
16625,11,0,-13,-12,21,2,2,34
16630,-11,-3,7,17,-7,-3,0,6
16635,-9,-3,9,3,-4,-2,-5,-51
16640,-9,2,-10,-1,10,10,3,-8
16645,39,10,1,-8,-7,-2,2,44
16650,-5,-3,-2,-14,11,10,-2,-7
16655,-9,-4,-11,-20,-23,-2,0,-1
16660,-12,-3,0,1,-1,-4,-4,-30
16665,-1,0,10,17,8,-4,1,17
16670,13,0,-3,12,-26,-5,-2,24
16675,-5,-1,1,-7,8,1,1,-14
16680,2,0,-3,-19,1,5,1,-5
16685,-13,-2,-4,0,-10,-5,-1,13
16690,1,-3,-7,-29,-1,1,-1,-2
16695,-5,-3,0,2,17,-9,-1,-8
16700,-4,2,17,7,1,-2,-2,-9
16705,-4,-4,-11,0,-4,-22,-2,-24
16710,-7,2,0,-16,-1,20,4,27
16715,-9,-3,7,0,0,-2,-7,-20
16720,-6,-1,-3,38,-2,27,3,8
16725,1,1,2,3,15,8,-2,-12
16730,-1,-1,-9,-42,-26,-21,-3,-5
16735,-4,0,-2,-2,6,0,0,5
16740,-5,0,15,21,8,1,-1,-30
16745,-4,-1,-12,-45,-6,-5,-3,47
16750,9,-2,-10,21,18,-9,0,-18
16755,-7,-7,-4,-14,-32,-33,-7,-12
16760,3,-3,-9,3,15,1,0,14
16765,7,1,4,-12,2,-12,0,-2
16770,-7,0,10,13,-15,8,2,10
16775,5,-1,-13,-19,-4,3,-1,3
16780,-2,-6,-3,4,-10,-8,-1,-2
16785,-3,0,7,26,11,10,0,-6
16790,-3,0,-12,31,-2,-7,3,-17
16795,14,6,7,3,17,19,3,23
16800,-1,2,-4,-33,-41,-6,-4,15
16805,-10,-4,-1,-4,5,7,0,-52
16810,10,1,35,31,-4,1,1,46
16815,20,5,-25,-10,7,19,4,0
16820,-3,-4,-13,-4,20,-41,-5,26
16825,9,1,1,13,-32,12,-2,-25
16830,-11,-1,-3,-3,4,1,-3,-53
16835,-7,-3,2,-16,8,-4,-2,18
16840,7,3,15,13,-6,19,2,23
16845,-15,-7,-7,5,0,-3,-3,-2
16850,-4,-3,-12,-30,7,-2,-3,-35
16855,-7,-1,10,24,-1,-7,-2,26
16860,13,1,-5,3,-5,16,1,-4
16865,-8,0,2,28,0,-14,0,-17
16870,20,7,15,-25,-3,9,3,11
16875,16,-1,-15,21,-5,-4,0,41
16880,-12,-5,0,-6,-13,-2,-1,-8
16885,-5,-1,-8,-1,24,28,5,32
16890,12,0,-4,5,-17,-7,-6,-32
16895,-16,-2,2,-10,-8,-21,-5,-35
16900,0,-1,-7,-2,2,-8,-1,-3
16905,12,4,4,-5,-7,6,3,35
16910,-12,-3,2,13,17,6,-4,-1
16915,-6,0,8,3,1,9,1,-3
16920,0,3,-1,-15,17,13,-1,1
16925,-2,-2,-3,-4,-19,-14,-4,-1
16930,-2,2,-6,17,9,2,4,19
16935,1,-2,4,0,-4,-4,-2,-15
16940,5,-2,-1,-18,-5,-1,-1,5
16945,-6,-2,-4,-4,-13,-12,-2,-11
16950,1,-2,-3,7,-9,-9,-4,10
16955,-3,0,13,-1,19,1,1,-21
16960,0,0,-15,-9,-9,-9,3,14
16965,15,3,-1,0,10,18,-1,13
16970,2,3,5,1,-10,-27,-1,1
16975,-13,-3,0,-11,6,1,5,2
16980,-5,-4,17,-7,2,8,-8,-27
16985,-9,-5,-4,-4,-1,4,0,-15
16990,-5,1,-6,-18,15,2,-1,20
16995,6,0,-6,13,1,14,-1,-11
17000,-4,-2,-3,-13,-4,-8,1,-4
17005,3,4,24,11,-6,-3,-5,17
17010,-5,-2,1,-19,11,13,0,-15
17015,1,-1,-9,-9,-10,-9,0,-5
17020,-1,0,-6,-8,-5,20,0,13
17025,-1,-2,-7,-1,0,-16,-2,-17
17030,-3,1,1,-7,1,8,-1,11
17035,-6,4,38,-18,-9,-3,-6,-31
17040,-5,-7,-17,19,16,-20,0,40
17045,22,7,-4,8,-18,24,8,-30
17050,5,-2,-11,2,7,-11,-4,26
17055,-4,-6,-15,-27,-19,-3,0,5
17060,-15,-3,12,23,12,-3,-2,-12
17065,-8,3,4,6,12,-3,-3,-24
17070,8,0,-4,28,14,7,2,29
17075,-1,1,7,6,-14,0,-1,-7
17080,5,2,-9,-20,-6,-7,-6,-16
17085,-8,-4,-20,-7,10,-10,-1,4
17090,-15,-4,17,8,-5,2,0,-34
17095,6,1,-12,-7,0,16,-1,13
17100,-4,-1,19,9,-3,-2,0,-9
17105,-1,-6,-11,6,4,15,0,21
17110,1,2,-6,-36,-12,-28,-4,-13
17115,-7,-5,16,22,-23,4,-4,0
17120,8,1,-19,-1,-6,-28,1,-3
17125,-5,-2,-24,-34,6,-15,-1,2
17130,-1,-1,9,20,15,24,3,-10
17135,12,5,-3,-3,6,-6,-2,12
17140,1,1,-1,-4,-4,3,1,-1
17145,-9,-2,12,-28,-24,-9,-6,-17
17150,-12,-5,-10,22,10,7,0,25
17155,9,3,-1,-10,-4,-22,-1,-3
17160,4,2,16,11,6,21,2,-10
17165,3,-6,7,-11,9,-13,-4,13
17170,-14,-7,-1,10,-42,-1,-3,-6
17175,9,2,-12,8,29,5,0,3
17180,5,2,7,-8,-12,-11,2,-3
17185,-6,1,2,4,-36,-21,-4,-21
17190,-10,-1,5,-12,5,4,2,-6
17195,-2,-6,-26,-9,8,-29,0,24
17200,23,4,-9,20,11,14,0,-4
17205,-6,0,-2,5,13,-2,1,1
17210,4,2,-7,-10,-4,6,1,-13
17215,-11,-3,9,-10,-18,1,0,-6
17220,-6,-1,-16,-26,-1,14,-2,18
17225,1,3,-3,18,11,-1,3,8
17230,5,2,-12,15,4,-14,-3,-7
17235,-8,-5,24,-26,0,10,-4,-11
17240,-7,-6,-13,20,1,-4,6,-24
17245,-8,-5,1,-6,1,2,1,28
17250,11,3,-1,-7,11,26,-4,-14
17255,14,2,-18,-2,-53,-49,-3,-3
17260,1,3,19,14,8,13,-2,19
17265,-16,-5,7,-3,-6,-10,0,-31
17270,-6,-4,5,26,16,-1,-1,-2
17275,2,2,-6,29,23,28,5,-4
17280,-10,-4,-5,-50,-16,7,-5,-22
17285,12,4,-3,45,1,-22,-3,29
17290,-12,-4,15,-24,-14,-3,0,-21
17295,-6,-6,-14,8,8,9,0,13
17300,-1,-1,1,-6,4,-15,-1,-1
17305,4,1,6,-7,12,18,0,1
17310,3,-1,-14,-10,-18,-6,1,1
17315,-2,4,6,14,-5,-7,0,-13
17320,5,3,-13,-44,-3,3,0,10
17325,-4,-6,-12,33,-5,8,-2,-14
17330,4,0,4,-4,18,-5,-1,21
17335,-5,-4,-5,-5,-1,4,1,-11
17340,-10,0,53,29,3,2,-1,3
17345,7,-1,-14,8,-20,-9,-2,11
17350,4,-3,-7,-30,0,-6,-1,-10
17355,-2,3,-16,51,23,23,5,9
17360,6,1,29,-34,-9,-30,-8,18
17365,-6,-1,-8,-17,6,20,3,9
17370,5,-5,-20,-8,-1,-1,1,-9
17375,4,2,-8,-43,1,-20,-5,-4
17380,-9,0,-8,37,-12,9,2,-11
17385,-18,-1,22,-13,13,2,-2,-20
17390,15,2,-11,-7,-16,10,1,27
17395,7,3,23,18,8,-43,-6,7
17400,3,-2,-30,-5,-4,7,2,11
17405,-3,-1,0,-24,4,-9,-4,-12
17410,-5,-1,2,-11,13,8,2,-11
17415,-8,-7,5,20,3,5,-4,9
17420,0,1,22,-21,-27,3,-3,-3
17425,2,0,-11,25,14,-6,3,-15
17430,-1,-2,-6,3,-2,1,1,25
17435,-3,4,20,-3,-3,14,2,0
17440,0,-2,-30,15,24,10,-4,-6
17445,7,0,7,-3,-5,-1,2,10
17450,2,0,-2,6,-6,-9,-1,8
17455,16,6,2,-8,-11,12,-2,-3
17460,-16,-5,-8,-9,17,5,2,-18
17465,23,5,1,13,4,-12,1,28
17470,-1,2,5,9,-3,-2,-2,-12
17475,-12,-2,3,4,-9,4,-1,0
17480,-2,0,9,4,-1,15,-1,-12
17485,-3,-4,-12,-36,-13,-8,-3,-6
17490,3,3,7,32,12,-2,3,-10
17495,-6,-9,-23,-29,-2,0,-2,6
17500,3,1,2,23,2,32,-1,-15
17505,-5,-2,13,-21,-13,-17,0,26
17510,-7,-1,-9,-16,-4,3,-1,-9
17515,-1,0,0,14,7,12,-1,-8
17520,11,2,-13,18,12,-25,-3,20
17525,17,3,0,-4,-5,6,4,18
17530,-5,-4,11,-1,17,-11,-3,-27
17535,-8,-4,-16,-7,3,10,2,0
17540,-8,-4,-10,-24,-12,-14,0,6
17545,1,3,6,-11,7,15,-5,-24
17550,-4,1,16,4,-20,-14,-3,-5
17555,-13,-5,-16,-7,12,3,-2,-32
17560,6,-1,-9,15,2,-15,0,40
17565,6,-2,-2,10,2,14,1,5
17570,-3,-4,1,-5,-11,-18,-3,-32
17575,-7,2,16,-8,19,7,-2,17
17580,-18,-3,26,-30,-42,-23,-3,-8
17585,17,-3,-28,60,27,9,1,-6
17590,1,1,-1,5,2,6,-1,-11
17595,-7,-5,-4,-26,-22,-20,-2,6
17600,-8,-3,-26,-10,14,1,1,-16
17605,-7,4,16,-2,7,11,-5,-25
17610,5,1,7,2,-15,-25,-4,23
17615,-6,-3,0,-8,-13,13,3,7
17620,-1,0,-10,14,1,-2,2,8
17625,11,3,-2,-18,-26,-9,-6,-17
17630,3,-1,-2,10,17,24,4,46
17635,8,4,17,4,-12,-21,-3,-25
17640,2,-4,9,28,-6,-24,-6,3
17645,-19,-5,5,7,-8,-7,-3,-2
17650,-8,-5,-18,-12,19,12,2,0
17655,-4,-6,6,19,-13,25,-1,-18
17660,2,2,-6,-28,-1,2,-5,13
17665,-1,3,39,-12,14,-2,2,8
17670,-2,-1,-13,22,2,11,2,5
17675,-3,-2,-24,-9,-10,-24,3,-12
17680,2,0,-1,6,4,7,2,-2
17685,-14,-6,-7,-24,-4,-20,-8,-7
17690,3,2,7,-10,2,4,-3,-10
17695,5,1,15,41,-3,5,3,21
17700,0,-5,-9,-4,1,-4,2,-16
17705,1,0,-12,-5,2,0,2,12
17710,-9,-4,12,-17,-11,8,-2,-18
17715,-7,-3,-8,-40,0,-47,-5,-7
17720,12,3,1,39,0,15,2,-3
17725,-16,-9,-11,0,-7,-2,-3,11
17730,38,10,-13,-1,-6,-5,1,-3
17735,-6,-1,3,-17,7,23,0,9
17740,-10,-3,-3,-6,22,0,-6,-15
17745,-2,-1,13,1,-22,-1,0,-3
17750,-12,-6,-15,-3,-17,-17,-3,-8
17755,11,-1,-29,-9,3,16,1,1
17760,5,1,9,-12,-12,-12,2,10
17765,10,6,-4,19,0,23,1,1
17770,-5,-3,9,-8,3,-6,-1,12
17775,-5,-3,-1,-5,-3,-3,-3,-34
17780,-5,-2,-9,20,-2,4,0,39
17785,0,-1,-7,-22,-1,-9,-2,-19
17790,-1,-4,-18,-49,-11,10,-2,19
17795,0,4,21,58,8,8,0,-18
17800,1,-2,-7,-5,9,-7,-1,8
17805,-6,-2,-7,-26,-8,-15,-4,-1
17810,-4,-1,6,5,8,8,1,2
17815,4,1,-2,-13,0,1,1,11
17820,1,0,8,-33,1,5,-2,-9
17825,-14,4,39,40,-3,-4,0,3
17830,7,-3,-36,-3,-7,-2,-1,3
17835,0,-4,-3,-10,23,33,1,-7
17840,3,-2,21,8,-20,-2,-6,14
17845,1,-5,-31,-14,2,-5,7,11
17850,0,4,30,42,18,-3,-2,-10
17855,5,0,4,7,-4,-3,3,14
17860,-6,-1,-14,-1,3,11,0,-15
17865,-8,-3,18,-15,-2,7,-7,-4
17870,-19,-2,-7,-22,-11,-8,-4,-10
17875,13,4,-16,-14,7,-1,2,27
17880,1,2,18,36,8,13,0,-7
17885,0,1,20,-15,-14,-14,-1,-12
17890,2,-3,1,12,15,-10,0,-8
17895,-17,-6,4,-22,-34,-4,-7,18
17900,1,0,-6,-22,26,9,0,-13
17905,3,-2,-19,13,-17,-5,-2,-2
17910,5,4,3,-1,-4,-7,0,-24
17915,-5,1,2,9,-2,-8,-1,10
17920,-5,-3,0,-8,2,9,-1,9
17925,4,-2,-1,5,-3,12,1,-3
17930,-3,-4,-6,8,5,-5,-2,3
17935,-3,-2,-1,-16,9,-7,-2,-15
17940,9,4,-4,-5,-13,-15,-5,2
17945,3,-1,30,31,12,24,3,9
17950,-3,-3,-8,13,-2,6,2,17
17955,5,-1,8,8,-5,-21,-5,-1
17960,-13,-5,-1,-2,6,9,2,-28
17965,4,-2,-13,-31,-18,-27,-6,10
17970,0,1,-3,10,-6,5,-1,4
17975,-9,-5,-10,-3,20,13,0,-6
17980,6,3,-2,24,6,-7,0,-7
17985,8,1,12,-2,2,-3,1,13
17990,-8,3,14,-3,-7,0,-3,-22
17995,-6,-6,-5,-29,-15,-7,-4,8
18000,-5,-7,-35,20,-3,-6,2,-11
18005,3,5,1,1,31,34,3,-36
18010,7,-3,13,-2,-9,-50,-5,23
18015,0,2,9,11,-13,1,1,-10
18020,-8,-3,-8,-15,-3,0,-1,-3
18025,-5,-2,-23,-1,11,-5,0,-10
18030,1,1,9,12,-10,13,-2,11
18035,-1,-3,-19,-13,2,22,0,-1
18040,6,2,2,-19,-27,-19,3,-3
18045,-4,-3,-13,12,44,4,-3,13
18050,5,5,4,-2,-20,10,-2,-16
18055,0,0,5,19,12,-19,-2,10
18060,7,2,4,-11,15,12,0,5
18065,-9,-6,-23,10,-19,-14,-2,-11
18070,4,-2,7,-10,8,-8,0,9
18075,10,3,14,1,-10,4,0,0
18080,-9,-1,7,1,13,11,5,5
18085,-11,-3,-5,-26,-16,1,-7,-18
18090,-1,-3,-11,7,12,2,-2,20
18095,6,-2,-14,5,-10,-13,1,26
18100,5,2,2,-46,-12,-9,-3,-18
18105,-11,-4,-2,28,28,15,-1,0
18110,-4,-1,-5,-7,-21,6,-1,15
18115,13,5,-3,-27,5,-7,-1,-2
18120,-2,-1,0,15,3,16,0,11
18125,-1,-1,-5,-2,-3,2,0,-13
18130,5,1,-14,-45,1,3,1,4
18135,-7,5,37,29,3,-6,-3,-12
18140,7,-2,8,22,-7,-18,-3,6
18145,-1,-4,-13,-13,-27,-6,1,0
18150,-7,-6,-16,-2,10,7,0,-7
18155,-6,2,8,-2,18,17,0,1
18160,-4,-3,2,-1,-6,-6,-2,4
18165,3,2,-3,44,-2,-20,-2,-1
18170,-3,-3,3,-20,10,12,0,-7
18175,2,-3,-12,10,-3,9,-4,-12
18180,-3,0,15,12,-5,14,-1,-15
18185,1,0,-20,-41,-15,2,0,13
18190,-6,0,4,-10,0,-3,2,6
18195,-14,-1,8,1,-9,-26,-4,-16
18200,8,-2,-20,-7,-3,-4,1,-3
18205,8,2,14,-2,17,-2,-4,9
18210,-2,-4,0,10,-26,8,-1,-9
18215,-3,-4,-9,2,9,-1,-1,0
18220,-20,2,2,-15,-4,-6,1,0
18225,10,0,5,10,-1,-11,-2,17
18230,6,3,-13,-14,4,0,-1,-29
18235,-2,0,4,13,-2,-1,-2,10
18240,7,-1,-16,-13,3,-3,-3,-6
18245,-9,-2,1,14,3,17,5,-4
18250,0,-3,4,11,-6,-11,-6,16
18255,0,4,23,15,3,10,4,4
18260,-13,-5,9,12,0,-12,-7,-28
18265,3,0,-14,-38,-5,7,0,22
18270,-5,-5,6,20,-7,-46,-3,-14
18275,-3,-5,-5,-18,-6,5,-2,-3
18280,-4,-4,8,-26,-19,-31,-4,-9
18285,-10,-1,-5,38,0,-2,2,13
18290,12,3,21,12,-2,-3,0,1
18295,9,-1,-28,-2,-3,14,-2,7
18300,1,1,-8,-9,4,-2,-1,4
18305,-4,-2,8,-43,-14,2,1,-28
18310,-15,-4,1,49,5,-2,-1,7
18315,3,4,15,-16,6,1,3,-11
18320,20,2,-4,40,5,12,2,34
18325,-1,2,14,3,4,-7,2,29
18330,-1,-1,2,-7,-2,7,-10,-52
18335,-7,-5,-32,-8,16,-10,3,7
18340,12,-1,-16,-1,8,14,2,12
18345,-2,2,25,1,0,1,0,-2
18350,-15,-6,-24,-6,-7,-3,0,-14
18355,8,3,-4,10,12,5,-2,16
18360,-4,-1,13,16,-2,0,0,-20
18365,5,1,-26,-59,-7,-19,-3,10
18370,-1,2,-4,34,-6,-17,0,-10
18375,-11,-5,-5,1,-10,8,0,-2
18380,6,0,18,-4,4,2,1,17
18385,6,-2,-3,2,1,11,-3,-25
18390,-3,2,8,-26,1,10,0,9
18395,-9,-2,-1,-10,10,3,-1,-9
18400,-1,0,-14,-12,-30,-21,-3,-1
18405,-11,-4,10,34,5,1,-3,-18
18410,5,-1,-12,-9,13,20,2,-2
18415,17,1,7,13,-5,-13,-2,28
18420,-11,-2,0,-36,4,13,-2,-13
18425,8,3,2,38,-7,-11,-1,0
18430,-9,-4,-1,-14,-6,3,0,0
18435,-4,1,-4,-9,3,9,0,-7
18440,-9,-4,12,-4,-14,-50,-6,1
18445,-3,1,31,21,-6,0,-4,-5
18450,6,-2,-5,4,8,11,3,19
18455,-11,2,-3,-7,-14,-5,-2,-9
18460,1,-6,-8,-11,15,23,3,23
18465,2,-3,-25,-67,-15,-30,3,-7
18470,2,2,33,63,-6,-2,-4,1
18475,6,-2,-13,-23,-5,3,-3,5
18480,-3,3,19,43,5,-3,0,-15
18485,1,-4,-20,-13,15,6,-4,22
18490,5,4,-3,-19,11,18,1,-27
18495,-10,-3,7,21,-12,-11,-1,-21
18500,-5,-1,-13,29,11,9,-2,6
18505,1,-2,8,-4,-4,5,2,6
18510,-2,4,-11,-38,23,2,-2,-10
18515,3,-3,-12,44,-2,17,-1,8
18520,3,2,-4,-22,-11,-44,-4,8
18525,-15,-3,0,3,1,4,0,-23
18530,-2,3,13,5,-15,-7,1,17
18535,14,4,2,4,12,4,-2,-9
18540,7,3,-11,11,-4,15,1,-15
18545,-1,-2,-29,-43,17,3,0,14
18550,5,2,3,17,-6,-4,-3,-7
18555,-6,-1,-1,-19,-3,-13,-1,-6
18560,1,-2,6,19,-9,21,0,12
18565,4,-3,12,-3,19,-10,-4,-13
18570,-6,-4,-15,-9,-36,-14,-2,9
18575,-10,-2,3,4,-1,-5,1,-5
18580,6,1,-6,-7,16,13,1,1
18585,-1,5,12,21,3,8,2,-13
18590,8,-1,8,-31,-1,-7,-4,14
18595,8,-4,-17,15,2,15,2,2
18600,-9,0,2,2,0,-16,1,-15
18605,-4,-4,-2,4,-13,8,0,-11
18610,-8,-1,-2,2,8,2,-3,-8
18615,0,1,9,-27,-12,-14,-4,24
18620,8,0,10,6,-8,14,2,8
18625,-4,-2,-25,23,34,13,-1,-52
18630,-6,0,-2,5,8,11,0,54
18635,13,2,7,-12,-6,-15,1,-6
18640,3,-3,-14,-36,-5,-9,-4,5
18645,-4,1,14,-7,-31,-4,-5,6
18650,-11,-3,4,10,5,-8,-1,-21
18655,-10,-2,9,0,-3,11,2,-2
18660,-8,0,-4,15,6,-5,-4,14
18665,16,1,-3,3,5,7,3,-2
18670,4,0,-6,-22,-3,8,1,3
18675,-9,-5,34,27,-2,-7,-1,10
18680,-12,-4,-7,-32,-12,-10,-7,-30
18685,10,-1,-11,29,-1,8,1,25
18690,6,-1,-7,-11,6,7,3,13
18695,0,-1,-6,-5,-8,-18,-4,-15
18700,-13,-5,-18,-1,4,-7,-1,-26
18705,0,2,6,-25,-6,0,2,16
18710,1,2,19,28,8,-2,0,5
18715,7,-1,-19,0,15,11,1,6
18720,-10,1,23,20,-11,-2,-3,-16
18725,13,4,-7,39,0,-9,-2,17
18730,7,-3,3,3,9,18,6,12
18735,-4,-1,-4,-5,-22,-31,-2,-17
18740,-4,-1,13,-39,12,-5,-2,1
18745,-18,-5,20,38,-12,-4,-6,-6
18750,4,1,-13,2,6,14,1,1
18755,-4,-1,-6,-13,10,-7,2,14
18760,7,0,-13,-3,-2,12,0,-10
18765,-5,0,14,-25,-9,-22,-4,10
18770,-9,-3,-9,7,12,-4,-1,-3
18775,1,1,-16,-18,-26,5,0,-19
18780,-6,0,12,35,25,25,-1,-6
18785,6,-2,-15,-2,-4,24,1,-5
18790,4,0,-3,-5,-1,-13,3,27
18795,-7,1,0,-16,-2,-7,-1,-8
18800,0,-3,3,2,-11,7,-5,-7
18805,-3,-3,3,-12,9,7,-3,5
18810,-1,-4,-6,6,-5,-13,-4,-17
18815,-7,-4,3,-3,6,-16,-3,-13
18820,7,3,8,8,0,3,3,28
18825,-2,-2,-9,1,-15,-7,-2,-6
18830,-6,0,6,-13,-5,-11,0,-24
18835,5,0,3,-3,9,11,-2,24
18840,5,-3,-11,-2,8,-4,6,-2
18845,6,4,-10,-17,-10,-16,-2,5
18850,-4,2,6,-33,-7,1,-3,0
18855,-2,-2,16,36,14,19,-3,-20
18860,16,3,-20,15,-11,-20,1,10
18865,-10,-4,-3,3,5,-2,3,1
18870,-2,-4,-21,-11,-10,-5,-1,8
18875,-3,-1,19,-14,5,12,-6,-24
18880,-8,1,1,-15,-5,-2,-2,7
18885,11,-1,0,10,5,2,3,20
18890,-3,-4,-1,-2,9,-12,-3,-8
18895,0,-1,-17,27,6,0,3,2
18900,-1,-3,-4,-5,0,12,3,-20
18905,2,4,24,-9,-12,-8,-3,3
18910,-5,-2,6,-51,-9,-5,-4,-10
18915,3,0,-8,41,6,4,4,4
18920,-11,-5,-2,-10,5,13,-1,-17
18925,-5,-4,5,18,5,-29,-3,13
18930,-1,-1,3,-12,-3,-17,-5,-31
18935,0,-2,-4,-15,-13,10,0,11
18940,24,7,15,16,-4,-6,1,42
18945,-14,-7,-21,-32,-13,1,-4,7
18950,7,3,7,45,26,12,-2,-28
18955,-10,-7,-17,-23,-8,12,-2,1
18960,-13,0,1,-16,3,-8,-1,-5
18965,1,1,20,21,-2,-4,-4,-15
18970,-4,-1,4,9,-24,0,-1,2
18975,9,1,-9,1,2,1,3,16
18980,-9,-4,-3,-6,2,5,-1,-9
18985,-1,-1,-12,2,-8,6,1,-3
18990,1,-1,-3,-1,15,-4,-1,-4
18995,-2,-5,0,-18,-16,-9,-4,4
19000,0,3,9,9,-2,-5,-1,2
19005,18,4,-4,-4,-5,1,2,3
19010,-18,-2,7,-14,13,25,3,-51
19015,5,-4,-27,-21,-20,-20,-7,53
19020,11,0,-25,3,5,-29,1,-5
19025,-3,-1,2,2,12,4,-1,-6
19030,2,1,-19,0,-17,26,1,10
19035,-18,-4,36,-41,-5,-2,-7,-36
19040,-3,-3,-4,-10,-2,2,-4,-2
19045,10,-1,-7,21,-7,-5,2,23
19050,11,5,3,28,17,5,0,7
19055,-5,0,-3,2,8,-5,3,-4
19060,-12,-5,-2,-11,-17,-18,-8,-1
19065,-3,0,2,-13,2,11,0,-8
19070,-1,0,31,8,0,-11,-1,19
19075,-1,2,-10,21,7,19,-2,-8
19080,12,-6,-22,-7,9,-39,0,0
19085,-12,-2,-4,-10,-4,7,-3,-5
19090,-7,-4,1,1,-10,-19,-2,-36
19095,2,2,7,15,1,-12,-1,43
19100,-3,-2,-18,-4,-2,29,3,-1
19105,-7,-5,-21,-25,6,-2,-5,-13
19110,-4,-4,2,37,7,1,2,31
19115,7,0,4,-15,-25,-11,-1,-49
19120,-7,1,9,27,0,12,-2,1
19125,7,3,3,0,8,3,-2,-1
19130,-8,-3,7,-11,-12,-5,-2,4
19135,1,-1,-10,-27,7,-4,1,-9
19140,5,-3,-7,10,-4,21,2,31
19145,2,0,-1,-10,12,-2,-3,-24
19150,-1,-3,-15,4,0,-29,-2,24
19155,2,1,6,-4,13,9,1,-20
19160,-10,-4,12,10,-14,2,-4,1
19165,2,0,-15,3,5,2,1,-14
19170,11,2,7,-10,-15,9,-2,14
19175,-2,-2,-15,11,-7,1,-1,-2
19180,2,4,9,-9,7,3,1,0
19185,-14,-4,4,8,-2,14,1,-13
19190,0,-3,-30,0,2,11,-1,-1
19195,-2,-1,11,16,-6,-42,2,4
19200,10,2,6,4,0,7,-1,1
19205,0,3,-11,-24,-7,-9,-1,-3
19210,-5,-3,-10,-27,-9,5,-1,0
19215,12,5,13,35,30,6,3,17
19220,-8,-4,7,-13,-4,-5,-4,-25
19225,-4,-2,-15,-6,-8,-15,1,10
19230,7,0,-5,-6,11,3,0,-6
19235,-5,-3,-13,-2,-5,4,-2,-10
19240,-12,-1,23,6,-7,2,1,14
19245,2,-1,19,25,11,4,-5,-15
19250,7,0,-4,3,-18,-20,-4,3
19255,-3,4,33,2,-8,12,-1,-10
19260,0,-4,-33,3,15,-3,-3,3
19265,-7,-2,5,-34,-25,5,0,7
19270,-11,-8,-10,14,6,-10,-5,-36
19275,40,9,-10,-1,-1,0,6,68
19280,-5,-2,-1,-18,-7,-4,-3,-3
19285,0,-3,-6,26,12,13,1,5
19290,-2,0,2,14,-5,-3,1,-6
19295,-13,-4,-7,-31,-8,-1,-7,-42
19300,5,3,10,-35,-11,4,0,17
19305,0,-2,4,28,18,-2,2,4
19310,1,-1,-1,-14,-6,-2,0,6
19315,-12,-8,-5,-5,-8,-12,-6,-3
19320,6,4,-2,42,0,0,1,-6
19325,0,0,3,-7,-6,3,2,11
19330,-3,0,3,-5,18,-2,-2,-2
19335,-8,1,52,-6,-11,9,-3,3
19340,-4,-3,-29,16,4,-16,-1,-22
19345,-1,-3,-9,-2,5,-7,-2,1
19350,4,1,7,-4,-11,15,0,10
19355,1,0,7,5,11,-13,-2,-1
19360,-7,-2,1,-26,-2,6,2,-11
19365,2,5,21,17,5,-4,-1,3
19370,-3,-3,-3,1,-14,8,2,-1
19375,-8,-8,-18,3,6,-5,-2,-16
19380,-6,0,6,14,-10,-4,-2,1
19385,8,0,2,-20,-6,-6,1,23
19390,3,3,12,-21,6,18,1,11
19395,-3,3,-29,18,10,2,-2,-31
19400,-2,-2,14,22,3,6,-1,-5
19405,1,-1,3,-24,-15,9,0,16
19410,10,-3,3,6,-3,-17,-3,14
19415,-5,-4,-18,-9,8,11,4,3
19420,-7,-2,-6,-16,-11,-29,-4,-28
19425,21,5,7,29,-5,0,-1,15
19430,3,4,11,-10,-1,-7,0,3
19435,-2,-4,-22,-10,9,3,2,0
19440,-2,0,-3,-13,10,20,2,-9
19445,-12,-4,8,-28,-17,-3,-3,-13
19450,-5,-3,-12,32,-2,-3,-3,-3
19455,4,2,15,7,6,6,-2,-3
19460,7,-2,-8,-33,10,6,-1,27
19465,-8,0,-9,-2,-10,-11,-4,-32
19470,-16,-3,6,0,13,8,-4,3
19475,1,2,22,12,-15,-5,-3,-11
19480,15,-1,-19,-8,5,-2,3,39
19485,2,-1,-3,7,18,-5,-1,-22
19490,-6,0,30,44,8,19,1,-38
19495,-11,-7,-34,-46,-11,-33,-1,42
19500,4,2,-5,-6,5,8,2,9
19505,19,1,-3,-12,-9,9,0,3
19510,-4,2,-5,40,24,-25,1,-8
19515,-10,0,28,0,-48,-22,-5,-4
19520,-9,-3,8,10,1,10,-1,-18
19525,-3,-2,-13,-3,25,3,2,17
19530,13,3,1,-21,-23,-7,-2,7
19535,-2,-2,-5,-21,14,23,-2,-18
19540,3,1,7,8,-8,-1,-2,12
19545,-12,-6,2,-5,-11,-2,-2,-6
19550,-1,0,0,-3,-3,0,-1,-4
19555,-1,-1,-7,15,10,-4,-1,9
19560,9,-2,5,0,4,-5,-3,-10
19565,-2,1,10,11,-8,-6,0,-3
19570,-4,-3,-28,-33,14,-8,-1,1
19575,2,2,-6,20,-14,10,1,9
19580,-4,1,10,-4,5,8,-2,-8
19585,7,6,11,37,0,-32,-4,-13
19590,3,-5,-14,14,6,2,-1,31
19595,0,1,2,15,16,22,6,-14
19600,-8,-3,4,-13,-7,-12,-4,4
19605,-7,-4,-12,-12,-9,8,2,-3
19610,3,0,7,-4,-17,-15,-3,-20
19615,-8,2,13,-6,10,1,-4,2
19620,18,1,-18,4,15,-4,2,15
19625,-20,-8,-6,-20,-1,-6,-7,-33
19630,4,-3,-12,-19,-7,3,1,35
19635,0,-1,12,-2,-3,0,2,-2
19640,-10,0,21,42,-2,-3,-6,-10
19645,-6,2,3,21,26,29,1,1
19650,7,-2,-10,-25,-2,-26,0,7
19655,9,0,-7,11,-14,-4,-1,-4
19660,-8,0,14,-16,-6,1,1,1
19665,-15,-6,-1,-83,-26,-7,-4,-18
19670,-7,1,18,77,39,29,-2,-13
19675,6,-4,-27,-12,-16,-24,2,8
19680,-6,-2,-11,5,-7,-16,-3,-14
19685,-1,-1,7,-12,8,11,-2,-5
19690,4,1,-12,-39,-27,-6,4,9
19695,7,0,0,-3,19,4,-2,7
19700,1,-6,-3,-5,-15,7,0,-6
19705,-5,1,-1,37,2,0,0,-14
19710,-5,2,29,3,-3,-3,-3,4
19715,-5,-2,-3,35,14,5,0,-1
19720,15,4,-23,-28,-13,6,-1,3
19725,7,2,-10,-9,17,10,2,23
19730,-13,-4,-5,20,-1,0,0,-41
19735,-5,-5,-10,-32,-22,10,-2,24
19740,25,5,13,11,9,-3,2,21
19745,8,0,-5,13,-9,-4,-6,-12
19750,-1,2,-7,-25,4,10,1,-19
19755,-11,-4,5,-7,7,8,-2,-3
19760,-11,3,-19,8,-7,4,-2,-38
19765,0,-5,7,2,3,-6,1,50
19770,3,-2,-9,-40,-2,13,0,-5
19775,-3,-3,2,37,4,-8,-5,-13
19780,-1,-4,-5,-2,8,-5,-1,-4
19785,-2,2,-8,9,-12,-11,-1,2
19790,-3,-3,9,-42,-17,17,-2,-1
19795,4,3,-7,3,13,-20,1,-2
19800,-8,0,-1,27,-8,-13,-2,-19
19805,4,-1,-17,-9,6,5,3,12
19810,1,0,-5,9,-9,-7,1,-4
19815,2,1,7,-8,-10,28,-1,18
19820,-6,-2,8,-14,18,-8,-1,1
19825,-7,1,5,4,-10,-5,-4,-10
19830,2,-3,-13,-7,-1,-4,0,5
19835,0,0,1,5,14,2,-2,-21
19840,1,0,-3,-12,-20,3,0,6
19845,0,0,9,9,0,0,0,11
19850,-3,-2,-12,9,1,-7,-5,-3
19855,4,1,-5,-2,-3,9,2,-2
19860,11,6,4,-10,6,10,-1,17
19865,-3,-3,4,1,-3,1,1,-21
19870,-1,-2,-7,3,-4,-4,-3,37
19875,-10,1,3,-17,5,25,3,-13
19880,2,-3,10,-2,-10,-10,2,32
19885,2,-2,-4,14,7,11,-7,-34
19890,-3,-2,0,2,-11,-25,-2,-3
19895,-2,-2,-12,-27,15,-6,1,-3
19900,-13,-1,7,-21,-8,12,-1,-11
19905,-3,-4,-2,59,-12,-6,2,3
19910,-1,-1,-6,-3,12,-2,0,9
19915,11,3,2,7,6,-2,-3,-11
19920,-12,-2,22,-18,-7,-13,-1,2
19925,2,-1,-14,-30,0,0,-3,21
19930,5,4,-5,25,2,12,2,-19
19935,-1,3,0,-1,-5,-21,3,13
19940,-2,-5,-4,-9,-3,-7,-3,-18
19945,-3,-3,-10,-20,-7,-4,0,3
19950,-6,-3,-4,4,3,3,1,-24
19955,-4,-3,3,10,-8,-2,-5,9
19960,0,1,-15,3,19,13,-3,-7
19965,10,0,-3,-7,-13,-26,0,14
19970,-2,-2,3,-13,-7,-5,1,2
19975,-1,0,7,28,-3,2,0,-22
19980,-3,-5,1,10,10,16,-1,18
19985,-8,-2,-1,-10,0,-36,-5,-20
19990,16,1,18,-3,12,21,2,28
19995,-7,-2,-12,-24,-4,-20,0,-18
20000,-8,-7,-7,5,-5,7,-4,-7
20005,4,3,7,11,1,-12,4,18
20010,8,-4,-10,-12,2,19,-3,-9
20015,7,-1,-4,-9,-2,1,2,10
20020,-2,0,3,15,-4,-13,0,-9
20025,-11,1,4,-8,6,10,-1,-20
20030,-16,-3,0,26,-5,-17,-4,-11
20035,11,-2,-14,-7,-13,5,1,2
20040,4,1,-4,-11,9,-11,-3,17
20045,11,1,2,12,-2,10,4,3
20050,-9,0,-2,-10,0,-1,-1,13
20055,-1,0,15,-11,-18,-11,-4,-15
20060,0,1,-11,17,4,3,6,1
20065,-4,-1,2,-11,26,26,-4,-17
20070,-3,-1,-8,-15,-5,-20,-1,0
20075,-6,-2,10,7,0,-17,-2,9
20080,6,1,4,-11,0,9,2,-3
20085,0,-2,22,-16,-3,3,-2,12
20090,-5,-4,-19,-2,4,-9,-4,-17
20095,-1,-3,-21,-10,-1,13,5,4
20100,5,1,10,9,2,0,-1,-4
20105,-10,-4,18,2,4,0,-1,0
20110,-2,-1,2,12,-1,-5,2,5
20115,0,2,21,-2,-17,6,-4,-4
20120,-1,0,-14,21,31,-40,-2,-3
20125,6,1,0,-16,-35,9,0,12
20130,5,-1,3,-47,24,-16,-4,9
20135,-2,-1,15,57,3,32,0,-1
20140,-6,-1,3,1,-11,-16,0,-7
20145,-2,-2,1,1,-18,-5,-3,-10
20150,1,2,-14,-5,9,-6,0,0
20155,-2,-3,-18,-19,2,4,1,-5
20160,-5,0,2,0,-11,2,-2,-18
20165,-1,1,7,-2,10,12,-1,22
20170,18,4,0,9,-13,20,2,29
20175,6,-6,11,30,15,-14,-4,-8
20180,-2,-4,-9,-23,-8,12,0,29
20185,-6,-1,-5,8,7,2,-3,-37
20190,-16,-3,5,-14,-24,-4,0,-30
20195,2,1,0,-15,9,-11,-9,19
20200,-1,-2,-8,20,4,22,3,-4
20205,-4,-5,-12,-4,4,-13,-1,-6
20210,-1,-4,16,-15,-24,-13,-3,0
20215,-4,1,-5,15,-20,-5,1,-3
20220,-8,0,9,15,11,16,0,3
20225,3,-2,-14,-13,5,-11,-1,5
20230,-1,0,-19,-17,-5,37,3,-5
20235,-6,-2,-16,-4,13,-14,-3,6
20240,6,1,5,7,-11,5,1,-20
20245,0,2,5,17,-6,2,4,-10
20250,3,1,-11,-34,-2,-18,-4,13
20255,-7,-5,0,11,5,-17,-2,-15
20260,-20,-3,6,-16,-3,-1,-3,-8
20265,20,0,-17,-3,-9,-26,-7,33
20270,-2,0,1,21,23,3,3,-14
20275,-5,1,3,-16,-16,15,1,1
20280,-7,-7,2,-3,2,4,-3,-27
20285,-14,-3,5,-13,-3,5,1,10
20290,2,2,10,41,-3,-19,-6,0
20295,10,2,-7,4,10,6,1,2
20300,-2,1,-3,-16,-2,-3,-3,1
20305,-1,-2,-3,-3,-13,15,0,-5
20310,1,2,5,-1,13,-1,-5,2
20315,-7,-3,13,-16,9,3,0,2
20320,9,-2,-41,2,-8,0,0,-3
20325,-1,-4,-14,5,14,-5,-1,-2
20330,2,-2,-2,1,-15,0,-2,-9
20335,-14,-2,19,-9,4,-6,-3,5
20340,3,-1,-1,-30,-24,-23,-1,-4
20345,26,9,-1,26,26,4,3,45
20350,0,0,7,22,10,15,1,0
20355,-1,-2,-18,-20,2,-6,-1,-9
20360,-10,-1,6,3,-15,7,-2,3
20365,-10,-4,-2,-42,-13,-23,-1,-9
20370,2,-1,-8,1,-2,-1,-3,-4
20375,0,1,-12,28,6,3,6,-3
20380,7,1,4,-15,4,-2,-2,2
20385,-7,0,8,26,-11,6,-1,-20
20390,-1,-1,3,-28,5,1,0,25
20395,-1,-1,4,2,17,19,-1,-9
20400,18,2,-10,-7,-20,-24,0,22
20405,-4,-1,0,4,20,8,-3,-21
20410,5,0,18,6,-14,-3,1,-9
20415,-10,0,19,4,-5,1,1,2
20420,1,0,-19,1,10,11,1,1
20425,-6,-1,13,-15,-14,0,-2,-2
20430,-16,-6,-7,29,3,-12,1,-34
20435,9,-4,-14,1,7,-9,-3,9
20440,9,4,20,10,-1,1,1,21
20445,-8,-3,-4,-9,14,6,-1,-12
20450,-11,-3,-1,4,-37,-18,-2,-15
20455,16,2,-2,-1,-7,-1,2,17
20460,-10,-4,7,14,3,-1,-3,-9
20465,4,1,-8,-10,5,4,0,-8
20470,-9,-1,4,-12,4,4,2,-3
20475,4,0,5,-14,-21,-21,-3,12
20480,-2,-4,-13,3,9,13,1,2
20485,15,5,10,14,5,2,1,10
20490,-7,0,8,7,-4,19,-1,0
20495,-6,-1,-4,-40,-11,9,-3,-19
20500,5,1,-6,19,0,3,-1,-1
20505,-17,-5,1,7,-9,-22,-4,-19
20510,8,-3,-12,9,2,5,1,18
20515,4,4,3,-18,-12,8,0,-2
20520,1,1,18,-18,0,4,-3,-1
20525,-4,-5,-18,3,18,6,-1,-11
20530,-2,1,19,18,1,-6,-4,3
20535,-5,-2,-17,-2,-2,-1,-2,-7
20540,-6,-2,-5,-1,3,-4,2,-7
20545,2,5,25,8,-15,-12,-2,-4
20550,0,-2,-30,-21,14,8,3,3
20555,5,1,-3,-9,-15,3,-1,8
20560,-5,-4,10,26,3,-10,-3,-7
20565,-2,-3,-15,-22,8,10,2,19
20570,-2,0,-1,-14,-2,14,-5,-45
20575,-1,0,5,-10,-18,-31,-5,29
20580,13,5,8,19,30,2,3,16
20585,15,1,0,4,-18,-5,3,20
20590,4,-1,-3,-5,0,-6,-2,-13
20595,-6,-5,1,-2,11,1,0,4
20600,-12,-3,-2,-26,1,6,-5,-9
20605,1,0,-1,48,19,20,-1,-8
20610,1,2,-7,-7,-13,-24,1,13
20615,-2,-2,-1,17,6,0,-1,-9
20620,-9,-1,-1,-2,-4,-3,-4,-22
20625,2,1,2,21,-3,7,4,17
20630,17,0,-10,-31,-5,2,-5,25
20635,-3,2,2,36,4,-7,2,-5
20640,1,-4,0,-5,-2,-25,-3,-7
20645,-13,-6,-13,-16,-6,-11,-4,-17
20650,6,2,7,-23,9,-17,0,17
20655,-1,4,30,46,-18,-5,-3,-19
20660,-3,-3,-26,-2,-8,-1,1,14
20665,2,-1,-15,-8,-6,0,3,-33
20670,6,-3,0,17,9,8,0,46
20675,-2,1,-2,4,10,-4,-1,-25
20680,-2,-3,1,-12,-17,2,-3,-9
20685,-13,0,-5,-55,-5,3,-3,-17
20690,-6,1,-5,59,3,-11,2,10
20695,11,-3,-19,-21,10,-4,1,-1
20700,-4,-1,21,-22,-2,26,0,8
20705,3,-3,7,13,-4,-24,-3,22
20710,-1,-2,1,-11,-1,10,0,-49
20715,-18,-2,-3,-7,1,16,-2,3
20720,3,-5,-32,-37,1,-17,0,2
20725,11,2,-25,-17,-2,13,-1,9
20730,3,-4,-16,-17,-8,9,3,29
20735,-6,-4,-7,3,3,-10,-4,-1
20740,9,5,15,5,6,5,-2,-7
20745,-14,0,7,-17,-27,-9,-5,-4
20750,-8,-4,0,27,12,-3,-2,-11
20755,-2,0,8,-21,14,14,2,16
20760,-4,-3,-8,17,-16,-33,-6,-21
20765,-5,-1,4,-9,2,-1,-1,-1
20770,-7,2,46,16,3,-3,0,-4
20775,3,-2,-20,-12,-4,14,0,6
20780,-8,0,6,18,2,13,1,-16
20785,11,-2,-1,18,14,-10,-1,25
20790,-4,2,-3,-32,-7,11,-3,-4
20795,-4,-5,-8,-9,4,-18,-2,-6
20800,-5,-1,9,-3,-9,-2,0,-19
20805,-9,-3,-11,-3,6,-16,-1,1
20810,1,2,6,-11,-14,6,-2,16
20815,6,-1,-33,-16,1,-1,-2,-9
20820,-3,0,-12,11,15,18,3,-3
20825,6,-1,11,12,-5,6,-2,-4
20830,-5,1,-3,-33,3,-9,-2,11
20835,-7,-1,25,20,-22,-9,-6,-9
20840,1,-3,-6,4,6,-2,-2,-2
20845,-1,-1,-5,-2,4,10,-2,-13
20850,-9,-6,-13,13,3,6,-2,-11
20855,7,4,15,-9,-16,-4,2,-2
20860,-5,-4,-14,-28,-2,13,-3,5
20865,1,3,16,30,-4,-4,1,9
20870,-1,-2,-1,-14,5,4,-1,-4
20875,1,2,-9,29,7,-18,1,-10
20880,3,-3,4,6,1,-5,-6,2
20885,-4,-3,-3,-5,2,11,0,-7
20890,-9,-2,-5,-3,-11,0,2,-7
20895,-2,1,0,-14,4,10,-1,-5
20900,1,-2,-25,-17,-8,-16,1,24
20905,5,3,-5,-6,2,10,0,6
20910,9,2,11,16,11,11,4,-2
20915,-9,-6,-11,-24,3,-3,-7,-33
20920,14,3,9,4,-13,-21,0,32
20925,0,-2,8,6,-1,-7,-5,-1
20930,-6,-5,-13,-14,0,2,0,-13
20935,7,3,10,41,-1,17,4,18
20940,-10,0,-1,-4,2,7,-2,-21
20945,4,0,-5,7,1,-7,0,17
20950,0,0,2,-7,1,9,-4,-15
20955,-8,-4,-14,-27,-15,-18,-4,7
20960,4,3,10,60,7,8,0,3
20965,-5,-3,-5,0,7,8,5,-7
20970,7,3,2,-5,-5,-9,-2,-11
20975,-1,0,15,-10,0,-16,-1,8
20980,-5,2,4,-25,4,1,1,11
20985,1,-1,-19,-11,-20,0,-2,-17
20990,-1,-1,5,15,2,-4,-2,14
20995,-1,-1,3,-3,15,6,0,-10
21000,4,0,6,-15,-8,-7,-4,-3
21005,-6,-3,10,20,-6,-12,-3,19
21010,-2,2,-4,-7,5,9,-3,-10
21015,3,1,-9,15,-4,15,2,7
21020,-10,1,1,-29,-13,8,1,-13
21025,-6,-4,7,9,21,-14,-1,-25
21030,5,-3,-6,18,4,17,-2,13
21035,19,2,-21,-20,1,-3,0,32
21040,4,5,-3,-10,0,-13,2,-7
21045,1,1,-9,-17,-11,4,-5,-7
21050,-16,-6,26,11,-8,-3,0,-22
21055,-12,-6,-10,-5,12,15,-2,6
21060,10,2,4,-6,9,7,-1,-4
21065,8,3,1,10,-17,3,3,8
21070,-15,-1,28,13,-3,-16,-2,-2
21075,-2,-7,-36,-24,-12,-7,-4,-6
21080,-4,0,-1,51,14,0,0,5
21085,8,0,0,-7,16,-4,0,16
21090,6,1,-5,6,-1,23,1,-3
21095,-11,-3,23,-3,-10,-9,-3,-31
21100,1,0,1,-3,-3,4,2,8
21105,8,4,6,8,4,9,1,2
21110,12,2,6,-4,-6,-9,1,27
21115,-2,0,-4,-10,-8,12,2,3
21120,-6,-8,-5,-6,-2,-18,-5,-20
21125,-10,-1,6,-6,-3,7,3,-12
21130,-3,-1,2,-35,-11,-11,-3,15
21135,4,4,-1,51,29,6,2,-19
21140,4,2,5,-32,-15,-27,1,16
21145,1,-3,-8,33,5,-13,-1,-10
21150,4,-3,-16,-5,7,-4,0,14
21155,-6,-3,3,-14,-2,2,-1,2
21160,3,1,11,3,-4,3,-1,2
21165,-9,-2,7,-26,-1,-9,-2,-12
21170,12,6,-18,8,8,12,2,-6
21175,-5,3,13,12,-7,3,-2,-6
21180,7,-5,-3,17,4,-2,-1,8
21185,-13,-4,-10,-35,-17,-4,-3,9
21190,-12,-3,-18,13,10,-1,5,-19
21195,21,5,14,-21,11,3,0,14
