time,emg1,emg2,emg3,emg4,emg5,emg6,emg7,emg8,hand,pose,orientation,testPerson
0,-2,-1,28,9,22,3,-24,-9,1,0,45,BueBaby!
5,7,-7,-15,-6,2,1,24,44
10,-10,-2,-14,-1,11,6,-46,-52
15,1,-18,-45,3,-19,-11,-7,39
20,3,25,21,-14,11,11,14,-17
25,-17,-11,-31,-64,-12,-20,-71,-56
30,10,5,34,16,-5,-17,71,22
35,-17,-3,-7,-15,10,-4,-52,-24
40,8,-7,-16,22,2,2,22,81
45,-5,2,-5,1,-2,25,26,-4
50,-3,-11,-14,4,1,-3,-1,31
55,7,6,1,-9,-18,2,30,-5
60,-13,1,-5,-11,46,-7,5,-40
65,5,9,23,24,-5,-3,25,30
70,1,-2,-14,-3,12,3,-3,21
75,5,3,20,25,5,7,12,-17
80,-4,2,14,-25,-29,-3,-63,-6
85,-5,-13,-8,27,13,5,32,-35
90,0,7,-9,-5,-14,-2,1,-4
95,11,6,15,17,21,2,-13,80
100,2,-21,-46,-6,-21,11,46,15
105,-2,15,66,4,-7,-2,-42,-74
110,-13,-16,-1,-4,-20,-6,-75,0
115,-12,-2,48,6,-6,-20,-16,-17
120,-6,-20,-48,-12,31,2,-26,-24
125,9,13,14,25,-10,8,63,39
130,6,5,-58,-7,7,-2,-7,45
135,-10,-9,36,-27,27,6,42,-42
140,-8,-2,-9,-15,-36,-26,-47,8
145,-1,-13,-12,16,9,-5,-39,1
150,10,11,6,3,0,11,41,28
155,0,0,-10,2,-2,-8,15,24
160,4,-1,6,6,11,11,2,24
165,-10,-9,-6,13,-15,-16,-11,-29
170,-1,-9,-4,-1,-4,-3,-12,-32
175,-2,3,-7,-8,-12,3,14,-7
180,-5,-10,-23,-2,-16,-18,-27,36
185,7,17,18,36,22,9,-28,-29
190,-4,-6,-13,0,26,0,68,29
195,-5,-5,11,-3,7,3,-8,-15
200,8,-14,-13,2,-13,11,52,55
205,-8,7,-18,-7,-5,-11,-24,-45
210,2,14,13,22,9,-6,-80,-61
215,4,1,-34,-67,-77,-6,42,2
220,2,21,69,-5,45,11,18,4
225,2,-19,9,-15,8,15,-15,58
230,-1,0,-52,-15,-2,6,-34,-47
235,3,10,32,41,16,-9,-11,14
240,-4,-3,-20,-23,-17,-4,10,-35
245,2,-4,-18,-18,-7,-10,32,13
250,-4,-3,12,-4,-23,-11,-46,47
255,-8,4,3,28,21,26,7,-73
260,-1,-3,-3,-15,-2,-8,-23,-14
265,2,1,11,-13,3,1,17,32
270,-2,-12,-19,-2,-5,2,94,24
275,12,10,9,12,9,10,-36,35
280,-8,4,14,6,-5,-3,-31,-71
285,-7,-3,-24,-13,-30,-4,0,-11
290,2,-2,24,17,6,-3,2,8
295,2,-15,-40,-26,-58,8,92,52
300,-5,10,15,-13,5,-6,-65,-35
305,8,-8,-28,2,-1,-7,48,45
310,-4,4,56,-9,-2,-7,-22,-35
315,-4,-7,-80,10,20,-3,-28,14
320,4,10,46,8,-7,2,28,-12
325,-2,14,25,3,4,4,13,-16
330,2,-3,-40,-16,-3,-2,-59,64
335,-10,-9,30,14,23,-39,-21,-108
340,-7,-13,-18,-5,-8,-4,-34,-4
345,8,-5,-15,-4,13,22,35,56
350,6,10,3,-48,24,4,28,-28
355,0,-9,0,0,-23,6,-16,64
360,-7,20,14,-19,-3,-1,4,-37
365,-7,-3,17,21,3,-22,11,-10
370,3,-6,-19,-1,-9,9,-43,22
375,-2,-9,15,0,15,-9,-12,-8
380,4,-5,-12,5,5,24,4,49
385,6,-3,-26,-11,-15,-15,-15,-33
390,0,20,37,21,21,19,62,-20
395,-2,2,-1,19,21,-8,-56,-22
400,-5,-15,-28,35,4,-14,27,18
405,-2,-4,-21,-29,39,11,-12,24
410,1,-6,27,1,-13,-11,-3,-10
415,4,11,9,4,7,5,-11,-9
420,1,2,-16,11,35,7,53,-40
425,-9,-11,25,25,-32,3,-53,-2
430,-2,2,22,3,-8,-9,58,25
435,-2,6,7,-8,34,8,-70,-3
440,6,-7,-19,-7,1,-9,5,53
445,-2,14,21,12,10,-3,-32,-98
450,4,-19,-26,-12,-6,17,30,53
455,5,12,12,-11,-22,-4,24,24
460,-6,-4,5,-2,-16,-11,-3,8
465,-2,-9,-12,2,-15,-16,-16,40
470,-12,-11,-26,12,1,-9,-65,-78
475,1,12,47,-2,27,14,69,-47
480,-5,-13,-43,1,-29,-9,-21,26
485,7,-2,18,14,-15,15,30,53
490,1,22,-10,-16,20,-7,-32,-9
495,1,-8,-9,-8,4,2,55,14
500,2,1,11,-12,-30,4,-28,-14
505,5,-18,-50,17,11,2,-20,52
510,-6,28,73,1,-14,-15,31,-83
515,-1,-8,-1,9,-1,12,16,40
520,4,3,7,0,9,-10,-76,-3
525,-3,-6,-20,-4,4,4,-35,-27
530,11,2,-3,20,-7,21,70,69
535,-9,-5,-1,-17,-30,-29,-20,-20
540,10,-5,9,31,10,6,49,71
545,-2,13,-32,-43,9,14,-3,-62
550,-3,-15,30,13,23,-14,-21,41
555,7,5,9,9,18,17,50,-19
560,-14,-14,-10,26,-1,-17,-98,-78
565,-4,1,22,-59,-16,-8,-11,-31
570,-3,6,-25,-9,-12,-14,3,-26
575,6,-8,-6,8,8,14,63,89
580,8,0,-9,-21,-2,20,54,30
585,-7,-3,-8,4,15,-11,-14,-48
590,2,4,27,18,-19,1,-7,48
595,-9,-8,-15,-2,27,0,-57,-65
600,1,6,3,-4,2,5,62,11
605,6,6,14,5,-9,-9,-16,12
610,2,-10,-36,-8,-15,-9,-45,15
615,-15,-4,5,2,-15,-10,-11,-69
620,0,-4,-8,0,-14,0,92,68
625,-9,7,23,13,22,-5,-69,-71
630,5,-7,-11,1,-10,10,78,78
635,-6,-2,1,-14,-5,-11,-97,-39
640,0,-3,-12,24,15,-8,-54,-36
645,-7,-3,8,-35,-56,4,49,8
650,-1,-7,-11,-6,-13,9,-27,-7
655,4,0,7,10,-4,1,-7,43
660,0,3,-20,-16,12,3,-10,-46
665,6,6,40,11,2,5,50,34
670,-2,4,-22,-6,1,-2,4,-25
675,-2,-6,-18,-11,-25,-8,-16,21
680,2,-6,-52,-14,42,-2,-21,-14
685,6,-3,21,24,-24,-3,3,28
690,-11,5,36,26,56,19,80,-10
695,-6,-12,-16,-2,-14,-24,-105,-41
700,8,10,12,-7,7,3,57,47
705,16,-2,-5,6,4,19,39,13
710,-19,-13,-15,27,-9,-24,-76,-28
715,0,3,7,-41,5,-13,-52,-11
720,-7,-8,12,14,-18,7,10,-26
725,-5,3,-14,1,9,-7,20,30
730,16,15,30,8,-22,23,16,47
735,-7,-4,-5,-40,13,-12,8,-69
740,-13,-7,0,-3,-1,-20,-67,-20
745,8,11,3,7,37,-3,-16,7
750,-6,-7,36,-16,-50,3,28,-25
755,8,3,-6,28,13,10,26,50
760,3,-6,4,-25,-14,0,14,13
765,-8,-5,-18,9,7,-8,-15,-30
770,3,7,-24,-8,-44,-22,-110,-57
775,6,3,10,2,-10,12,59,83
780,-5,-4,1,-2,-3,13,21,-40
785,-14,-2,1,-4,8,2,32,-28
790,-1,-21,-45,-9,12,-11,-30,7
795,11,20,34,23,-15,2,26,16
800,2,16,6,-13,9,5,7,11
805,-7,-8,-39,-19,-6,-6,-77,-33
810,-5,-25,-14,-19,15,-4,23,5
815,2,10,20,26,-4,2,51,36
820,-1,3,12,2,-11,-8,-22,-6
825,-2,-6,-2,13,3,-5,-9,-1
830,-9,-21,-25,-13,-5,5,13,-23
835,1,2,-10,-17,-4,-4,-18,-6
840,7,9,16,-4,-7,17,73,35
845,-7,-8,-5,-7,-10,-14,-50,-25
850,-3,-18,-36,2,0,-9,-33,-11
855,-5,7,0,1,-4,-12,-54,-33
860,8,15,78,39,6,5,48,19
865,1,7,15,-24,-5,4,-14,27
870,7,7,-3,5,9,3,61,48
875,-11,-18,-52,10,-5,8,-25,-68
880,-1,-3,6,-32,-58,-5,15,4
885,1,9,29,54,39,7,-61,-40
890,4,5,-6,-30,11,8,32,48
895,10,-2,-2,-38,3,3,5,20
900,-5,-6,-20,4,5,3,-25,-17
905,3,-2,-2,8,-15,-7,36,1
910,-6,7,-5,6,-12,-6,-69,-32
915,9,3,7,26,25,28,7,-3
920,-13,-12,-23,-36,9,-37,-79,-33
925,-5,-7,5,1,-10,-9,5,14
930,5,-2,-29,8,27,10,-15,-14
935,-1,6,74,25,11,-1,45,46
940,5,11,-11,22,-32,5,-10,-35
945,-3,-13,-27,-18,-18,-3,-53,6
950,-8,0,6,-4,2,-17,40,-9
955,-2,-12,-25,2,-16,1,-28,-29
960,14,12,-20,0,13,17,80,60
965,-10,6,23,-3,3,-13,-25,-18
970,-1,1,4,4,-5,5,2,-50
975,0,-8,-18,-7,-9,-6,70,55
980,2,-11,-12,5,21,2,-56,-10
985,10,12,13,20,-13,14,73,71
990,-3,5,22,-28,25,-4,-25,-24
995,-7,-9,-27,-1,9,-3,-25,2
1000,-3,4,1,2,1,-6,-43,-38
1005,0,-8,-18,20,-10,0,48,-17
1010,8,1,35,-7,-5,11,43,93
1015,-7,9,6,-35,-16,-4,-4,-48
1020,-4,-10,-9,3,6,1,-40,2
1025,7,6,-3,-5,14,17,56,39
1030,-2,-12,-21,4,-5,-5,-45,-33
1035,5,20,24,14,2,1,30,26
1040,-4,-4,1,7,-31,-12,-12,17
1045,-5,-2,-9,-13,9,0,11,-55
1050,7,8,-2,6,-1,4,-3,21
1055,-9,-18,5,4,-13,-14,-12,-40
1060,1,0,-9,-3,5,11,46,58
1065,4,11,32,9,5,-2,-32,-1
1070,-3,-6,-11,6,-3,4,-37,-13
1075,-1,-1,-14,23,2,-12,-47,-33
1080,-5,-8,-6,-40,13,-10,27,41
1085,-5,-17,-58,46,5,-9,-7,-68
1090,-3,12,49,13,17,5,56,15
1095,2,-6,-21,-26,-7,3,-17,28
1100,-6,4,2,8,1,-3,-65,-62
1105,7,-8,-5,-14,-6,4,58,78
1110,-4,-3,-8,10,-14,-15,-55,-30
1115,4,-4,-22,-4,2,6,29,-6
1120,-3,-5,11,8,40,-9,-38,-34
1125,-6,-1,12,-24,-30,10,37,33
1130,8,0,-29,12,-4,15,82,19
1135,-10,6,22,-16,-19,-16,0,11
1140,-1,-8,3,-9,22,11,7,-26
1145,3,4,13,-14,9,-7,31,25
1150,2,-5,-15,-10,8,-1,0,27
1155,4,-3,1,17,-11,5,-32,-49
1160,-10,0,-8,-19,-18,-3,11,-17
1165,1,-5,7,13,10,4,27,25
1170,1,12,-14,-8,2,17,25,-23
1175,3,-4,-27,1,12,-3,-26,30
1180,11,15,38,-3,-16,-5,-69,19
1185,-13,-4,-2,-14,6,-13,-37,-69
1190,-1,-7,-8,-6,-2,-7,39,37
1195,10,1,-8,3,-17,8,19,40
1200,-8,5,1,52,25,-8,17,-34
1205,2,0,13,-29,-13,6,5,18
1210,-2,-7,17,10,-12,-9,-58,-31
1215,-5,8,11,-15,19,-14,16,-4
1220,7,0,0,30,-68,-2,64,32
1225,3,3,-6,-3,2,1,-57,-16
1230,-4,-1,5,4,17,-7,3,-20
1235,0,-8,-14,-11,-2,11,47,41
1240,4,-3,-12,-8,8,3,-14,-23
1245,6,3,11,4,8,7,46,55
1250,-7,-4,-9,-13,-20,-16,-73,-50
1255,-4,3,8,4,1,8,20,-16
1260,-3,1,0,-1,6,-7,-37,-12
1265,6,2,-5,0,2,-2,-30,1
1270,5,1,-20,-15,-13,11,89,44
1275,-5,-2,23,-19,6,0,-69,-6
1280,-9,-10,17,4,4,-4,-21,-29
1285,-6,2,-11,-25,-8,-9,-54,-20
1290,-1,-8,-9,10,1,-11,-35,-6
1295,-2,-2,24,1,-5,-4,18,10
1300,4,13,-33,22,0,5,30,2
1305,-8,-4,16,13,2,-8,-18,-12
1310,5,7,18,17,-14,-5,-7,6
1315,2,-13,-55,-11,17,-1,23,-1
1320,-6,-6,47,-5,-26,6,12,12
1325,3,10,3,-12,-31,3,6,-28
1330,-4,-1,-8,6,27,-2,-3,5
1335,-3,-6,6,17,-2,2,16,8
1340,7,-5,-35,0,1,-3,-32,-12
1345,0,-1,-4,-20,14,7,26,17
1350,-4,0,37,-13,-4,-5,-47,-20
1355,1,-1,-19,-26,0,4,-24,-5
1360,1,-1,-3,-19,3,-10,78,29
1365,1,-3,-6,6,0,16,-23,0
1370,3,-1,-22,5,7,0,17,-1
1375,-5,0,28,-16,14,-4,8,-4
1380,0,5,8,-7,-3,-3,-23,-9
1385,5,2,-4,7,15,3,36,22
1390,-5,-4,6,7,-2,-2,-44,-18
1395,5,4,-13,18,3,-2,-59,-24
1400,0,-6,-13,-8,-8,11,102,81
1405,-9,-14,-5,-3,8,-6,-72,-98
1410,3,7,-23,5,-9,7,76,48
1415,0,6,40,-7,-6,-11,-19,-2
1420,-7,-8,-16,-14,-3,-9,19,2
1425,2,-2,-11,3,-6,-2,-37,15
1430,-5,2,9,0,8,7,11,-24
1435,-7,-9,-16,2,-12,-7,-48,-7
1440,5,-4,0,7,39,7,-13,-9
1445,1,13,0,1,-6,-7,24,12
1450,-2,-3,5,-14,-5,-6,-3,-20
1455,2,4,-4,12,-4,2,6,27
1460,-3,-12,-36,-15,1,3,2,-5
1465,-8,9,45,27,4,-2,12,-36
1470,5,2,-2,13,4,8,5,27
1475,-1,-5,5,-23,3,-9,21,-8
1480,-2,-1,-6,6,-4,-3,-57,-7
1485,7,5,-15,-28,-19,-1,45,57
1490,-2,3,12,21,13,-1,-99,-64
1495,-6,-4,-15,15,-5,-2,35,41
1500,-11,-22,-17,0,-8,-7,-39,-50
1505,9,18,8,14,16,7,70,39
1510,-4,4,-4,-7,3,-4,-40,-28
1515,3,3,39,3,3,8,35,-18
1520,-2,-7,-28,0,9,-5,-89,-2
1525,-2,-11,13,-34,-93,-13,7,27
1530,-4,6,-16,-42,22,11,8,-26
1535,-1,-4,-6,18,17,-1,-4,2
1540,4,7,30,7,2,11,48,18
1545,-7,-13,-10,-6,1,-14,-37,-15
1550,6,0,-2,-16,-11,1,2,36
1555,-3,-4,-12,2,-13,8,90,-4
1560,0,5,2,-8,-4,-4,-67,-30
1565,-8,-11,-13,1,19,-1,33,7
1570,-2,-11,2,1,-16,-8,-16,5
1575,-1,12,5,14,18,-2,-19,-29
1580,9,4,1,11,11,7,6,16
1585,-2,-11,-17,-17,0,6,50,56
1590,0,-1,17,29,-10,-10,12,-15
1595,5,19,9,-41,-4,5,-23,-5
1600,-4,0,8,-43,1,-5,11,-6
1605,-2,-15,-25,-3,5,-1,-46,-19
1610,-6,-1,3,-8,-3,5,16,11
1615,-6,-10,-11,14,-10,-16,-12,-32
1620,3,8,17,12,-12,-4,17,10
1625,0,0,-38,7,16,-5,-49,-28
1630,-5,5,45,7,-6,-2,-2,14
1635,1,-4,-2,8,1,-6,-23,-6
1640,-7,-3,2,0,1,10,70,21
1645,8,6,13,9,3,9,57,33
1650,1,0,-12,-3,-3,-2,-32,-37
1655,-8,-9,-9,-10,-9,-15,-23,13
1660,6,-6,-3,1,4,2,23,8
1665,-4,10,13,-36,-4,2,-49,-22
1670,-1,-5,-29,-8,8,-9,-39,-1
1675,6,1,21,-20,25,3,18,2
1680,0,5,3,14,-54,11,-24,-12
1685,2,-9,17,14,9,3,45,31
1690,-2,0,-10,-7,-2,-15,23,14
1695,-1,-6,-41,21,3,16,-25,9
1700,-6,-6,7,-57,15,0,-37,-33
1705,7,15,20,1,19,-3,25,-28
1710,1,-7,7,1,-13,3,69,31
1715,-2,8,-21,9,-6,-11,-86,-59
1720,-9,-4,20,14,6,5,53,20
1725,4,11,-3,28,9,22,0,11
1730,-8,-9,-24,-26,-2,0,-46,5
1735,3,5,24,15,0,1,42,-18
1740,3,2,-31,-4,11,2,-15,7
1745,-2,-9,30,15,5,-7,-9,-12
1750,4,2,-27,26,2,7,19,-1
1755,-8,-1,24,-10,20,10,43,10
1760,-1,1,-9,13,-30,-15,-62,-12
1765,-5,-7,-12,-1,-7,5,7,17
1770,1,0,-4,-10,-4,-4,-10,13
1775,5,-4,-15,-4,-14,-9,4,14
1780,-2,6,6,6,4,-9,44,-16
1785,2,-4,-7,-18,2,-2,-3,12
1790,-2,4,10,1,-7,-7,-4,-43
1795,-2,-1,2,15,4,4,14,6
1800,3,2,3,-31,-5,0,-30,15
1805,-2,-13,-56,-12,8,4,10,30
1810,-3,2,56,-3,-26,7,18,-21
1815,5,16,-1,24,10,1,30,36
1820,-5,0,11,17,13,-16,-41,-55
1825,2,0,-1,14,6,6,-32,-4
1830,-6,-10,-23,-3,7,-3,34,-15
1835,3,1,1,-20,-46,-7,-3,1
1840,0,0,11,32,31,18,41,39
1845,-1,0,-4,-3,3,-2,-25,-25
1850,0,-1,-14,3,-2,-18,-45,16
1855,1,-8,12,-7,-14,2,-34,-24
1860,-3,8,0,0,-1,-2,60,-5
1865,-5,-6,3,-3,-49,-19,-32,-24
1870,4,0,-3,-10,-5,13,57,55
1875,-3,-4,-13,6,22,-4,-53,-43
1880,2,-6,-8,-11,4,2,27,45
1885,-6,3,7,5,10,-8,-57,-49
1890,0,1,-13,-6,-4,-15,-23,12
1895,0,-3,1,-3,-10,7,28,8
1900,-1,0,25,7,7,-7,-50,-20
1905,-4,-2,-5,-10,13,9,46,7
1910,5,7,12,27,24,-1,-31,-28
1915,-3,-6,-29,-55,-1,6,26,22
1920,-1,-4,5,20,-4,-4,-7,-5
1925,1,-3,2,21,0,-1,23,16
1930,0,9,-7,-25,8,4,-70,-10
1935,-5,-6,4,20,-7,2,74,22
1940,-5,-11,-8,-20,-25,-4,-34,-2
1945,-1,6,17,-9,8,-4,-18,-20
1950,1,-2,5,11,14,6,26,-13
1955,5,-1,-15,-4,-6,6,37,35
1960,-3,-3,-5,0,4,-10,-73,-15
1965,1,0,18,27,-12,-1,1,-30
1970,-6,-2,24,28,14,-12,-32,-7
1975,-6,-2,-9,1,-1,1,33,25
1980,4,3,-4,-8,0,2,32,5
1985,1,2,-5,0,1,-2,-6,2
1990,2,-3,-12,14,-12,0,-15,-28
1995,3,0,8,-12,-3,-11,-68,-4
2000,-3,-2,-13,-1,-3,7,83,30
2005,3,-1,-12,-9,0,-2,-18,9
2010,-6,-8,-6,-18,-5,-7,-30,3
2015,-8,-5,-1,14,14,3,-19,-32
2020,3,5,-9,-2,-7,-16,24,-1
2025,3,0,0,0,9,-5,24,17
2030,-1,-4,18,19,13,5,20,15
2035,-3,-2,-24,-47,-50,0,13,-11
2040,-7,-3,-7,4,-2,-5,-18,-4
2045,-7,-8,13,6,4,-4,-3,-5
2050,-4,-3,-32,-10,-6,1,19,-11
2055,8,8,37,16,-18,-7,-55,-5
2060,1,-2,-13,1,18,13,31,2
2065,-3,12,16,-6,-15,-14,-44,-4
2070,3,-4,-9,-8,7,6,-4,31
2075,-3,-4,-5,3,11,7,22,-26
2080,4,2,-5,-6,-4,1,10,28
2085,0,4,0,1,8,7,1,-13
2090,-4,-2,5,-10,-6,6,53,6
2095,5,-1,-6,22,7,0,-43,12
2100,-2,3,-5,-12,-4,-3,-30,-37
2105,1,3,13,-42,1,2,14,-2
2110,-1,-2,-1,2,-1,6,16,3
2115,-6,-7,-1,-4,-23,-17,11,15
2120,-7,-8,20,37,83,8,-10,-52
2125,6,16,8,-7,-40,-5,10,29
2130,3,-2,-7,-8,-9,-6,-20,13
2135,-10,-2,-11,2,8,-4,-18,-58
2140,2,2,10,17,-25,1,-9,11
2145,-6,-16,-37,-6,27,-3,22,-14
2150,1,3,19,-26,-9,-11,-29,2
2155,9,5,-4,16,30,26,51,42
2160,-2,-8,-41,-46,-44,-14,-27,-7
2165,0,3,1,37,31,6,-3,-23
2170,5,4,-8,-12,-49,5,-11,-10
2175,-1,-7,39,0,51,-9,57,40
2180,2,-7,-20,-4,-11,27,-8,10
2185,-4,-1,12,1,-27,-22,-55,-39
2190,-8,-3,9,-2,18,5,10,2
2195,3,3,-6,-2,2,-14,-9,-13
2200,4,10,7,-2,-18,-4,-2,35
2205,-6,-18,-31,7,6,5,32,23
2210,-1,-1,9,-3,5,2,-12,-36
2215,-2,2,-8,-6,-5,3,-6,10
2220,6,2,15,9,3,-5,27,15
2225,0,-1,-4,-22,8,23,-31,-26
2230,-2,-1,-8,9,-6,-38,18,1
2235,-6,-8,-9,1,-21,-3,-26,16
2240,1,3,13,5,10,-1,3,-11
2245,1,-2,5,5,-3,-5,-3,14
2250,-1,-4,-30,-1,8,11,25,-30
2255,6,15,37,-2,11,4,-24,6
2260,-5,-10,-24,-9,-12,-10,-8,-17
2265,0,-8,18,-4,-7,8,68,47
2270,1,11,-1,0,3,3,15,11
2275,-1,4,-1,6,-5,-2,-36,-28
2280,-2,-7,-20,-6,4,1,-16,-18
2285,2,4,-17,2,-2,-1,9,9
2290,2,-13,26,4,8,9,13,8
2295,4,-12,-33,-1,-4,-1,-22,29
2300,-19,22,58,6,-10,-22,6,-78
2305,-9,-13,-17,3,-2,-17,-44,-20
2310,-1,0,-18,-40,-7,2,-14,1
2315,5,-1,-3,1,-4,4,22,28
2320,7,-10,-5,-6,0,5,-45,7
2325,7,12,3,7,2,3,15,-11
2330,-20,-4,5,-21,1,0,63,1
2335,2,-1,-3,-2,-1,0,-31,-7
2340,12,2,2,-5,3,2,20,78
2345,-20,-24,-90,2,-20,-28,-85,-90
2350,8,29,102,42,27,17,-49,-46
2355,-8,5,8,-12,6,6,77,-19
2360,-2,-4,-11,-4,1,-22,11,30
2365,10,-4,7,-4,3,8,17,59
2370,-2,-20,-25,-8,-26,-13,-11,-7
2375,2,21,4,43,4,3,-16,-10
2380,3,4,16,-38,13,14,10,-13
2385,-5,0,14,0,-9,-10,-3,-15
2390,5,-15,-40,-5,12,15,43,22
2395,-10,1,-2,7,-4,-10,-74,-30
2400,4,5,13,18,-2,-5,9,11
2405,5,5,-2,-5,6,19,92,45
2410,-3,-2,17,-1,-11,-17,-76,-28
2415,-3,-19,-21,-10,0,8,11,9
2420,-4,-10,-28,-4,-12,3,13,15
2425,4,22,37,6,15,7,-22,-5
2430,-5,-1,-30,6,-3,-9,-11,4
2435,7,-13,-4,-14,-7,1,2,7
2440,-14,-8,8,0,1,-16,-14,-43
2445,2,-4,36,16,-5,9,0,13
2450,5,6,-10,17,12,3,20,47
2455,3,-4,6,12,-5,7,36,-24
2460,-3,-23,-39,-19,12,20,-21,-1
2465,1,30,11,12,-17,-6,12,4
2470,0,-5,-22,-19,8,3,25,10
2475,2,2,47,13,0,-9,-17,3
2480,0,2,-19,14,2,4,-21,-3
2485,-6,-2,24,3,4,9,16,-11
2490,0,-17,-23,-8,-9,-4,22,27
2495,-1,12,-3,-8,7,-2,-36,-35
2500,-2,1,8,6,-6,-3,41,-3
2505,0,-10,-18,-20,5,0,-7,-3
2510,4,-1,7,9,3,4,-4,-5
2515,1,-15,-36,-16,-3,-9,25,44
2520,-7,23,50,8,-7,1,-53,-49
2525,4,-5,-31,-6,-1,-7,32,17
2530,5,5,42,29,3,11,32,23
2535,-10,-1,-31,0,-8,-17,-41,-34
2540,-1,-1,-19,7,-5,-3,7,-3
2545,-1,6,10,-41,8,-21,-40,8
2550,4,5,9,8,3,9,50,20
2555,4,-5,-25,-27,1,16,58,13
2560,1,-1,12,-6,-6,-4,-12,-13
2565,0,-3,-25,32,6,7,-9,3
2570,-5,-6,-14,-43,-41,-19,-50,-20
2575,-5,-3,-6,3,24,-7,-8,0
2580,6,4,-31,-2,-2,2,39,37
2585,1,-4,7,6,-2,6,14,-13
2590,0,4,21,-21,-2,-12,-43,-34
2595,-6,-11,-32,-5,-12,-4,-5,-2
2600,1,-6,5,-1,-7,0,5,-2
2605,2,3,5,0,4,8,18,21
2610,-7,-3,-23,25,8,4,-20,0
2615,-5,1,37,-46,-14,-14,-3,-25
2620,9,3,6,6,4,3,11,47
2625,-12,-8,12,12,-2,-15,-98,-60
2630,2,7,-11,4,15,17,86,15
2635,1,2,17,14,-4,5,32,13
2640,-4,3,6,-1,-4,-18,-76,-33
2645,1,-9,-1,0,1,0,18,14
2650,-1,7,-6,4,7,7,-21,-2
2655,-3,-2,6,4,-5,-5,-25,-6
2660,-1,-7,-4,0,0,-1,37,21
2665,3,-1,-9,9,3,5,-10,-9
2670,-4,2,16,-4,-1,-18,-69,-35
2675,0,5,-15,-1,-6,7,55,25
2680,-1,3,27,1,3,8,18,4
2685,-1,-6,-10,-1,-1,-6,-26,-8
2690,0,-4,-13,-3,-6,4,33,11
2695,-2,-13,12,0,-2,8,-20,6
2700,4,19,2,3,8,1,-6,9
2705,-5,1,5,-7,4,4,-3,-40
2710,-7,-4,-8,-2,-5,-14,18,-2
2715,3,1,-5,3,2,3,-40,6
2720,-1,-9,-9,-2,-4,-2,19,-1
2725,-1,0,4,-11,-5,3,37,14
2730,5,3,-5,2,6,13,1,16
2735,0,1,3,6,-3,-3,48,10
2740,2,2,-2,0,2,-1,-20,-28
2745,-12,-4,-14,-8,-10,-19,-40,2
2750,1,-11,-23,0,-1,3,-17,-2
2755,12,14,12,4,7,16,63,62
2760,2,6,21,11,7,7,-23,-41
2765,-2,-6,11,-5,-4,-7,-1,12
2770,1,20,-66,-34,3,7,10,-18
2775,3,9,62,-6,-7,-14,-45,7
2780,-6,8,-1,31,9,5,36,-16
2785,3,-9,39,-9,4,9,21,18
2790,-5,-10,-25,5,-8,-14,-12,3
2795,-1,-7,-76,-15,-4,-4,-13,0
2800,12,13,14,0,-12,13,12,7
2805,-11,-2,21,16,-1,14,28,-9
2810,-4,-3,46,4,11,2,2,1
2815,-3,2,-7,6,-2,-3,-6,-20
2820,-2,-13,4,-4,1,-6,-34,14
2825,4,-2,-49,-7,-13,-4,-28,-8
2830,7,5,19,3,0,9,40,18
2835,-7,-3,21,7,1,-1,-10,2
2840,-12,-10,-32,-18,-11,-11,-40,-11
2845,8,10,31,-9,2,3,43,7
2850,-2,1,12,8,-2,-8,15,12
2855,4,-6,-30,23,1,-4,-86,-40
2860,0,-2,2,-54,1,17,34,10
2865,-3,-4,-7,2,11,-16,22,15
2870,1,-2,13,5,-5,0,-10,-7
2875,-3,4,4,5,-2,-13,-39,-17
2880,2,-14,-58,-11,-6,-1,-21,12
2885,6,11,62,7,0,-5,-4,0
2890,-5,-4,4,4,-3,1,-3,9
2895,0,3,4,21,1,8,10,-7
2900,-3,-6,2,-1,-8,-10,13,5
2905,-3,-9,-35,-8,-6,-8,-46,-24
2910,0,-3,-32,32,-5,6,22,14
2915,-5,14,42,-21,43,19,3,-29
2920,-7,-10,-6,5,-12,-28,-68,-26
2925,2,-5,-17,2,6,8,17,9
2930,1,7,2,7,-8,-14,-81,-29
2935,-6,-15,10,-12,-13,-5,37,32
2940,6,4,38,-1,3,6,-2,15
2945,-3,6,-40,2,-6,-3,4,-27
2950,4,-7,6,-7,5,7,20,14
2955,-1,-1,-20,-10,-9,-4,36,8
2960,0,-8,8,-3,5,4,16,-5
2965,-6,-4,0,5,-9,-22,-56,-4
2970,-7,-3,12,-15,-1,-14,5,-2
2975,-2,-3,-6,-2,-5,1,9,7
2980,0,-2,-13,46,-1,1,4,-19
2985,0,8,12,-11,10,10,8,-5
2990,2,-2,4,7,5,3,8,-16
2995,-2,-7,-16,-11,-10,-2,3,22
3000,0,-6,-10,8,2,-1,-2,2
3005,2,-3,5,-1,-4,5,24,15
3010,1,-1,22,-10,1,-10,-78,-27
3015,6,4,-10,11,-2,6,26,23
3020,-8,12,20,-12,-2,-5,14,-15
3025,3,-14,-31,-3,-4,-1,20,11
3030,-3,5,9,2,5,16,-1,2
3035,-1,-4,-11,-5,0,-7,9,-23
3040,5,14,6,2,-5,-5,-3,40
3045,-6,-20,-29,-22,1,10,-39,-35
3050,0,6,9,30,-3,-14,36,3
3055,1,-3,4,-40,1,12,23,-4
3060,-1,-4,-29,-13,-3,-18,-30,11
3065,-2,-4,24,6,-13,-2,15,-1
3070,2,-6,-22,-18,5,6,9,4
3075,-6,-5,27,12,-8,-3,1,-12
3080,-1,0,-4,0,1,-4,23,8
3085,5,19,16,-4,2,1,-15,6
3090,-3,-4,0,-8,-20,-6,-1,10
3095,0,7,-19,1,9,-11,-17,-39
3100,-3,-5,8,4,11,12,-20,-19
3105,-8,-5,-35,-7,-9,-9,-6,15
3110,2,-1,12,-6,5,1,11,8
3115,-1,-4,-2,5,-4,-15,-22,-18
3120,0,15,17,3,4,16,17,1
3125,5,7,14,13,12,5,14,10
3130,-1,-8,-20,-11,-2,0,-8,-2
3135,-6,-1,13,32,2,0,-59,-41
3140,-7,-13,-16,-7,-10,-10,23,19
3145,-4,10,-1,7,-16,-2,27,-9
3150,-1,8,16,-14,12,6,5,8
3155,-3,-3,27,15,-8,-9,-13,11
3160,0,-1,-4,-1,10,9,17,-19
3165,4,-10,-20,-2,-1,0,16,38
3170,1,3,-5,5,-3,4,13,0
3175,-2,5,2,-11,0,0,-4,-19
3180,-3,-13,-10,-9,-3,-6,23,27
3185,3,3,-29,-12,2,8,-7,-4
3190,-3,4,25,2,-5,-8,-17,-37
3195,-6,-3,17,-3,-5,-18,-43,-9
3200,-2,-6,-23,-1,1,1,28,-1
3205,-2,0,22,15,4,0,9,12
3210,3,-5,-29,-21,-24,-2,8,-1
3215,0,-2,-12,-38,18,15,20,5
3220,-6,-7,-8,10,-3,-17,-16,-22
3225,-3,5,25,-2,5,6,-26,-16
3230,0,-5,-38,12,-4,-5,-35,26
3235,6,1,-3,-23,-11,6,34,1
3240,-2,3,24,7,8,-1,-16,8
3245,1,-3,-2,-10,8,3,13,8
3250,-3,-7,5,2,8,-1,12,-3
3255,-3,-6,-64,3,-14,-5,-43,3
3260,5,24,77,20,8,5,-21,-20
3265,1,-6,-2,1,-5,4,23,18
3270,-4,5,32,-8,-4,-6,-24,-34
3275,-5,-8,-14,24,7,-10,-2,-7
3280,3,-5,-34,-21,-8,1,-14,3
3285,1,1,16,-9,1,2,3,12
3290,-3,-9,-44,0,-5,0,27,13
3295,5,7,36,34,8,4,15,16
3300,2,2,-20,-16,-1,11,9,-12
3305,-6,4,36,11,1,-13,-11,-6
3310,1,-3,-10,0,4,1,12,5
3315,-2,3,8,1,-11,0,25,4
3320,2,-3,-6,1,1,2,-19,2
3325,4,-1,-38,-6,-7,-2,-25,-12
3330,-4,-11,44,7,6,3,17,11
3335,3,16,23,3,1,-3,-42,-17
3340,-2,11,23,5,2,-3,57,14
3345,-3,-7,-14,-9,-6,-10,-30,-21
3350,1,-8,-12,21,5,-1,-5,22
3355,3,3,0,-46,-8,6,3,13
3360,1,-9,-28,5,-13,0,-11,-4
3365,-1,8,25,36,8,-10,-10,-27
3370,-7,0,-3,-17,-1,-9,6,-10
3375,-2,-8,-24,2,1,4,14,-2
3380,0,0,7,-10,0,5,9,29
3385,2,-3,17,-1,-2,10,26,15
3390,-1,11,-3,7,2,6,-8,-27
3395,-3,-3,7,-3,4,-13,-17,-3
3400,-2,-12,3,-4,2,3,14,7
3405,1,1,-21,-9,-8,-6,-1,-8
3410,0,-3,-2,-6,-4,-7,-19,1
3415,0,3,-2,2,-5,-1,7,26
3420,-9,-7,-12,-1,-5,-1,-9,-64
3425,-1,-6,8,-3,5,4,10,21
3430,2,0,-22,-11,-2,1,-10,-6
3435,8,-1,11,24,6,15,54,43
3440,-4,-5,0,-17,-7,-20,-40,19
3445,-6,0,-23,-18,-3,6,-2,-60
3450,-6,1,36,-5,3,-13,-41,-27
3455,-4,-15,-56,-2,-5,12,51,8
3460,6,12,59,16,7,5,9,8
3465,-4,-3,-13,-2,-7,-8,-16,18
3470,4,2,-6,23,4,2,-16,5
3475,0,-3,5,-6,9,6,-8,-13
3480,-1,-11,-42,-13,-20,3,32,-1
3485,0,3,0,11,17,0,16,28
3490,1,0,15,8,-7,-2,5,14
3495,-2,-2,13,4,-5,-1,-14,-33
3500,-6,-3,-12,-10,6,-8,-20,-10
3505,3,1,-2,13,-6,10,22,12
3510,1,5,-3,-12,-2,3,4,8
3515,3,2,8,2,12,5,26,21
3520,-6,-13,-43,-19,-5,-2,-31,-18
3525,0,15,38,9,2,-3,-16,-23
3530,-1,-11,1,-4,4,4,32,23
3535,1,18,21,6,-1,-2,-27,4
3540,-3,7,8,2,-2,3,25,-9
3545,0,-9,-31,-7,-1,-4,-27,4
3550,2,-2,-15,-17,-1,1,2,-15
3555,-3,-9,-15,-41,-15,-2,16,0
3560,-2,9,6,11,6,-6,-60,-25
3565,-3,1,4,-6,-3,1,46,14
3570,0,0,11,-10,0,1,-31,-3
3575,-3,-9,-11,10,-4,-3,36,-14
3580,3,-11,-21,-4,-7,9,58,68
3585,-7,3,27,-37,8,-12,-47,-38
3590,-2,10,7,14,-2,-9,-49,-20
3595,-1,-12,-15,-4,-2,-5,6,11
3600,-1,18,38,10,5,-3,-59,-26
3605,-9,-14,-41,0,-10,-18,24,0
3610,-3,0,-9,-3,-2,6,7,-10
3615,6,3,3,5,1,0,-16,19
3620,-3,-13,-18,-13,0,12,65,-8
3625,1,-4,-13,-14,-3,2,0,15
3630,-5,15,10,2,5,-12,6,-7
3635,-4,2,7,6,-4,-5,-41,-18
3640,4,-4,1,5,4,-4,1,0
3645,5,5,-2,2,-5,7,-10,1
3650,-1,-11,10,0,-5,3,3,-6
3655,1,3,-6,2,5,2,-2,-2
3660,0,-4,-55,-2,-6,-9,-26,0
3665,5,-6,43,31,-5,9,32,-1
3670,2,25,19,-20,6,8,28,41
3675,-8,-6,8,3,-7,-10,-34,-14
3680,-1,3,3,5,3,-5,-8,-32
3685,-1,-4,-15,2,1,2,-17,-6
3690,-1,-13,-13,1,0,4,5,-3
3695,3,5,5,2,0,0,-13,-2
3700,1,-4,8,-7,-11,5,22,15
3705,-3,-4,-6,2,18,0,-31,3
3710,5,0,-6,5,1,-5,-25,-7
3715,-1,2,-31,-19,-4,15,29,12
3720,-7,-8,49,18,2,-21,-27,-7
3725,-3,16,2,-1,-13,0,28,-5
3730,-2,-6,-15,-15,-8,-1,-5,5
3735,-5,-8,-23,-2,4,-1,-26,-26
3740,6,1,15,-2,4,11,30,23
3745,1,-1,-7,9,1,-3,-28,3
3750,-4,-6,-8,5,-1,-2,-4,-18
3755,1,0,13,1,-3,-3,4,9
3760,-1,4,4,-3,0,2,7,6
3765,0,-4,-21,-14,-1,8,21,12
3770,9,-3,-17,2,0,12,-29,7
3775,-3,8,59,0,1,-32,49,-19
3780,-8,-3,11,34,-17,-10,-23,-18
3785,-1,5,8,-21,32,9,44,9
3790,-2,-16,-34,-8,-11,5,48,39
3795,7,1,-18,0,-12,8,-29,-4
3800,-2,1,-10,18,47,0,-69,-20
3805,4,-4,36,12,-28,-11,31,34
3810,-5,-1,8,-4,-1,4,-28,-55
3815,0,-7,-4,1,-1,3,39,41
3820,-2,0,-19,-14,0,-4,-17,-11
3825,-1,-5,-46,-3,-4,-6,-10,15
3830,-2,1,38,13,11,2,19,-3
3835,-6,1,-7,-26,-2,2,-11,-17
3840,0,1,13,-11,-10,0,18,5
3845,-8,-8,-3,-2,0,-6,-56,-24
3850,3,-8,-38,2,-13,-5,22,3
3855,-2,15,27,16,4,-4,1,-12
3860,3,3,6,-10,-4,6,38,25
3865,1,-7,0,8,-2,-2,-45,-9
3870,-6,11,9,10,9,-3,48,6
3875,-2,-7,10,-8,4,8,-28,-6
3880,-6,-2,0,0,-9,-18,-67,-15
3885,-2,-2,-5,-3,-5,-5,24,-16
3890,4,-2,-1,-6,0,-3,-14,14
3895,0,0,-54,-1,2,10,26,2
3900,-7,-6,49,-2,-12,-10,36,3
3905,-1,-10,-28,-12,1,5,-36,-7
3910,3,16,54,22,4,-6,-12,13
3915,8,1,-10,-41,-5,-6,-3,3
3920,3,-15,-61,-13,-17,11,81,3
3925,-8,6,35,-17,9,-12,-43,-6
3930,0,8,-8,6,5,1,-4,-11
3935,-6,-8,-9,14,-9,-9,-44,6
3940,5,7,-2,3,9,5,-10,-10
3945,5,-4,-19,1,-7,9,46,22
3950,-4,-11,-2,-9,-9,-6,-16,-26
3955,-6,4,15,7,-6,-8,-4,-15
3960,1,4,-8,-4,15,-6,-9,-6
3965,3,3,-8,18,2,9,14,3
3970,-4,-14,-47,-9,-4,-13,-15,7
3975,1,1,46,21,11,14,-13,6
3980,0,12,2,-23,3,-4,13,-4
3985,-1,-4,7,-4,-3,-2,-26,-25
3990,2,9,2,-7,-1,7,27,6
3995,0,-4,-3,9,-4,-13,-15,11
4000,-1,-4,-12,3,-3,5,-17,-17
4005,5,4,6,-5,2,6,42,23
4010,-3,-4,-21,-2,-13,1,-16,8
4015,-1,-2,23,1,9,3,40,-1
4020,-1,6,15,13,4,-2,-54,-14
4025,-2,4,-9,-14,-10,-8,6,-7
4030,-3,-12,1,0,0,5,58,11
4035,-3,-5,-15,3,-1,-14,-65,-20
4040,0,-3,-3,-2,-2,7,11,26
4045,-1,-6,-37,-3,0,-2,4,-4
4050,-3,-9,37,25,2,-13,-64,-34
4055,2,15,-5,-27,0,2,50,2
4060,3,2,-1,-35,0,1,9,30
4065,-2,-1,-9,5,-6,-6,12,5
4070,-6,-5,9,-5,3,-8,-42,-30
4075,-5,-8,-22,3,-3,-2,-12,-9
4080,2,0,-9,13,-2,6,9,4
4085,9,4,1,0,3,15,36,25
4090,5,18,51,-4,5,-5,18,10
4095,-11,-15,-24,-8,-6,-16,-59,-67
4100,-6,10,34,15,-2,0,57,30
4105,-2,-12,-6,7,1,2,6,0
4110,1,10,-8,4,-3,5,0,9
4115,3,0,4,9,1,4,15,14
4120,1,-12,-16,-2,1,6,-22,-13
4125,4,3,-9,12,1,2,-6,-4
4130,7,11,28,8,1,-7,-6,15
4135,-9,-5,-12,7,-2,-8,-55,-22
4140,-11,-10,-9,-9,-17,-22,-4,-4
4145,-1,4,16,13,5,2,-23,-23
4150,-1,-13,-19,-8,0,4,14,-5
4155,5,5,0,6,4,13,40,36
4160,5,-4,-2,4,1,5,0,11
4165,-6,3,16,0,-3,-11,-30,-23
4170,0,-11,-68,-12,-11,-2,-13,5
4175,9,17,78,12,14,15,71,26
4180,-2,-5,9,5,9,-5,6,9
4185,-1,1,3,-8,-12,-10,-40,-21
4190,-13,-9,-25,13,1,-14,-5,-19
4195,-1,3,-16,-33,-13,1,-20,10
4200,1,-2,-7,1,-1,-3,-5,-29
4205,1,2,6,2,8,6,21,5
4210,1,-10,-5,3,0,6,8,13
4215,1,-12,-21,12,-2,-12,-21,-8
4220,5,21,27,-10,-8,7,-8,7
4225,0,-1,2,-8,-8,8,66,26
4230,-4,-3,-2,-13,0,-15,-25,1
4235,-5,-9,-11,-4,2,0,-14,-22
4240,-4,-1,4,-6,-3,-5,40,-2
4245,-5,1,1,6,-2,-7,-77,-26
4250,1,2,-19,-11,3,10,22,16
4255,-1,-14,-6,5,-5,2,-2,5
4260,11,9,-21,12,3,6,-19,4
4265,-7,5,49,36,9,-5,40,-20
4270,3,7,-7,-26,6,0,38,21
4275,-3,-14,4,5,-2,-7,-61,-7
4280,-5,-2,-5,-2,-4,0,0,-9
4285,2,2,3,3,-1,1,-3,7
4290,-2,-1,-5,2,-6,1,-13,-19
4295,2,5,-2,2,-1,2,50,24
4300,2,-6,-3,0,3,1,-17,-7
4305,-3,-9,-12,-15,-1,-3,-21,3
4310,4,12,29,-3,-1,6,22,19
4315,2,7,-12,-6,7,11,1,-29
4320,-3,-12,5,3,-3,-1,-34,11
4325,-6,-8,-1,-18,-5,1,-15,-21
4330,-7,-3,17,-6,-7,-6,2,15
4335,3,13,13,9,-5,-2,24,3
4340,-2,0,-17,-2,3,7,-5,-3
4345,2,-1,1,19,12,2,0,7
4350,3,-11,22,-17,9,3,-31,-2
4355,-3,20,6,-5,-3,1,34,-19
4360,-11,-11,-3,1,-10,-21,-28,-16
4365,3,2,-12,-6,2,3,11,12
4370,-2,-4,-17,9,4,-1,-21,-5
4375,-3,-13,-16,-13,-7,-18,8,9
4380,1,5,-5,-2,3,4,1,8
4385,-2,-3,-23,-11,-1,-6,12,16
4390,1,-7,-24,18,4,12,-27,-43
4395,7,16,37,1,-2,8,27,29
4400,3,2,4,5,11,-2,16,4
4405,-2,-1,-5,-3,-8,-11,-72,-29
4410,2,-1,-26,-2,-5,3,43,15
4415,-3,-10,11,12,3,2,-38,-3
4420,2,1,0,1,0,6,32,21
4425,-5,-8,-33,-4,-7,-4,30,-28
4430,-4,7,35,15,-4,-12,-40,5
4435,3,5,-9,-24,-1,1,17,15
4440,-1,-3,-9,-6,5,9,-29,-12
4445,-2,1,40,-4,-1,2,5,-2
4450,1,10,3,8,-3,-1,30,8
4455,-1,-9,-15,15,3,0,-27,-2
4460,3,-4,-7,-4,1,3,19,7
4465,-1,1,6,-7,-7,-6,-44,-13
4470,-3,-4,-17,-16,4,-2,-15,-19
4475,1,0,8,7,-9,4,34,55
4480,0,6,-13,-10,-7,-6,-13,-23
4485,2,0,21,16,5,-4,20,16
4490,-5,-3,-1,-22,-7,-2,-31,-32
4495,-5,-11,-23,-3,0,-3,-11,-8
4500,-2,2,3,7,0,-8,-17,4
4505,-2,-2,-20,-4,-3,5,38,-8
4510,-2,-2,14,-13,-4,-6,-3,-5
4515,3,-12,-12,-6,-6,4,12,4
4520,-4,1,9,6,0,1,9,9
4525,4,3,-21,-34,-4,-2,31,-8
4530,-5,-6,26,26,10,-1,-3,4
4535,-4,11,-8,-2,-3,-8,-19,-24
4540,0,-6,-12,-6,-4,0,10,-3
4545,3,-8,-11,2,-5,5,-11,31
4550,1,2,-11,12,15,-4,15,-5
4555,0,1,-3,6,2,-2,16,-1
4560,-1,3,9,6,-2,-2,4,-1
4565,-4,-4,-10,-10,-3,3,-13,-6
4570,-1,0,-8,-7,-11,-9,6,-11
4575,0,-1,5,3,2,-5,9,23
4580,0,-3,-1,-5,-3,1,-5,-9
4585,1,3,2,8,4,-4,1,19
4590,3,-2,-5,-2,-7,19,-16,-10
4595,-3,-4,4,25,8,1,42,-2
4600,-2,9,15,-5,7,6,-12,-18
4605,1,-2,7,0,0,-6,-23,10
4610,-1,7,10,4,-4,-5,21,16
4615,0,6,8,-11,-1,-1,7,-10
4620,-1,-9,-5,3,0,-3,-56,-12
4625,-4,-1,2,-4,0,-4,-12,-3
4630,3,-7,-49,-11,-3,10,27,10
4635,-3,-15,-29,7,-11,-11,15,-16
4640,6,18,70,-6,18,22,49,38
4645,3,16,10,-1,2,-5,-29,-7
4650,0,1,22,-5,-7,1,1,15
4655,-12,-7,-26,0,1,-9,-50,-48
4660,-6,-16,-33,9,-15,-3,15,-4
4665,0,3,19,-4,-6,-9,-20,0
4670,1,-2,-25,5,-6,-4,-17,-10
4675,7,8,28,-18,28,11,-3,21
4680,3,-4,1,5,7,-3,30,7
4685,-6,-7,-18,-9,-1,5,34,-1
4690,-7,-9,-15,4,1,-5,-49,-22
4695,-2,3,12,-11,-9,2,26,11
4700,-1,-7,-23,-3,-4,-6,-15,14
4705,-6,-10,-9,-10,2,5,-5,-15
4710,2,17,22,2,-3,-3,17,5
4715,2,-3,-3,7,0,5,-10,-8
4720,4,0,-1,-4,-2,-5,-16,-6
4725,-8,-9,-18,-1,-10,-10,1,-22
4730,-3,-2,30,4,5,2,22,-3
4735,1,3,9,-3,-1,1,-12,0
4740,-4,-8,-32,-6,-10,-7,-23,-2
4745,1,-5,4,13,4,-3,30,11
4750,0,6,0,16,2,5,2,1
4755,4,-3,-11,0,-14,-12,12,28
4760,-3,5,-4,-18,14,4,-45,-36
4765,0,0,26,13,13,7,3,4
4770,0,0,7,-7,-1,-12,1,3
4775,2,0,-16,-1,-10,1,-18,-1
4780,-3,-4,-4,-4,-5,4,84,6
4785,0,4,2,12,-1,-4,-34,7
4790,-5,-13,-74,-41,-2,8,-8,-7
4795,2,-8,78,8,-2,-11,-23,9
4800,0,27,36,22,0,-3,14,-5
4805,-5,-1,-5,-4,1,-8,11,10
4810,-6,-5,2,1,-4,-2,-3,-23
4815,-3,-8,-45,-15,0,5,-15,-11
4820,-1,-7,9,9,0,3,27,17
4825,3,7,8,-10,-22,-5,-38,16
4830,3,-2,24,60,19,1,-32,-23
4835,-9,-17,-41,-32,-14,3,21,15
4840,-1,24,42,3,9,-10,-7,-16
4845,-1,1,-23,-3,-4,-1,37,-7
4850,1,-8,6,-12,-7,-6,14,14
4855,-3,0,4,18,-4,3,-14,-7
4860,2,-17,-41,-5,-8,8,-3,14
4865,4,7,30,-8,6,10,17,15
4870,-2,8,30,16,-8,-9,-16,-15
4875,3,0,1,-2,12,8,41,-1
4880,-2,-5,6,-10,-7,-14,-100,-20
4885,-5,-6,-17,-2,4,-6,-5,5
4890,1,-6,-14,-16,-1,6,19,26
4895,-2,3,5,0,-3,-3,-2,-5
4900,5,0,-15,-5,-1,7,23,3
4905,3,-10,-33,24,2,0,-40,-17
4910,3,13,50,-19,1,16,97,20
4915,-11,-1,-5,4,-7,-22,-42,-9
4920,-5,-2,1,-10,7,1,-5,-8
4925,3,-7,-10,6,6,5,-9,-9
4930,-1,4,-7,-9,-6,-3,40,45
4935,0,-2,-19,3,3,-5,-20,-60
4940,1,-5,4,-3,-12,-1,29,46
4945,-6,-3,10,-11,-5,-8,-29,-47
4950,-1,-7,-31,-13,6,3,-24,-10
4955,2,4,32,17,4,16,45,22
4960,-6,-11,-46,2,-6,-18,-70,-19
4965,4,5,12,-8,-2,8,46,28
4970,0,6,9,3,-1,0,-37,-8
4975,3,-8,-29,-3,2,-4,-10,6
4980,-2,4,34,9,-3,1,31,-3
4985,1,6,19,4,1,-4,11,2
4990,-3,-14,-26,-58,-7,-5,5,-4
4995,3,11,12,0,11,3,-56,-7
5000,-6,-14,-27,-7,-7,0,23,2
5005,-1,-10,-10,-4,-1,-4,26,31
5010,-2,10,24,18,-3,6,3,-54
5015,0,5,1,-2,6,1,-19,-7
5020,-1,-14,-13,-10,-3,2,5,-3
5025,-2,1,11,6,0,-4,14,24
5030,1,2,-14,10,1,-7,-71,-8
5035,2,-5,5,-7,-7,4,53,20
5040,2,-5,-17,10,4,10,19,30
5045,-6,17,55,-4,-3,4,-11,-40
5050,1,-5,6,2,-2,-1,19,4
5055,-3,-6,-5,-5,1,-4,-69,-61
5060,-7,13,10,1,-2,-9,-14,9
5065,5,-9,-22,-1,4,7,-6,13
5070,-1,8,-33,-3,-2,15,39,-7
5075,-8,-15,37,-2,-12,-28,-57,-4
5080,5,-1,7,-7,-1,11,50,6
5085,2,0,-20,11,2,3,7,1
5090,-4,0,35,6,9,-3,-45,-16
5095,2,-12,-16,-9,0,2,35,28
5100,-1,6,-15,7,-11,3,5,-22
5105,-8,3,5,-19,13,-8,50,-1
5110,7,5,36,27,-4,7,0,59
5115,-5,-7,-36,-10,2,0,25,-36
5120,1,-3,-1,-3,-1,-7,-30,-17
5125,-1,1,-13,-2,-6,4,-25,4
5130,0,-5,-24,-5,0,-5,34,23
5135,0,10,4,1,1,4,-19,29
5140,2,0,18,5,3,3,-22,-62
5145,-5,5,-11,0,-6,-6,28,6
5150,-4,-30,-44,-14,-3,-10,-17,1
5155,4,33,27,10,0,-8,-57,-1
5160,6,8,6,5,6,1,35,7
5165,-1,-16,-4,3,1,9,2,11
5170,-10,-11,5,-17,-7,-17,-47,-16
5175,4,12,3,4,1,12,53,16
5180,2,-6,-3,29,7,6,-4,17
5185,1,11,7,-11,-6,2,59,-9
5190,-4,-4,-6,12,3,5,2,-22
5195,6,-4,-2,3,8,16,15,36
5200,-6,2,15,-2,-2,-24,-77,-30
5205,2,-4,-10,1,-4,5,-11,16
5210,4,-12,-35,0,0,4,27,19
5215,-6,12,25,4,-2,-3,-6,-42
5220,-5,-11,-6,-10,-4,1,-9,18
5225,7,14,28,-1,4,3,5,4
5230,-7,-4,-54,-13,-5,-12,-27,-19
5235,5,12,9,18,3,8,47,11
5240,-3,-12,-7,-12,-6,-6,8,6
5245,-9,-12,-21,-7,-7,-14,-55,-32
5250,3,-8,28,16,13,14,37,18
5255,-2,4,0,0,-9,-18,-6,40
5260,-8,3,-6,26,4,-5,-14,-89
5265,8,-10,-16,0,1,10,38,65
5270,-5,12,34,-2,-4,-5,-73,-53
5275,-5,-8,-7,0,0,6,40,17
5280,4,0,2,-10,-8,-9,-6,30
5285,-1,-5,-18,1,3,-12,-47,-44
5290,7,3,2,0,-3,1,0,30
5295,6,7,-4,7,1,10,14,-9
5300,-5,-4,2,-11,3,-10,26,-2
5305,-5,-4,-1,1,0,-6,-45,-20
5310,4,-5,-25,-8,-2,-4,26,28
5315,0,5,30,-5,-4,-3,-24,4
5320,0,8,10,3,2,10,14,-20
5325,-2,6,11,-2,-1,-6,-19,13
5330,-4,-2,-7,4,-1,-1,10,-16
5335,-9,-23,-3,-4,-3,-6,4,-47
5340,6,1,-8,-57,-4,14,43,49
5345,-11,-2,1,-3,-9,-17,-67,-24
5350,3,-4,-1,-1,-4,-6,2,15
5355,1,10,-16,6,1,5,-5,-11
5360,2,-2,-3,-4,2,1,-9,24
5365,-9,1,-10,-13,-6,2,-4,-42
5370,-2,-2,-39,-13,-4,-3,12,17
5375,1,-1,24,9,6,-8,-17,-3
5380,-1,4,3,20,-3,9,43,3
5385,0,-7,-4,-2,-6,-4,14,0
5390,-2,-8,3,-2,-6,-4,23,14
5395,-3,11,-12,-3,4,9,9,1
5400,-4,4,5,-18,-5,-19,-109,-45
5405,9,2,3,9,2,7,42,42
5410,-5,2,3,14,-1,-5,-6,-27
5415,-5,-14,-7,-52,0,0,2,6
5420,2,-4,8,8,2,14,28,19
5425,3,1,-1,1,0,-3,-23,-8
5430,2,8,7,13,0,0,15,0
5435,-5,-10,-26,-23,3,7,-19,-42
5440,-1,2,-1,13,-1,-5,22,45
5445,-6,-4,21,-10,-4,-2,12,-38
5450,2,10,23,4,7,11,-14,15
5455,-2,-30,-35,0,-8,-5,27,19
5460,3,13,22,0,1,-1,-38,-17
5465,3,8,-9,15,8,14,46,23
5470,-7,-4,-4,-26,-6,-17,-35,-9
5475,4,3,12,15,1,7,-3,6
5480,-8,-13,-35,-9,4,-3,19,-8
5485,0,-12,9,8,2,0,11,14
5490,7,27,26,4,-1,10,0,6
5495,-3,-4,-15,-2,-7,-1,26,-20
5500,0,1,-30,5,0,-6,-39,3
5505,-1,0,24,20,-4,-6,13,1
5510,-2,-5,-3,-6,1,3,19,-3
5515,1,5,7,4,-3,-6,-17,16
5520,6,1,6,2,5,8,38,13
5525,-2,-5,7,1,-5,7,-32,-21
5530,-6,0,-23,-3,0,-7,11,-2
5535,-1,4,11,10,-3,-11,-51,-13
5540,-6,-8,-2,5,-4,-1,18,-3
5545,1,4,-11,-6,8,1,-31,-1
5550,5,-5,-1,6,0,11,46,12
5555,-1,-17,-9,-9,0,-2,-7,3
5560,3,21,23,5,-7,-4,-4,11
5565,-1,-4,-12,-6,1,-4,-16,15
5570,-5,-3,29,10,-5,-2,-27,-41
5575,-1,3,-38,-8,12,3,35,-4
5580,3,-6,1,-5,-5,-3,-73,-13
5585,2,6,9,-4,0,17,92,32
5590,-12,-1,1,2,-4,-13,-21,-27
5595,4,-2,-7,15,-4,-4,-6,29
5600,-5,-4,4,-50,-5,-2,29,-13
5605,4,-2,-23,-4,0,3,-27,25
5610,-7,-15,-11,-13,0,-1,-44,-43
5615,-2,2,12,19,2,-7,-2,14
5620,-3,1,-18,15,-2,2,47,-15
5625,2,0,-1,-15,-4,-17,-56,-11
5630,1,1,34,2,-1,5,23,7
5635,-4,-10,-23,4,5,3,27,13
5640,-2,-3,-7,4,1,3,14,21
5645,-3,1,8,-1,-2,-2,-8,-34
5650,4,2,-27,4,1,1,-3,0
5655,1,7,11,-5,-11,-4,-5,-31
5660,-7,-9,6,6,8,-3,-23,31
5665,0,-2,-4,-3,-1,6,19,22
5670,-4,-6,-15,-2,3,4,-12,-44
5675,-1,11,15,10,-4,-5,-21,2
5680,2,-5,-13,-16,1,0,-21,-27
5685,1,-4,-4,24,-4,-3,39,39
5690,0,13,8,-14,5,-3,-23,-17
5695,1,-3,-9,1,-2,5,29,4
5700,-4,-5,6,4,-3,-4,-51,-1
5705,-5,1,-10,5,4,-3,-19,-23
5710,-3,-14,-1,-5,-7,-8,16,12
5715,0,10,-12,-4,0,-3,-8,2
5720,6,5,36,5,-1,-3,24,21
5725,1,8,5,0,8,0,-43,-28
5730,0,-3,-9,-3,-3,1,27,11
5735,-7,-8,7,-9,-1,-5,-48,-26
5740,-1,-3,-20,0,-6,0,33,25
5745,-5,-11,-9,-5,-8,-11,-27,-20
5750,4,20,19,-2,4,-3,-4,15
5755,-7,-15,-11,-8,-1,1,-31,-9
5760,0,6,5,6,-2,-5,-16,-20
5765,1,-6,-10,10,1,9,56,24
5770,0,-5,-14,-9,-7,-1,-13,18
5775,4,6,65,42,7,-6,16,5
5780,-5,-9,-22,-13,2,4,19,0
5785,-3,2,-2,-5,0,-6,-40,-44
5790,5,-3,-5,-1,2,0,-9,36
5795,0,2,-26,-12,-7,-4,-25,-28
5800,1,-4,15,12,-2,5,65,-1
5805,-8,-5,-4,-10,-6,-20,-73,-10
5810,5,6,11,11,-1,-1,31,-4
5815,-1,-5,-2,-6,-1,-2,3,4
5820,4,3,4,9,4,9,2,-9
5825,0,-11,-11,-21,0,4,36,23
5830,0,11,3,1,2,4,26,9
5835,3,6,1,0,0,-1,-18,10
5840,-1,-3,6,-7,-4,-8,-73,-10
5845,-1,6,24,6,0,4,80,-1
5850,-12,-18,-26,-4,-6,-13,-24,-22
5855,0,-7,-5,-11,2,9,13,8
5860,-2,-4,-24,12,-1,-3,-22,6
5865,8,5,-9,-15,-3,7,-1,-11
5870,-1,0,14,8,2,5,2,29
5875,-3,-6,-17,-12,-6,-5,29,-3
5880,-6,-8,-19,-12,-6,-9,22,-27
5885,-5,-1,20,18,-1,-12,-24,-16
5890,2,8,14,5,4,4,19,22
5895,-1,-9,-4,-8,-7,1,-27,3
5900,1,2,-6,4,1,-5,-16,-7
5905,0,2,-7,-15,-6,1,22,33
5910,-4,-3,11,10,1,-3,8,-63
5915,-1,2,-5,-15,-3,10,-47,30
5920,-6,-3,34,16,4,-10,-21,-11
5925,-1,1,-1,-11,1,4,-6,-1
5930,-1,-3,6,3,-6,-7,-28,2
5935,-2,-10,-19,3,8,6,20,1
5940,-2,11,-2,-22,-6,-1,-14,-16
5945,-3,-2,-5,3,-4,0,72,11
5950,-3,-8,-6,6,-1,-6,-59,-16
5955,5,6,13,-44,-11,0,41,11
5960,3,-1,-10,6,12,14,2,28
5965,-4,-5,1,4,-2,-15,-35,-27
5970,-2,4,0,-11,-1,-9,-3,8
5975,-3,-1,1,14,-3,-7,-12,-27
5980,0,-6,0,-6,-3,5,37,31
5985,1,-4,-5,1,5,10,63,21
5990,-8,2,5,2,-2,-5,-12,-45
5995,4,0,-11,3,6,4,-10,6
6000,0,-1,-14,-2,-6,-12,-12,-3
6005,2,8,0,8,1,6,-8,-6
6010,3,-12,21,-4,2,5,25,33
6015,-4,12,16,33,-4,-12,13,15
6020,-3,-6,-4,4,9,8,-15,-58
6025,-1,-4,-32,-18,-6,4,2,23
6030,3,-12,-1,-5,-2,2,11,10
6035,-3,6,-31,-9,-7,-5,-3,9
6040,7,6,45,23,0,5,19,27
6045,-5,2,7,9,2,-13,-75,-73
6050,-2,-3,-12,30,0,11,50,3
6055,0,-4,24,-20,2,-7,-42,-6
6060,-1,0,-11,-8,-7,-1,20,19
6065,1,-2,-25,-13,-2,4,17,39
6070,2,8,24,13,8,8,20,-29
6075,-5,-5,-16,4,-5,-9,-16,-23
6080,-3,1,23,-2,1,-7,4,-8
6085,1,0,7,3,0,3,-8,20
6090,1,3,-18,-9,5,2,-9,13
6095,-1,-5,0,0,4,11,111,24
6100,-4,-2,-4,-12,-11,-16,-107,-46
6105,-3,-8,-18,-2,-2,0,62,-8
6110,0,12,12,-8,1,-5,-10,19
6115,-1,0,9,4,3,2,-2,-14
6120,0,-2,-26,12,2,-3,-6,23
6125,6,7,10,-11,-3,5,-10,-12
6130,-3,-4,-9,-11,-5,-8,-14,30
6135,-3,-6,-11,-3,-10,-2,-27,-47
6140,-5,-3,-6,-3,4,5,31,-16
6145,1,-1,-50,19,-4,2,8,5
6150,2,4,85,12,4,2,-6,10
6155,-1,1,-6,4,0,-7,-11,3
6160,-1,-1,-4,-6,-2,-2,-22,-17
6165,-5,-2,13,10,-3,-2,9,17
6170,-2,-9,-53,-12,-3,2,12,16
6175,0,2,29,1,-4,-3,-3,-5
6180,3,4,18,12,4,-3,-7,18
6185,-3,-2,8,-10,6,-4,-43,-22
6190,1,-5,-39,-6,-6,-2,32,4
6195,0,9,28,3,2,8,-21,0
6200,1,-1,-10,2,-1,9,44,7
6205,-1,-3,20,-33,-7,-4,-14,12
6210,-2,-4,-29,-13,-2,-7,-41,-50
6215,2,-3,4,4,11,-2,-20,11
6220,-4,-1,-5,-6,-2,7,42,6
6225,1,3,6,7,-4,-7,-26,-4
6230,-2,0,15,7,-3,1,4,23
6235,4,2,-21,-4,2,0,-7,-8
6240,-5,-6,-3,-10,-7,-2,28,9
6245,0,-4,-1,-4,0,-3,-28,12
6250,-3,0,-5,-2,0,-4,-6,-43
6255,0,0,10,1,-2,10,17,5
6260,1,5,-7,5,10,-10,-32,3
6265,-2,-13,24,9,2,5,55,-11
6270,1,16,2,-13,-16,-4,-32,16
6275,-2,-12,-23,4,12,-5,15,2
6280,-2,2,37,11,-3,0,-8,-10
6285,6,8,-1,0,7,4,-7,1
6290,1,-5,-22,-20,-6,9,7,29
6295,-3,-4,6,-6,-10,-4,21,-11
6300,2,-2,-16,-11,-10,-4,-16,1
6305,-4,1,11,8,10,-1,-38,-28
6310,0,-1,8,11,3,-3,21,6
6315,-1,3,-15,-15,-1,2,3,14
6320,3,-4,-9,1,5,2,12,0
6325,-6,-1,-11,-40,-12,-3,-11,-3
6330,-4,3,2,1,1,-7,-28,-34
6335,2,1,1,5,0,10,27,19
6340,1,-7,-12,-4,1,0,1,30
6345,5,4,17,13,7,1,14,15
6350,-2,2,-10,1,-4,0,-14,-17
6355,3,6,-14,-6,1,1,-2,-7
6360,-7,-5,1,7,2,-1,-28,-22
6365,0,3,1,6,-3,2,0,8
6370,3,-8,8,8,2,-3,16,26
6375,-4,1,-1,1,-10,-3,-14,-18
6380,-2,8,-4,-8,-7,-8,14,-9
6385,-6,-1,5,12,1,0,-11,-3
6390,5,-3,17,-1,6,7,-33,-1
6395,-4,1,-11,1,-4,-7,1,10
6400,-1,-3,-5,-3,4,9,53,21
6405,-3,2,20,16,-3,-2,2,-19
6410,2,0,-13,29,9,5,-18,3
6415,-4,-7,6,-8,-4,-8,-17,-4
6420,0,-2,-7,-9,-13,5,40,4
6425,2,1,2,14,13,2,-54,0
6430,-7,-7,-30,-16,-9,-14,6,-7
6435,-1,1,15,4,4,-6,-20,18
6440,0,4,14,1,-5,-1,-12,-57
6445,-3,-3,-20,-1,0,-1,-18,-19
6450,7,5,13,-1,4,8,30,48
6455,3,-2,3,7,1,13,37,26
6460,-2,-5,-6,-21,-5,-4,-29,3
6465,-2,6,2,-4,-1,-9,13,-3
6470,-4,-5,-40,-17,-3,-9,-39,-42
6475,2,7,58,13,2,2,32,17
6480,4,3,-25,11,1,2,2,41
6485,-1,11,42,7,-4,2,0,-50
6490,-3,-4,-8,-12,4,2,45,26
6495,-1,-9,-22,-8,-7,-2,-32,-19
6500,1,-5,-12,3,5,0,-8,-5
6505,0,-5,-10,25,-3,-3,24,35
6510,-5,2,8,4,3,-2,-29,-22
6515,-2,2,7,6,-6,2,19,2
6520,1,-3,11,-2,5,-2,2,15
6525,-5,-9,-20,-12,-12,-5,-28,-7
6530,2,-1,8,6,5,1,29,-8
6535,-7,-8,-30,-9,-1,-8,-31,-23
6540,0,5,15,7,1,3,10,10
6545,4,-2,-10,-8,-4,2,1,12
6550,0,-1,14,0,-3,3,-10,2
6555,-4,5,-12,-3,-2,-15,-2,-23
6560,-4,-6,-27,0,-10,2,32,15
6565,1,5,44,10,12,3,1,0
6570,1,-10,-25,-9,0,7,13,-11
6575,5,5,18,4,4,-4,8,20
6580,3,15,23,10,0,-6,-52,0
6585,-1,-7,-23,-8,-4,-2,9,-33
6590,-1,-8,-12,37,0,0,10,8
6595,-6,-1,6,-9,-7,-3,-6,-5
6600,3,-1,6,-3,7,7,-6,-4
6605,-1,-6,-16,-12,-2,-7,4,16
6610,4,10,20,8,-6,2,-9,6
6615,5,2,-20,-17,1,11,39,-4
6620,-10,-11,2,-5,1,-21,-67,-25
6625,2,1,-17,-8,-2,0,20,18
6630,-5,-5,7,1,-1,1,42,10
6635,-4,-10,-18,-2,-4,2,-13,-1
6640,2,5,31,-4,3,0,-17,1
6645,6,4,-7,11,8,5,32,-22
6650,-9,-1,11,-37,-11,-11,10,4
6655,3,-4,-25,5,3,3,-36,33
6660,-6,-1,19,5,0,-1,6,-56
6665,-2,-5,-17,-11,-7,-7,-22,-7
6670,1,-7,2,-2,1,1,-12,-5
6675,5,8,-23,3,5,12,50,32
6680,1,4,30,2,-7,-14,-80,-22
6685,-11,2,0,2,-5,-12,15,4
6690,0,2,-17,-58,-7,5,18,16
6695,-1,-8,11,6,6,-1,-10,-22
6700,-1,-2,-30,-21,-4,3,51,-3
6705,5,0,-14,-12,3,8,-32,-2
6710,-6,-3,26,19,0,-13,-7,12
6715,-6,-7,-31,-16,-1,-21,-45,-21
6720,-5,0,6,5,0,8,40,-25
6725,1,0,7,5,-4,-2,-4,19
6730,2,-2,-24,-2,-1,3,-11,8
6735,1,-1,17,-2,0,-3,3,9
6740,-1,-6,-21,9,-1,-4,-8,-22
6745,3,6,11,5,1,13,24,43
6750,-5,2,4,5,-5,-16,-58,-63
6755,-2,-4,9,0,-4,-6,32,24
6760,-3,-7,-12,-6,-4,-2,2,2
6765,7,0,0,3,1,8,20,29
6770,-6,3,4,0,2,2,-5,-39
6775,-4,-3,-4,-2,-7,-2,-33,-21
6780,-1,0,1,14,7,6,12,-3
6785,4,-1,-7,-5,-3,4,61,47
6790,-5,1,-4,0,4,-7,-1,-16
6795,2,0,-6,-11,-9,0,3,-10
6800,-3,-8,-27,-2,0,-6,-3,2
6805,-2,-8,-2,-13,2,1,-22,-16
6810,7,13,-4,0,1,8,10,31
6815,-1,11,2,20,1,5,13,-23
6820,5,4,1,-8,6,8,28,32
6825,-5,-4,19,0,-9,-11,-36,-27
6830,-6,-12,-18,0,-3,-7,6,0
6835,5,-6,-7,1,1,0,-23,25
6840,-2,5,13,-3,-2,1,1,-17
6845,-4,-1,-1,-6,3,-4,-27,-33
6850,7,1,10,10,1,12,-2,29
6855,-6,-3,8,-2,2,1,84,13
6860,4,-4,-9,-7,-4,-4,-19,45
6865,-4,-2,-7,10,2,1,46,-35
6870,-6,-6,-3,-25,-12,-19,-78,-39
6875,3,12,16,6,8,9,-28,-31
6880,0,-4,-3,-6,-6,1,39,36
6885,-4,-3,-24,-15,2,-7,-23,3
6890,3,3,18,15,0,-11,19,4
6895,-3,-9,6,0,4,-4,-26,-9
6900,-1,-3,-14,-2,-1,2,19,15
6905,2,9,6,4,1,1,-4,-12
6910,1,2,-14,-1,4,16,24,32
6915,0,2,25,17,-4,-11,-33,-2
6920,-4,-1,-10,4,-8,0,4,-36
6925,-7,-11,10,-5,5,3,-11,-3
6930,3,-10,-36,-7,2,-2,20,22
6935,3,19,14,-2,1,-3,-43,-49
6940,5,-4,3,19,-2,7,10,67
6945,-3,-1,-7,-22,-9,-2,18,4
6950,-2,-1,4,2,1,2,-16,-15
6955,-1,-8,-4,0,-2,2,-12,8
6960,2,5,4,-4,0,-3,-22,-22
6965,-1,-3,-26,5,-4,-5,-12,9
6970,-3,1,38,8,-4,1,-5,-31
6975,-5,-16,-12,-12,5,1,48,36
6980,-2,16,4,11,-1,-9,-34,-20
6985,2,0,-6,-4,2,-1,-12,12
6990,1,8,-11,-2,1,3,25,2
6995,1,0,7,16,0,0,-12,-18
7000,-5,-10,-2,-8,0,-2,53,12
7005,3,-7,-1,-5,-8,-1,-21,11
7010,0,5,4,1,15,-1,-10,-9
7015,-1,-5,6,12,-1,4,42,9
7020,-8,10,2,-25,-2,-3,-35,-26
7025,-1,-5,5,-3,-8,-8,-18,0
7030,-4,-1,-9,0,-4,-2,2,9
7035,-3,-8,-15,2,3,8,24,-17
7040,1,-3,8,27,3,-3,-33,-7
7045,-1,2,-6,0,-1,6,70,9
7050,-2,-2,3,-2,-7,-7,-60,1
7055,-2,-2,-10,-16,2,-9,-5,16
7060,-1,-7,-4,10,-8,-8,-19,-37
7065,0,13,13,3,2,2,3,-2
7070,1,-5,3,6,6,2,-1,5
7075,-1,-4,-13,-8,-8,-4,-46,-3
7080,7,10,12,1,10,7,41,43
7085,-2,-3,15,-10,1,-1,-25,-26
7090,-2,-7,-15,-8,-3,4,27,-10
7095,0,2,2,-5,-3,2,-6,3
7100,-1,-5,-5,-10,-4,-3,-2,1
7105,-1,-2,-12,8,3,4,-14,3
7110,0,3,-18,16,3,2,-5,-2
7115,-2,2,34,2,-1,-2,7,7
7120,0,-3,-1,-5,1,3,11,4
7125,0,0,-3,22,2,-5,-12,-14
7130,1,-1,7,-36,-7,0,0,6
7135,0,-1,-34,-4,1,2,2,2
7140,-3,-5,11,-10,-5,4,12,11
7145,-3,7,11,25,-4,-16,-55,-31
7150,2,-6,-2,2,8,16,58,50
7155,-11,0,7,-4,-6,-11,-17,-54
7160,2,-11,-8,-15,3,1,11,12
7165,2,20,11,2,-3,-2,-26,-14
7170,3,-3,-3,4,-6,-1,43,32
7175,0,-2,16,-7,0,-1,-27,-13
7180,-1,0,-8,7,-7,-2,-8,32
7185,-4,-11,0,-10,-1,1,19,13
7190,2,-1,-44,-13,-1,5,-9,-35
7195,-3,2,53,20,2,-9,-18,-9
7200,4,11,9,14,4,-4,-13,-20
7205,0,-4,8,-33,0,-2,7,-4
7210,1,5,14,-1,0,-2,-11,27
7215,2,-7,-31,7,-3,6,24,9
7220,-2,0,-3,-24,2,-6,-46,-12
7225,-3,-5,-19,-3,6,8,25,18
7230,-4,-11,28,21,-6,-10,2,-24
7235,5,11,-11,-6,-3,2,4,21
7240,-3,1,-5,9,5,-7,-31,-18
7245,0,-10,-30,2,1,2,5,17
7250,-2,-7,2,-10,0,-3,16,-28
7255,-1,2,10,-2,-6,-5,-28,2
7260,-5,-3,-9,0,-2,7,38,-13
7265,-6,-4,-10,-4,-2,-6,3,-22
7270,3,-2,2,12,-3,4,4,51
7275,0,4,24,0,1,-13,-19,-30
7280,3,1,-20,-4,-1,8,20,8
7285,-1,1,6,7,-2,-6,-27,-6
7290,-7,3,27,-3,-4,-8,-13,-10
7295,2,-5,-22,-5,7,4,13,16
7300,2,5,3,-3,-2,-6,-3,-25
7305,-1,-6,0,13,1,4,32,13
7310,2,4,-1,11,2,7,-53,2
7315,-8,-6,-2,-24,-6,1,37,2
7320,-1,-8,-9,5,-2,-3,-14,-4
7325,1,-2,-1,-7,-7,-3,0,-4
7330,6,9,12,11,7,10,18,30
7335,-5,-7,-38,7,-4,-7,-22,-32
7340,1,3,16,-11,-1,0,-33,-9
7345,-1,-2,9,5,1,-12,-2,4
7350,2,0,13,-7,0,-1,-8,-1
7355,1,-2,-21,0,-1,8,3,-6
7360,-8,-10,6,-6,-11,-2,37,32
7365,4,10,4,3,10,4,-23,-20
7370,-8,-10,-7,-9,-7,-17,-11,-29
7375,7,4,10,1,7,7,16,25
7380,-7,-5,-25,1,-4,4,31,-8
7385,0,-7,3,-3,-5,4,-13,6
7390,1,3,23,7,-3,-10,33,7
7395,-2,4,-4,2,-3,-3,-40,-22
7400,-2,-5,5,2,2,-2,-12,-7
7405,2,1,3,6,-1,5,18,23
7410,2,5,-7,-6,0,3,2,-13
7415,-2,-6,-15,-10,-2,2,6,26
7420,-1,2,6,8,2,3,-9,-20
7425,-4,0,18,3,-3,1,5,0
7430,-1,-3,9,-16,-14,-14,-34,-14
7435,3,3,-10,20,17,10,32,28
7440,0,-6,-13,-6,-12,-2,16,9
7445,2,2,-9,-11,9,3,7,32
7450,-7,-7,4,2,-3,-11,-23,-42
7455,1,6,7,-4,0,-6,-48,-44
7460,4,2,-19,-9,-2,6,53,36
7465,-3,-7,25,-5,-5,0,20,7
7470,-1,-3,-26,-2,2,-2,-2,-7
7475,3,-1,-5,-9,0,7,36,37
7480,-7,-1,9,5,1,-14,-61,-54
7485,0,-4,-10,-4,-4,1,58,17
7490,0,1,-3,15,7,2,-28,-2
7495,3,7,13,-10,-4,2,20,13
7500,-4,-4,-10,3,0,-4,-15,7
7505,0,-7,-14,-3,-5,-7,-15,5
7510,-4,5,2,-2,-1,3,21,-41
7515,-1,-6,-13,-30,-10,-2,-10,-12
7520,0,-3,6,-6,3,1,-4,42
7525,1,5,-5,1,-3,0,-16,-23
7530,-1,-10,-15,-13,3,9,9,2
7535,0,16,26,10,-4,-5,1,5
7540,-1,-4,12,15,3,1,5,5
7545,-1,2,2,-12,-3,-9,-23,-12
7550,-1,5,-26,-1,-2,0,6,-2
7555,-4,-7,29,8,0,2,42,11
7560,1,-1,-5,0,0,5,-18,-6
7565,-2,-3,3,5,-2,-7,-31,-38
7570,-7,-13,-13,-7,5,4,-10,4
7575,0,2,6,0,0,4,14,33
7580,2,6,14,-6,-7,-7,-31,-33
7585,-2,-3,-14,17,8,6,4,2
7590,5,10,19,-34,-2,0,-32,11
7595,-9,-14,-31,-10,-6,-8,9,-23
7600,4,6,28,5,7,13,52,23
7605,0,3,-4,-12,-1,-3,0,11
7610,-2,-2,-1,16,-6,-12,-39,-9
7615,-2,-4,-4,8,0,-4,5,-16
7620,2,2,-4,-16,-4,2,-13,-2
7625,-3,0,2,12,5,-1,-13,3
7630,2,-6,-15,-3,-1,5,29,15
7635,4,2,8,10,2,0,-53,-11
7640,-6,0,-5,2,-4,-5,62,-1
7645,-1,1,-1,-4,4,10,-2,22
7650,-2,2,1,2,-4,-1,-4,-29
7655,-2,-4,34,1,0,-5,-11,-10
7660,2,-11,-23,0,3,7,-2,17
7665,-5,14,29,7,0,-16,-26,-33
7670,4,-1,11,20,1,5,13,24
7675,2,-5,-17,-38,-2,-2,33,16
7680,-5,-9,-1,11,-2,-7,-45,-16
7685,-1,-9,-10,-17,-6,1,39,16
7690,-2,-4,7,3,3,4,9,-3
7695,3,8,-13,12,-2,1,12,2
7700,2,4,18,6,2,-2,-8,-7
7705,-1,-5,-14,-11,-6,-3,-11,-5
7710,5,7,4,12,-2,0,30,30
7715,-10,-8,-11,4,4,0,-19,-33
7720,-3,0,-7,-13,-1,-4,-2,-37
7725,4,2,-4,6,1,10,0,10
7730,0,-3,-6,-5,-3,-11,2,20
7735,-3,-7,-18,-9,-10,-14,-59,-7
7740,6,17,37,15,7,0,14,10
7745,1,-7,-6,0,-1,1,7,0
7750,-5,1,30,10,3,11,17,-14
7755,1,-8,-18,0,0,7,11,6
7760,0,10,-1,-4,-3,-8,-12,-11
7765,4,0,-3,4,-1,6,17,10
7770,-2,-6,-17,-15,1,-3,-11,5
7775,5,2,-2,15,-1,-6,-32,34
7780,-3,-5,-5,19,1,3,21,-64
7785,-2,-2,5,-7,-3,-2,19,1
7790,-1,3,-7,-8,-3,1,17,13
7795,-4,-8,-11,0,2,-3,-26,-3
7800,3,6,3,-1,-1,-8,-2,40
7805,-5,-3,-9,-9,-16,-3,-9,-47
7810,-2,-1,2,10,10,-1,-30,-37
7815,1,-3,8,7,1,7,9,7
7820,1,-3,-39,-25,-9,6,18,37
7825,1,4,15,12,4,-1,6,-7
7830,6,-2,11,-8,-5,3,63,30
7835,-8,0,-8,-2,-2,-12,-79,-35
7840,-5,0,18,5,12,7,-12,-17
7845,-5,-5,-8,-8,-15,-12,-11,12
7850,1,3,-6,1,0,3,-5,-6
7855,4,2,-5,4,-1,1,44,21
7860,-2,-13,-14,-15,-6,3,26,26
7865,-1,1,1,28,6,7,-60,-48
7870,-4,5,29,-13,6,-15,-14,-11
7875,-2,-8,7,-10,-11,-3,13,21
7880,-1,11,3,-4,3,4,45,-5
7885,4,-3,12,1,-1,4,11,24
7890,-3,2,-8,7,0,-15,-23,-29
7895,3,2,4,1,-1,9,14,16
7900,-3,-15,4,-7,0,-13,-29,-17
7905,2,14,4,-2,6,6,12,16
7910,-2,1,-2,12,-5,4,0,-16
7915,-6,-4,-8,-6,5,-8,-13,-29
7920,2,-3,-9,-1,-6,-4,5,50
7925,-3,-4,-14,-18,-1,-5,-26,-35
7930,1,-3,-2,0,-2,3,22,25
7935,1,6,-1,2,2,14,66,13
7940,-4,-4,-13,-3,-7,-4,-68,-30
7945,-1,0,12,-13,1,-4,-21,8
7950,-1,-8,-7,3,2,-9,-12,-12
7955,0,9,-10,19,-4,11,57,3
7960,4,2,37,3,-2,-4,-14,12
7965,2,1,3,6,1,6,6,7
7970,-6,-6,-19,-17,-8,-11,-43,-18
7975,-5,-6,-3,0,0,-9,-14,-14
7980,1,-5,10,10,-3,9,0,-14
7985,-2,5,-20,-14,11,1,37,21
7990,8,-3,3,-1,0,5,-4,30
7995,1,11,23,5,3,3,20,-27
8000,-4,-7,-40,-27,-8,-7,-21,-1
8005,0,-6,5,9,3,4,3,-2
8010,-6,9,-4,0,-3,1,-14,-31
8015,5,-11,0,-15,-2,-4,23,45
8020,0,10,-5,6,1,3,-31,-29
8025,-3,-6,-3,6,-9,-5,37,-13
8030,-4,-4,-13,-15,3,-2,-5,5
8035,5,2,12,7,6,6,21,9
8040,-7,-6,-5,3,1,5,1,2
8045,-6,-1,-2,-7,-10,-18,-14,10
8050,0,-3,-9,3,-6,0,-33,-12
8055,1,7,22,17,4,-3,-25,-46
8060,4,0,-28,-21,8,6,78,54
8065,5,1,6,-3,3,14,-2,26
8070,-4,-4,-10,3,-1,3,17,-55
8075,-7,-12,7,-10,-13,-10,-25,-7
8080,5,13,17,16,11,-1,-15,2
8085,2,2,-30,-26,-3,-3,-10,-8
8090,1,8,29,1,1,3,11,26
8095,-3,-1,-13,-8,5,4,1,-13
8100,-1,-12,-3,6,-6,-5,-23,-7
8105,-4,-3,-19,10,-1,-3,34,17
8110,2,1,35,0,12,3,-24,10
8115,2,5,-13,-6,1,4,-25,-14
8120,0,-4,2,0,-3,-6,48,28
8125,-3,-6,-35,8,2,7,-13,-19
8130,4,2,23,3,-5,9,30,35
8135,-5,-6,-1,1,-1,-12,-43,-37
8140,0,2,-12,-2,-2,3,26,17
8145,-4,-4,12,16,-7,-14,-14,-39
8150,-2,-2,-24,2,-3,2,16,21
8155,0,0,2,-14,-2,-6,-47,5
8160,-3,-6,1,-2,0,-4,19,-28
8165,1,7,23,7,9,-7,-63,7
8170,2,-2,-16,-14,-9,15,80,35
8175,1,-6,-17,25,9,8,12,8
8180,-4,6,15,-23,-9,-14,-57,-37
8185,3,-4,2,3,-2,-2,-5,13
8190,-2,3,-22,-14,-3,-10,-5,-6
8195,-4,0,52,14,-4,-1,-16,-16
8200,-8,-4,-16,-3,0,-3,12,-14
8205,-2,-5,24,-2,1,5,13,32
8210,-4,2,-9,1,-4,-11,-48,-42
8215,-2,-9,-51,-36,-2,-4,49,31
8220,-1,-2,14,11,2,-1,-48,-29
8225,2,5,12,-6,-5,5,61,22
8230,2,-6,-6,31,-6,-3,-41,19
8235,-10,1,-7,-17,5,-8,21,-13
8240,-1,-1,-6,-6,-5,-7,-89,-42
8245,1,-2,-16,-10,6,9,49,25
8250,2,3,45,20,2,2,10,18
8255,0,-2,-7,-23,-7,-5,-21,-3
8260,-3,8,-29,-4,-1,2,53,-9
8265,-1,-3,52,10,-2,-2,-39,-27
8270,-1,1,-16,-9,3,3,13,5
8275,2,2,-10,7,-6,-2,-24,16
8280,5,-2,7,2,8,-1,29,37
8285,-2,-1,0,-4,-16,-1,-25,-44
8290,-1,-1,-3,-6,10,6,57,11
8295,-1,-5,-17,4,1,1,-23,0
8300,1,-5,-1,33,-2,-8,-30,12
8305,-2,0,-19,-9,-6,-6,-10,-4
8310,1,-8,-35,-18,1,7,10,2
8315,-2,4,42,22,-1,-3,21,-7
8320,-8,-11,-15,-13,-11,-15,-71,-20
8325,-5,2,8,4,3,-1,-30,-9
8330,0,-12,-20,-5,-7,-8,-12,-5
8335,0,6,-9,-9,-3,11,44,2
8340,8,24,35,0,8,3,15,33
8345,-5,-5,-11,-3,1,-10,-30,-9
8350,-6,-2,2,1,-2,-5,-2,-40
8355,5,-1,-6,8,-6,0,6,17
8360,-2,-7,14,-10,7,20,62,27
8365,-3,-7,-31,-11,-2,-8,-27,5
8370,-3,10,22,4,-5,5,13,-20
8375,1,2,17,26,4,-11,-65,-2
8380,2,-5,-11,-24,-4,7,46,-10
8385,0,0,-12,2,9,11,13,-7
8390,4,-1,15,13,-5,-10,-27,17
8395,0,-5,-28,-28,3,5,35,26
8400,-7,-3,25,17,-9,0,-21,-19
8405,3,0,12,-5,8,1,22,-13
8410,3,2,-2,-9,5,14,40,15
8415,4,15,-4,-7,-3,-5,-64,25
8420,-3,-8,15,5,-5,-14,-9,-43
8425,-5,1,1,9,2,2,-1,1
8430,2,-4,-17,-36,-1,1,0,10
8435,-1,2,19,-3,-3,4,25,15
8440,-3,-7,-26,6,2,-4,-29,-13
8445,1,-3,3,-6,2,-10,1,-5
8450,-6,-4,7,13,1,-1,14,6
8455,-5,-4,-16,-7,-11,-5,-9,-29
8460,2,-3,10,9,7,3,-4,17
8465,5,2,1,9,-2,8,42,34
8470,-4,3,-9,3,-2,-11,-68,-53
8475,0,-3,2,12,7,0,-1,-34
8480,-3,-12,-10,-16,-10,-1,-4,40
8485,4,21,24,11,4,6,10,6
8490,-2,0,0,-8,-5,-18,-23,20
8495,2,-5,2,-3,-3,2,-3,-32
8500,-2,6,-19,32,-4,-3,9,-2
8505,0,-3,8,-8,4,3,-12,14
8510,-11,-9,-20,-2,-8,-10,18,-4
8515,4,7,49,18,6,10,54,-14
8520,2,3,3,2,-12,-9,1,10
8525,-8,-8,-16,-5,-2,-9,-77,-39
8530,5,3,-4,9,6,9,24,30
8535,-7,-11,-11,-6,-2,-5,-10,-2
8540,3,3,23,0,5,11,58,26
8545,3,3,-11,2,-5,-6,-4,-6
8550,-4,3,-1,-15,7,-6,-34,-43
8555,3,-1,3,11,-1,6,29,43
8560,4,6,-10,-22,10,0,-28,-18
8565,-5,-10,-4,1,-4,-5,2,-26
8570,1,-4,-10,21,1,11,30,36
8575,4,2,-3,-16,-5,-7,11,26
8580,-7,-11,-12,2,1,0,-9,-43
8585,-1,16,-11,-11,-3,-4,12,10
8590,-1,-6,35,16,3,-5,-32,-9
8595,-3,2,-16,-5,0,0,-1,-5
8600,1,-5,-23,-3,-3,-4,-26,5
8605,5,-10,-6,-4,1,11,20,14
8610,-1,9,5,-3,-5,-4,-8,-10
8615,-3,3,30,13,-2,-12,-30,2
8620,-1,0,1,-18,5,9,50,-3
8625,-5,-8,-9,1,-5,-13,-39,-16
8630,-1,-6,-13,-6,0,6,0,-26
8635,2,1,-2,1,5,8,4,3
8640,-1,3,-8,14,1,0,-15,21
8645,-3,-5,6,-34,-12,-10,7,-19
8650,0,-2,1,-10,-10,9,44,20
8655,-1,-4,-18,0,6,-7,0,2
8660,1,1,0,-3,0,2,-2,20
8665,0,-7,9,13,5,4,19,-11
8670,7,12,-14,-9,-1,-3,-66,3
8675,-8,-5,19,1,-9,-9,38,-39
8680,-5,-2,18,-2,5,10,9,5
8685,-2,0,-3,-1,-1,-9,-4,9
8690,0,-6,-4,1,-1,-3,1,5
8695,7,3,-12,-4,3,7,-16,2
8700,1,-1,-6,-2,-6,-6,2,36
8705,-1,0,-7,3,-1,0,32,-5
8710,-3,-2,18,1,2,4,2,-4
8715,-1,-4,-10,-21,-2,2,-35,12
8720,-2,5,7,43,6,-6,36,-18
8725,-1,-12,-15,-3,3,9,-22,-5
8730,2,5,-8,14,-3,-4,-15,20
8735,2,3,-8,-21,-5,2,21,12
8740,-2,-5,6,9,-6,-14,-35,-21
8745,-3,-3,-27,-11,-5,-2,31,-2
8750,0,-4,21,1,10,0,17,-10
8755,-3,1,-4,10,-9,-6,-40,-3
8760,-2,2,13,-18,0,6,29,-5
8765,5,5,-4,0,-5,-8,-21,7
8770,-5,-4,-9,-6,-6,-5,15,18
8775,-1,-3,-10,-3,10,4,-11,-9
8780,-2,-6,-41,-31,-4,0,-3,-1
8785,-1,1,49,8,2,1,20,-3
8790,3,0,-3,5,3,5,4,-18
8795,-2,3,8,6,0,-9,-19,34
8800,5,0,-3,19,4,3,-10,-20
8805,-1,-2,-8,-32,-3,8,16,4
8810,-4,0,3,-3,-2,-3,-10,-8
8815,-1,-2,-6,-1,-1,-4,28,-3
8820,-1,-7,-6,-5,0,-2,-26,-16
8825,2,17,10,19,1,7,11,12
8830,0,-9,-7,-6,-2,-3,-10,-16
8835,-2,5,3,-6,-5,-4,6,-1
8840,5,0,12,-4,4,13,14,40
8845,-1,2,-16,9,-7,-8,-13,-40
8850,-3,4,-7,-11,2,-5,-17,5
8855,-2,4,9,0,1,0,27,-10
8860,0,-1,34,6,3,2,12,-6
8865,-3,-7,-5,0,-2,-9,-38,18
8870,1,6,-1,3,-4,-1,8,-1
8875,8,-2,-17,21,4,8,-28,3
8880,-11,-3,-18,-59,-8,-13,-13,-23
8885,0,-3,-14,2,6,8,26,24
8890,-6,-5,23,0,-1,-6,-33,-23
8895,-1,-3,8,6,1,3,0,28
8900,-2,7,-3,8,-2,4,35,-9
8905,-3,-1,-11,1,-1,-13,-45,-6
8910,5,3,-4,-7,-1,3,12,14
8915,-7,-2,-4,5,9,4,8,-23
8920,-1,0,7,-15,-5,-2,-19,-3
8925,2,-6,1,-5,-1,4,24,20
8930,-3,-5,0,4,-2,-4,14,4
8935,2,-2,-25,0,-4,-4,-4,-5
8940,-2,-1,7,1,3,4,6,12
8945,-1,3,25,10,17,6,2,-34
8950,0,-3,-11,-5,1,-2,5,11
8955,1,-3,0,-9,-6,-4,-28,-12
8960,3,0,-10,13,-5,-3,-2,6
8965,-5,0,1,-20,-10,5,24,16
8970,-4,-4,-3,8,-1,-11,-87,-16
8975,-9,-7,22,27,-1,-2,50,-39
8980,4,3,-13,-7,-1,-2,-5,12
8985,-2,-3,15,-17,1,2,34,14
8990,8,9,3,8,1,3,1,1
8995,-1,-6,-19,-26,-4,1,-6,18
9000,-8,0,29,9,-6,-21,-48,-44
9005,2,-3,-8,4,-8,2,-12,5
9010,-5,3,14,-1,13,8,46,-8
9015,3,1,2,-3,2,-7,-21,9
9020,-2,-3,-10,8,-3,8,18,-5
9025,-1,-4,-44,-7,-2,-4,-10,27
9030,-4,-5,24,-6,-2,0,-3,-7
9035,-4,0,5,-5,1,2,-8,-47
9040,4,0,-10,3,3,5,55,23
9045,-2,0,-8,38,-4,-2,-53,-22
9050,2,-8,-23,-40,-8,-6,-37,21
9055,-5,-2,-17,-14,-7,-1,2,17
9060,5,-4,20,29,1,-5,3,-10
9065,-5,16,12,1,9,6,-23,-19
9070,-3,-5,-7,9,-2,7,78,2
9075,-4,-9,-13,-11,2,4,34,13
9080,6,3,-8,-7,-1,4,7,24
9085,7,0,15,0,-3,-13,-6,7
9090,-7,-2,-9,7,-4,-4,-38,-51
9095,-1,3,8,7,-2,-4,3,1
9100,-5,0,-7,-1,-8,-4,-44,-19
9105,-3,-5,6,-1,6,4,18,0
9110,-3,-4,-8,-3,-3,-6,0,12
9115,7,5,7,5,-5,4,26,27
9120,-4,-5,-11,-2,6,6,7,-20
9125,-5,2,5,-8,-10,-18,-70,-28
9130,4,4,-15,1,1,9,49,39
9135,0,-2,20,20,7,-3,-40,-16
9140,1,-5,-16,-52,-5,3,-28,2
9145,1,2,20,2,1,-12,4,20
9150,-4,8,-5,2,-2,4,17,-12
9155,0,0,-6,-1,8,-3,-13,-8
9160,0,-4,-29,4,-4,-2,-5,1
9165,-3,-7,18,4,-3,-1,29,12
9170,6,2,13,3,-7,-5,2,-5
9175,-4,-2,-11,-11,7,2,-71,-10
9180,-5,-3,-32,-1,-4,-7,-15,3
9185,5,-9,24,-4,1,2,35,22
9190,4,8,-3,20,-2,1,-9,0
9195,-9,-5,2,-6,0,2,39,-49
9200,3,1,-8,31,0,-1,-22,7
9205,1,0,14,0,0,10,-14,9
9210,-3,-6,-4,5,-1,-5,21,1
9215,-1,1,12,-6,-8,-7,7,-9
9220,-3,0,12,6,2,4,16,3
9225,0,3,-16,2,0,4,-4,-1
9230,-2,-7,2,-3,-4,-12,-37,-6
9235,2,1,-1,5,-4,0,-37,-2
9240,-1,-1,-4,0,10,-5,32,13
9245,-6,-3,-5,-6,1,0,-1,-46
9250,1,-3,-6,-9,-2,7,33,22
9255,5,-5,-19,-22,-5,0,-12,8
9260,-2,3,10,0,2,-2,12,15
9265,-2,-8,-7,1,5,-2,-8,-11
9270,0,15,-14,-5,-1,0,5,-7
9275,3,-1,27,17,-6,1,32,28
9280,3,6,16,14,6,-8,-25,-8
9285,1,3,-14,-31,-3,5,6,-3
9290,-4,-9,-8,-2,1,-5,-40,-1
9295,-4,-2,-9,-7,-5,8,67,0
9300,2,1,12,1,-2,-2,-12,-10
9305,2,-2,-20,5,-3,0,22,8
9310,3,-1,12,8,3,-8,-35,-7
9315,-6,1,6,-6,-7,-9,-37,8
9320,-3,-6,-8,-21,-6,-10,-19,-18
9325,3,2,-12,13,-4,6,35,11
9330,2,1,21,-13,4,14,35,29
9335,-7,-2,-1,12,-4,-7,-42,-64
9340,-4,-8,1,-6,3,8,13,1
9345,1,1,-44,0,-7,-2,26,32
9350,3,8,28,18,1,-6,-32,0
9355,3,-1,22,-17,1,8,38,22
9360,-3,4,-11,-2,-6,-10,-44,-30
9365,-2,7,42,0,6,-1,-23,-26
9370,-3,-8,-30,-8,-3,3,33,4
9375,-2,-9,-28,-3,1,1,17,30
9380,-3,9,30,1,-4,-11,-49,-35
9385,2,-3,-19,-2,-5,4,38,29
9390,-8,-3,8,-12,8,-1,11,-33
9395,6,3,2,9,0,-2,-5,14
9400,-3,-2,-12,-4,2,8,15,29
9405,-1,-6,7,6,-6,-8,-24,-10
9410,0,5,-1,0,0,6,15,6
9415,-3,-8,-40,-15,1,-6,-2,-5
9420,3,6,8,8,3,6,15,10
9425,-4,1,38,27,-5,0,14,-32
9430,0,-9,-6,1,-5,-10,-95,-5
9435,-3,1,-13,-4,1,1,-9,0
9440,3,-2,-6,-8,-7,2,36,26
9445,0,1,-9,2,4,-1,-19,-14
9450,0,-8,-12,-5,-6,-5,4,13
9455,-5,8,20,6,4,-4,-27,-24
9460,1,-1,1,8,1,3,24,12
9465,0,-2,0,9,2,3,-12,9
9470,-4,-3,1,-8,-5,-2,6,-3
9475,2,-5,-6,-1,5,0,-7,-4
9480,1,11,1,-6,0,2,38,18
9485,-3,-7,10,-6,-4,-12,-33,-24
9490,-1,0,1,14,-1,8,2,-22
9495,-2,3,8,-8,4,0,-4,13
9500,-1,-7,-9,-4,-1,3,19,7
9505,1,2,-34,-64,-7,-10,-55,-12
9510,8,3,21,3,1,6,37,6
9515,-2,-2,-2,6,-6,-5,22,14
9520,1,-3,28,7,6,-4,-31,-12
9525,-7,1,-15,2,-3,-1,-5,8
9530,2,-5,-1,-1,0,2,23,1
9535,1,1,-7,1,0,-2,-6,1
9540,-4,-8,-15,-11,-7,-2,18,-15
9545,-5,-5,-3,-10,-5,-7,-25,-21
9550,-1,13,4,-8,-2,-3,9,10
9555,0,-2,6,15,9,3,-7,-13
9560,2,-2,0,-2,-3,0,-2,1
9565,3,-7,-9,3,2,8,66,12
9570,-1,1,14,3,6,6,-21,8
9575,4,4,1,4,-2,4,2,5
9580,-3,-2,3,-10,-10,-19,-66,-17
9585,3,-5,-27,17,-2,4,7,46
9590,-8,1,3,-10,1,-10,-8,-54
9595,-1,-7,3,-1,-4,-4,-9,1
9600,0,9,10,7,9,18,29,-19
9605,7,5,-8,0,-1,1,48,48
9610,-5,-22,-14,-5,-9,-13,-31,-13
9615,-3,14,8,22,2,0,-21,-12
9620,-7,3,-3,-25,-9,-6,36,17
9625,2,-1,5,-5,3,2,-32,15
9630,0,6,-2,-3,-4,3,41,-4
9635,1,-10,-6,-7,-3,-3,-13,-9
9640,4,-1,2,9,4,-1,-15,41
9645,-9,3,12,4,0,2,26,-76
9650,-1,-3,-7,-3,2,2,-3,14
9655,-9,-10,-10,-9,-11,-13,-35,-20
9660,4,8,2,1,0,1,19,19
9665,4,-2,-11,22,5,1,-27,-7
9670,-4,-5,5,-28,1,-6,-1,8
9675,3,8,6,-3,-11,1,18,42
9680,-5,-11,-24,2,-4,-4,-12,-64
9685,-1,6,9,7,1,-7,-13,2
9690,-4,-16,-7,21,8,4,-14,-18
9695,8,29,40,3,3,13,57,25
9700,-4,-11,-11,2,0,-7,-48,-11
9705,-3,-2,6,1,-6,-3,-15,9
9710,3,0,-22,1,-8,5,43,15
9715,-1,-8,-14,-13,-3,-4,12,8
9720,0,0,22,23,5,-1,-23,-32
9725,-2,10,20,23,3,1,3,-14
9730,-3,-3,0,-10,-1,1,5,37
9735,3,-8,-33,-3,2,1,-9,-26
9740,1,15,19,-10,-6,3,31,2
9745,-2,-11,-5,16,3,1,21,21
9750,-1,3,-10,-42,5,5,-31,-13
9755,-5,-7,-1,2,-4,-10,-12,-3
9760,2,-2,-27,-2,-1,6,13,42
9765,-2,3,12,-16,3,-12,-1,-37
9770,3,5,-4,28,-4,-3,-10,-4
9775,5,-7,3,-9,6,6,43,44
9780,0,7,6,1,1,-6,-48,-58
9785,-8,-13,-46,-23,-12,8,32,24
9790,-2,-7,11,22,0,-5,1,-9
9795,-3,6,9,-20,0,-9,-43,-20
9800,2,-6,-3,-4,-2,-2,18,11
9805,6,5,16,10,-5,7,32,24
9810,-3,-5,-6,-10,6,2,-18,4
9815,2,-3,-22,12,0,0,23,-4
9820,-3,-5,3,-18,8,6,18,8
9825,1,-1,-34,-31,-13,-7,-20,-12
9830,-1,10,43,28,0,3,-12,-1
9835,-7,-13,-16,-8,-7,-1,-14,12
9840,1,9,-22,8,-4,-3,-3,-30
9845,5,2,40,8,9,-3,-27,7
9850,-2,0,-25,-15,-12,-4,22,-5
9855,-7,-1,3,2,-4,-2,3,4
9860,1,-8,-6,8,-7,-4,-16,7
9865,1,-4,-5,2,5,1,1,8
9870,-3,-3,-28,4,-3,-13,-20,-30
9875,5,14,37,13,6,5,22,41
9880,-1,-3,-6,-13,5,7,8,-37
9885,-3,9,9,0,1,-2,3,-3
9890,1,-2,11,4,2,5,-6,18
9895,-8,-8,-2,1,-12,-7,32,-7
9900,0,-2,2,-2,-10,-6,-28,28
9905,-2,-8,-10,-12,14,1,24,-4
9910,7,13,7,11,-1,5,2,-3
9915,-8,-4,-5,-3,5,-6,-24,-36
9920,-2,-4,8,14,-9,6,-3,26
9925,-6,-6,-15,-56,-4,-5,29,-29
9930,-5,-13,4,-10,-7,-6,-7,26
9935,5,15,-1,2,3,1,-16,-12
9940,-2,-6,-6,0,4,-7,15,11
9945,-1,1,2,23,1,0,-42,2
9950,8,11,-7,-25,-1,-3,-41,25
9955,-3,-15,-24,-13,-1,11,56,-46
9960,-1,9,27,31,4,-2,-39,-15
9965,-3,-7,-22,-2,-5,-5,20,7
9970,2,3,9,18,5,9,46,18
9975,4,4,13,-3,3,3,-16,11
9980,-3,-10,-21,-7,-6,-7,-3,2
9985,-5,1,-12,4,-1,-7,4,-10
9990,5,1,25,11,-3,2,24,7
9995,2,-4,-6,4,0,-2,-38,5
10000,6,-1,-1,-6,0,16,32,16
10005,-10,-6,0,-8,5,-14,-51,-43
10010,-9,1,4,13,4,-5,-23,-20
10015,2,1,15,0,1,0,13,-16
10020,9,5,6,-1,2,7,48,57
10025,-3,-2,-11,-1,-12,-6,-39,-17
10030,-6,-20,-62,-7,-4,4,47,40
10035,-2,16,67,21,9,0,-1,-29
10040,-9,0,3,-6,-12,-18,-32,-26
10045,8,1,12,7,3,12,42,26
10050,-3,5,-7,-8,-3,-10,-30,-31
10055,2,-10,-25,-2,0,4,31,30
10060,-4,-10,-11,-10,-1,3,0,-9
10065,-2,9,13,36,-10,-1,4,13
10070,-3,-7,5,-30,3,-1,-13,-20
10075,-4,1,-9,-2,-2,-4,-14,-2
10080,4,-13,-34,4,3,1,2,17
10085,-2,-4,32,-10,-4,-2,-65,-1
10090,-4,17,27,22,8,-4,10,-28
10095,-2,-1,-7,-2,-13,-5,20,-22
10100,-4,-10,-22,-16,-2,-7,-24,31
10105,3,-14,14,-7,-1,14,80,-6
10110,-1,10,-29,8,-16,-16,-46,15
10115,-10,-5,-3,-15,14,-9,-56,-21
10120,6,11,39,24,3,2,-9,1
10125,0,-4,-18,-53,3,-2,12,10
10130,-5,-5,25,-5,-14,1,12,-22
10135,1,-11,-32,5,-4,1,-22,-5
10140,3,10,-4,-11,-1,-1,-17,18
10145,2,2,18,26,9,15,76,38
10150,-6,-15,-20,-7,-3,-14,-87,-60
10155,2,5,16,-13,-4,0,10,26
10160,-7,3,10,-1,2,-5,5,-36
10165,1,2,-19,5,-3,-2,-17,-13
10170,5,-3,11,7,-1,5,29,20
10175,-3,-7,-7,9,-2,3,-10,-18
10180,-9,-4,0,-11,-3,-3,-1,-19
10185,-2,-7,-13,7,0,-8,-47,-13
10190,5,12,-8,-14,-7,16,83,63
10195,3,-10,-4,4,3,2,-2,-3
10200,6,24,19,3,13,4,-9,8
10205,-8,0,-2,-6,-4,-8,-63,-20
10210,-5,-14,-22,0,3,-4,-40,-29
10215,2,18,38,32,-11,-9,27,12
10220,-1,-13,-18,-36,2,3,39,-2
10225,-4,4,12,14,-2,-5,-19,-47
10230,3,4,7,-8,9,2,35,23
10235,7,0,-18,4,-3,6,-44,12
10240,2,-1,2,17,-3,-11,-48,27
10245,-10,2,11,-14,-7,-10,-20,-46
10250,-2,-17,-14,3,4,1,47,7
10255,2,12,-17,-8,1,1,-11,5
10260,1,-6,18,2,-7,5,9,2
10265,1,8,13,0,11,2,22,4
10270,1,-7,-18,1,1,4,32,14
10275,1,-13,7,-13,-1,-3,-22,26
10280,-9,5,-7,-6,-4,1,47,-48
10285,7,1,-4,9,-2,-10,-36,24
10290,1,7,5,-7,-3,7,-5,-5
10295,-5,-4,0,-5,1,-6,15,3
10300,-3,-9,-3,5,-1,6,32,2
10305,2,-3,-2,2,2,9,-37,-12
10310,9,11,15,2,1,3,54,34
10315,-1,-1,-5,-8,-4,-2,-3,-9
10320,-9,-11,-4,2,0,0,-38,-9
10325,2,13,12,2,0,1,2,-3
10330,5,3,7,-2,4,4,-33,-7
10335,-10,-15,-25,-5,-5,-10,10,-11
10340,0,3,10,10,2,-4,-11,-11
10345,6,8,13,0,-1,7,27,39
10350,5,22,16,4,0,-4,-57,7
10355,-10,-9,-9,-1,-1,2,16,-53
10360,-1,1,-7,-7,-3,-6,-15,5
10365,5,-5,-4,6,-1,-2,21,20
10370,-4,-6,-7,4,2,-1,-32,-24
10375,3,2,2,-7,-2,-2,1,15
10380,0,-1,-4,4,-1,6,10,17
10385,5,5,-20,-2,-1,0,20,16
10390,-13,-3,40,-6,-4,-17,-61,-46
10395,-9,-20,-38,-6,-3,-4,2,-4
10400,1,13,24,1,3,9,15,27
10405,-1,-8,-6,0,0,3,38,-2
10410,9,-11,-29,-9,-4,-3,7,23
10415,3,12,31,12,7,17,45,6
10420,-8,0,-10,-10,-10,-13,-86,-56
10425,-6,-11,-11,2,-6,-5,-18,9
10430,3,1,2,-9,0,-1,34,10
10435,-7,-4,-6,0,0,-3,-5,11
10440,1,-23,-22,-6,2,12,66,18
10445,2,32,58,8,0,-4,-46,-17
10450,3,5,-3,3,-1,-2,5,-18
10455,7,9,21,0,3,0,-47,0
10460,-17,-25,-27,-11,-6,-5,39,-7
10465,0,-18,-27,-10,-1,12,32,10
10470,2,2,-18,4,-8,-10,-47,3
10475,2,12,-1,-2,6,-4,32,1
10480,2,-11,-25,17,8,6,-5,-20
10485,-1,-2,15,-22,0,0,-3,45
10490,-9,5,43,6,1,0,35,-35
10495,1,2,-27,0,-7,2,-7,17
10500,-1,8,15,21,2,-4,-20,-15
10505,2,-17,-31,-2,-5,-5,44,52
10510,-9,-4,-8,-8,2,-4,-31,-30
10515,-4,-9,15,-5,-4,-4,-6,-32
10520,7,13,-6,-6,-3,-4,26,16
10525,-2,10,0,8,4,-2,-31,-44
10530,-2,-21,-6,-1,-7,-11,-5,43
10535,-3,11,2,1,0,9,29,-31
10540,-4,-5,12,-7,-4,-8,-62,11
10545,-13,-5,-17,3,1,-2,-32,-41
10550,-3,-1,33,-2,2,5,13,2
10555,8,-7,-6,-6,-3,-18,-34,41
10560,8,25,38,9,12,9,32,-60
10565,-4,-11,-12,-5,-5,-4,44,71
10570,2,-6,-19,-2,2,14,25,-32
10575,-9,4,25,0,-3,-6,-14,11
10580,7,6,-3,-5,-2,-6,-7,23
10585,13,-2,4,7,6,11,-47,-22
10590,-23,-21,-34,-4,-4,-11,23,-19
10595,10,25,8,1,2,11,19,23
10600,14,14,41,1,-6,-16,-39,4
10605,8,-3,0,-2,0,7,30,37
10610,-9,-9,-15,3,-1,-5,-14,-46
10615,-8,-11,-10,0,1,1,-15,-45
10620,-3,-9,-1,-5,-3,-9,-6,10
10625,-1,7,17,3,1,8,24,20
10630,10,-6,-28,-4,-2,8,44,45
10635,-3,0,10,0,-3,-3,7,7
10640,3,5,16,3,0,-1,8,-6
10645,-3,-3,-2,-4,-7,-5,-32,-19
10650,9,16,53,19,13,15,24,8
10655,-5,-14,-21,-27,-4,-16,-68,-23
10660,-3,-5,-15,-6,-4,-2,47,4
10665,-5,-5,-10,3,2,-4,-29,-13
10670,4,-5,-9,19,-6,3,26,22
10675,10,25,26,8,5,10,-9,1
10680,-5,-12,-15,-3,1,9,7,13
10685,-5,3,-2,-6,-2,-10,6,-26
10690,-7,8,3,4,-2,-16,-32,-34
10695,-2,-15,-14,0,-3,-4,2,20
10700,-11,-37,-60,-12,1,10,3,-2
10705,3,37,59,21,2,-2,13,5
10710,18,17,0,-6,-1,-5,-32,12
10715,-4,-6,-11,1,2,4,18,11
10720,12,3,-13,0,3,3,19,36
10725,-17,-21,2,-8,-8,-8,1,-52
10730,-8,-6,-10,-7,-1,-8,-14,23
10735,7,6,0,2,-1,0,18,17
10740,3,6,9,3,0,0,9,9
10745,-5,-11,-18,0,7,-7,-31,-28
10750,2,7,2,-8,-1,3,-17,-3
10755,-5,-8,-7,7,-2,-2,25,-26
10760,-6,1,4,1,-3,-4,-17,32
10765,-3,-5,-11,16,-2,-1,-27,-39
10770,7,1,-1,-16,-1,11,13,26
10775,-8,3,-1,1,-7,-21,-19,-22
10780,-5,0,7,-4,-1,0,-3,-8
10785,6,8,4,6,3,4,21,9
10790,0,-26,-51,-3,2,8,1,37
10795,6,26,37,9,4,7,-6,-32
10800,-7,-2,-16,-4,-3,-9,-22,-29
10805,1,8,38,14,10,-2,-25,-5
10810,0,7,3,-25,-1,6,73,43
10815,3,-16,-21,-11,-4,3,5,27
10820,-7,-2,1,2,-1,-8,-52,-31
10825,3,-4,-13,-7,-5,3,11,7
10830,-5,1,7,6,-5,-17,-42,-4
10835,-10,-16,-9,2,3,6,12,-62
10840,5,21,13,-2,-10,1,25,26
10845,3,-5,-14,-13,0,-2,0,7
10850,-3,1,-4,2,-1,0,-32,-36
10855,3,-10,6,4,2,7,72,92
10860,-9,6,21,36,-5,-12,-43,-49
10865,-6,0,-20,-53,-1,-2,5,-6
10870,-12,-4,-7,-5,3,-8,-10,-45
10875,3,-3,2,5,3,0,-25,6
10880,2,-4,-33,2,2,3,37,7
10885,11,6,48,16,0,8,-11,23
10890,-7,-5,-5,1,-3,-1,-24,-34
10895,-1,-6,-15,-11,-8,0,11,38
10900,1,4,28,-6,5,5,18,-5
10905,-6,-14,-38,-7,-10,-9,-32,-4
10910,1,1,10,4,5,2,-24,-18
10915,7,3,2,-1,-9,1,-30,-8
10920,-1,-10,-12,-6,-5,0,34,36
10925,2,6,-4,20,9,4,59,-13
10930,-2,3,23,-3,-1,-2,-1,-19
10935,-5,0,-12,-1,-3,-3,-55,4
10940,-4,0,17,-9,-2,-5,-13,-15
10945,4,-6,-11,5,-2,4,38,14
10950,1,2,-4,7,-4,-2,-29,-5
10955,1,2,-2,-6,2,1,9,18
10960,1,-7,-13,-7,2,4,8,-24
10965,-7,-7,-5,-3,-4,-8,-48,-14
10970,-2,-9,-18,-2,-2,3,46,27
10975,3,-3,16,0,-1,-7,-8,22
10980,7,11,-12,-19,-4,4,9,-32
10985,-6,4,4,-7,-5,-10,-10,-2
10990,0,2,-3,-4,-5,-4,-20,-5
10995,-4,-9,-25,17,6,4,2,-13
11000,-9,-15,0,5,-6,0,15,2
11005,5,-1,-5,-20,4,3,-3,20
11010,7,13,-4,-2,-3,5,36,2
11015,-4,-8,-2,3,-3,-8,-13,7
11020,-2,-8,0,-1,-16,-8,-42,-5
11025,-4,17,22,3,9,3,-2,1
11030,-4,-7,6,11,3,-10,-13,-26
11035,4,9,9,-8,3,6,-2,-13
11040,5,2,-3,-1,6,0,-45,11
11045,-10,-18,-26,-6,-20,-1,95,30
11050,6,-4,1,-17,-5,7,1,12
11055,-7,-2,-14,3,8,-4,-14,-25
11060,-1,5,-11,-19,0,-3,-4,7
11065,5,7,15,8,1,3,7,-12
11070,2,9,5,10,4,-3,-17,6
11075,-2,-20,-28,-17,-10,2,2,-12
11080,-5,-8,3,8,6,-15,-10,-5
11085,-4,17,29,33,0,3,-11,-8
11090,-4,-7,-5,-12,5,11,21,7
11095,5,9,4,7,4,-1,3,13
11100,-6,-11,0,0,1,-14,-6,-39
11105,2,-4,-12,-3,-2,-1,-51,-15
11110,-4,-1,-1,3,-7,2,29,9
11115,0,-2,5,-5,0,-4,3,10
11120,8,8,5,8,6,8,55,43
11125,-8,-12,-19,-6,-9,-7,-42,-39
11130,2,6,9,-1,7,5,-16,-3
11135,-1,2,-2,-5,-4,-9,7,-2
11140,-4,1,1,1,-3,-6,-30,-15
11145,3,-3,-9,-5,0,-2,-20,24
11150,4,-8,-17,16,8,3,46,18
11155,-10,15,39,-13,-2,-1,27,-17
11160,0,1,-4,-7,-1,5,-34,0
11165,-2,-2,11,0,-1,-8,-9,-12
11170,2,-7,-5,9,-2,1,2,7
11175,0,-2,-10,5,2,4,-9,-19
11180,0,14,21,7,-8,3,23,26
11185,-1,-9,-42,-2,12,-3,13,-22
11190,4,8,18,-17,3,7,-6,15
11195,-6,-2,0,-2,-6,-11,-2,-11
11200,5,3,1,-6,5,4,-34,35
11205,-4,-12,-28,5,-18,6,60,-22
11210,-13,-21,1,-6,1,-6,12,-24
11215,9,30,43,-24,2,4,-25,1
11220,1,-3,5,6,3,0,3,8
11225,0,-2,12,-8,-4,-9,-18,4
11230,8,19,-12,4,-1,3,18,30
11235,-5,-8,-12,1,-6,1,-33,-55
11240,-3,-5,-5,2,8,-7,-15,-13
11245,3,2,7,-12,3,3,30,29
11250,-4,-6,5,-4,-6,-5,-15,-4
11255,5,-3,-11,12,1,4,-9,13
11260,10,12,0,8,4,14,62,62
11265,-19,-15,-1,-23,-5,-14,-12,-88
11270,-8,-2,-15,-4,-6,-13,-30,-12
11275,1,6,16,10,3,6,20,3
11280,-4,-18,-46,-28,-13,1,15,-9
11285,15,18,40,13,6,17,4,56
11290,-7,0,-18,14,0,-14,-2,-30
11295,4,-5,0,-4,5,9,17,31
11300,-5,8,2,-3,-1,-5,-9,-16
11305,9,4,-7,18,1,4,22,35
11310,-13,-6,8,-8,-10,-7,-61,-55
11315,-3,-9,-56,0,-6,1,24,-1
11320,4,1,19,1,2,1,-11,27
11325,1,-2,-4,-4,-15,-3,10,-4
11330,6,3,12,3,11,-6,17,44
11335,-7,-12,-17,15,10,-7,-19,-35
11340,-13,1,13,-21,-8,-6,-15,-15
11345,5,4,-10,2,13,12,36,-2
11350,-1,-11,-2,-10,-11,-6,-59,-19
11355,3,13,20,3,13,-3,19,-10
11360,3,-12,-14,7,7,3,30,8
11365,-2,2,-2,-4,1,-6,-22,30
11370,-2,1,0,-1,-9,5,1,-31
11375,5,-5,-9,-6,-6,-5,-11,27
11380,-6,-9,4,9,4,0,-12,-21
11385,-2,-11,-33,-6,3,3,25,23
11390,2,4,-14,0,4,-10,16,-46
11395,-12,-3,12,1,-11,-8,-43,-17
11400,5,11,17,3,-3,2,21,1
11405,-2,-7,-5,-5,-7,-3,-11,29
11410,-4,-8,-15,-36,-3,4,-3,-11
11415,4,8,16,-1,-9,-5,33,20
11420,2,-7,-16,5,-3,5,10,-10
11425,3,1,-16,-28,6,1,0,-43
11430,-9,7,17,13,-8,-6,-16,43
11435,6,-2,8,-6,14,6,50,13
11440,-1,-2,2,-7,-2,-2,-33,-10
11445,-2,3,8,11,3,-10,-34,1
11450,7,-5,-24,7,2,4,19,38
11455,0,4,17,0,-6,-2,-36,-16
11460,-4,-2,2,-5,-7,3,27,-33
11465,-7,-7,-17,-14,-10,-15,-7,-9
11470,5,9,30,16,2,9,21,21
11475,-2,-11,-5,28,12,-7,-41,22
11480,-7,-10,-26,-5,-11,1,11,-6
11485,-11,16,28,13,41,-7,-54,-81
11490,5,-2,0,-14,-24,8,30,14
11495,-1,-13,-16,-8,-22,-7,12,15
11500,-1,2,11,5,6,-1,-32,0
11505,4,-14,-41,-7,-4,4,10,29
11510,5,15,32,26,15,4,-5,2
11515,-4,-5,-2,-9,1,4,12,-21
11520,-11,-3,-4,-5,-14,-20,-24,-20
11525,-7,-2,11,2,-9,5,12,-4
11530,2,-5,2,-3,13,-4,-19,-5
11535,10,-3,-20,2,-2,11,38,46
11540,-8,-4,-11,9,7,-7,-40,-62
11545,8,13,38,1,-2,12,6,29
11550,-3,-6,-17,-8,-5,-15,-29,17
11555,-11,-6,13,7,-22,-6,11,-26
11560,-2,19,-1,-6,13,0,-8,-21
11565,8,-5,-4,7,1,4,22,49
11570,-1,-15,10,-7,-7,-5,-36,-28
11575,8,24,-7,-5,-4,-2,22,12
11580,-2,-2,9,24,19,-2,3,-26
11585,0,-2,13,-9,-57,-6,-16,22
11590,-8,-4,-19,-5,13,7,38,27
11595,1,-13,-6,1,2,4,-37,-7
11600,4,6,18,2,-11,4,46,37
11605,1,-1,-7,5,6,-3,-13,10
11610,-3,-1,-13,16,4,6,14,-54
11615,-10,12,-1,-19,-3,-8,-23,-22
11620,0,-5,21,9,12,-5,-31,26
11625,12,4,10,15,15,17,22,-10
11630,-9,-10,-31,-28,-21,-20,-22,25
11635,-5,-8,32,-6,9,-2,-31,8
11640,11,2,11,-3,-18,14,89,14
11645,-8,1,-7,27,36,-16,-96,-35
11650,-3,-6,-7,-36,7,8,34,-35
11655,-13,4,12,-1,9,4,-1,-41
11660,0,-6,-12,1,-10,-10,8,30
11665,2,-4,-12,-1,-10,1,15,-10
11670,0,11,14,11,4,4,-20,-9
11675,4,-3,-13,0,3,-7,-7,34
11680,1,-4,11,-6,-4,11,24,5
11685,-10,-16,-19,-25,-6,-17,-59,-45
11690,1,7,11,8,-4,4,51,35
11695,-3,-7,3,-1,-2,7,-30,-39
11700,-8,-3,-30,-10,0,-7,-2,4
11705,15,12,2,3,-43,2,-8,107
11710,-22,-18,-16,-24,-12,-20,-28,-87
11715,14,4,20,-2,4,7,-41,72
11720,-3,5,-3,0,8,-3,-3,-26
11725,0,-12,-31,1,8,1,4,31
11730,9,13,43,20,-4,-2,-12,3
11735,2,-1,-20,-18,4,9,79,-26
11740,-1,-11,-21,-20,-13,-13,-98,8
11745,-9,-9,28,7,8,2,74,-29
11750,20,22,5,17,8,17,10,109
11755,-15,-21,-42,-40,-22,-2,-16,-115
11760,7,17,60,21,25,12,32,26
11765,-5,-9,-12,-34,11,-7,51,6
11770,-4,-13,-1,-4,-1,-8,-68,-17
11775,1,1,-10,21,0,5,34,69
11780,11,-9,-34,-12,0,20,11,-33
11785,-5,20,5,1,-16,-6,-11,31
11790,-4,11,48,15,8,-3,5,-71
11795,6,-7,-22,0,3,-5,-3,71
11800,-6,10,8,-4,-3,1,23,-52
11805,-8,-14,-13,2,1,-2,9,6
11810,-8,-14,-25,8,-5,-8,-38,-14
11815,5,13,32,5,18,0,-25,24
11820,-7,-13,-5,-36,-30,4,45,-6
11825,-1,10,34,17,23,-7,-115,-95
11830,-6,-11,-40,-35,-21,-14,53,66
11835,2,6,15,4,-11,-3,-9,17
11840,8,-5,-3,24,18,-1,6,107
11845,-7,1,3,0,-14,7,28,-92
11850,7,-15,-17,-12,2,13,33,31
11855,4,15,22,19,22,-7,30,66
11860,-9,-3,-31,-10,-10,-11,-64,-101
11865,3,-9,0,3,6,6,43,54
11870,3,3,12,7,6,-3,-45,9
11875,-13,-8,-10,-3,-8,11,40,-47
11880,6,10,13,7,1,3,-23,-30
11885,9,1,-15,-9,-3,-5,22,55
11890,-7,-1,1,20,26,19,57,-38
11895,-3,4,-30,-5,-16,-11,-52,-12
11900,-1,-4,19,0,-17,-8,-52,-36
11905,-5,0,0,9,-13,-9,28,42
11910,5,8,-15,-18,36,19,106,-5
11915,0,-12,-22,20,-4,-25,-87,-25
11920,-4,-7,24,-30,13,3,0,45
11925,-4,8,23,-5,-11,6,-15,-72
11930,2,1,6,24,-1,-7,-23,61
11935,-3,-29,-38,-14,-10,5,49,-38
11940,-6,20,27,10,0,-12,9,31
11945,4,-6,-12,-4,-11,-7,-55,28
11950,-7,0,4,-11,-1,-3,-66,-41
11955,2,2,13,13,-6,10,97,52
11960,-2,-14,-45,-20,-5,-10,-46,-40
11965,0,8,10,14,4,-7,24,4
11970,0,-4,-7,-18,-14,-3,-40,-15
11975,-10,-6,6,-2,4,-6,-33,-24
11980,9,12,-15,6,22,1,-5,44
11985,-21,-2,32,-19,-56,-3,61,-36
11990,2,-7,14,-16,-6,-6,-60,4
11995,3,8,4,-3,15,4,4,-32
12000,3,-9,1,1,-6,-3,44,35
12005,0,-11,-37,-33,5,4,-18,29
12010,4,13,46,53,8,-7,0,19
12015,-5,0,12,-17,-13,4,15,-81
12020,-14,-1,-9,22,0,-5,-18,6
12025,-3,-6,-15,14,1,-5,15,12
12030,14,2,-30,-15,-1,29,78,36
12035,-6,-4,12,2,9,-12,-13,25
12040,-2,0,-8,19,-3,-2,-37,-3
12045,2,-2,-16,-22,21,11,20,-21
12050,-2,1,-3,-4,-10,-3,20,-11
12055,5,5,-21,5,-2,-5,-47,27
12060,0,3,60,-8,-9,2,28,-49
12065,2,4,11,19,14,6,-4,7
12070,-2,1,-5,24,0,-8,-13,-18
12075,0,-4,-12,-18,3,2,-29,36
12080,6,2,-7,-4,4,3,55,16
12085,-3,0,21,-8,0,-2,-49,-4
12090,0,10,24,8,2,-11,-11,18
12095,-1,3,23,13,-4,8,4,-59
12100,4,-13,-23,-19,-5,-5,-20,39
12105,-6,6,9,20,12,-6,-19,-45
12110,7,6,-11,2,1,9,39,18
12115,5,-8,-20,-35,-7,4,21,65
12120,-9,10,25,-11,-4,-4,25,-33
12125,10,-5,-28,2,-1,-5,21,59
12130,-7,-11,6,-11,-12,-7,-17,-43
12135,0,14,10,19,9,10,15,-4
12140,-8,-5,-21,6,-5,-13,-40,-22
12145,1,-5,-12,-7,5,7,12,9
12150,6,4,20,0,-1,6,-8,-3
12155,2,-10,-34,-9,-10,-16,50,53
12160,-1,14,29,15,-11,1,6,-26
12165,-5,-1,16,17,29,9,-43,-52
12170,-3,-6,-28,-10,-4,-5,14,20
12175,2,4,-7,7,-11,-5,-42,-25
12180,-2,-6,-6,17,15,10,45,9
12185,1,-4,-5,-72,-17,-16,10,23
12190,1,-5,-27,2,-6,1,-30,6
12195,-5,1,37,9,-5,-3,-10,-18
12200,-1,-6,-23,-3,-8,-2,2,32
12205,7,13,24,31,31,10,4,-21
12210,-5,-2,4,7,7,4,24,-29
12215,-7,-10,-12,-14,-13,-22,-44,-41
12220,-3,-9,-14,-1,7,15,53,80
12225,-1,-3,-11,9,-10,2,-23,-10
12230,-10,1,6,-10,-11,-22,-102,3
12235,7,0,-10,5,9,12,49,9
12240,9,8,24,-3,-3,1,17,-5
12245,-12,-5,1,5,0,-17,-38,-16
12250,-2,-2,-16,-2,-5,0,43,-50
12255,-4,3,4,25,-4,-2,-32,-13
12260,6,-3,-6,-14,5,7,-5,24
12265,2,-3,-37,-7,-6,4,13,13
12270,-1,-25,-8,-8,-14,0,14,6
12275,4,25,60,38,3,-5,-10,0
12280,-1,-9,-32,-13,14,-13,-30,-33
12285,-9,-10,-10,3,-9,-8,25,15
12290,2,-3,13,4,-4,-4,-74,-11
12295,0,-7,-23,-24,-3,7,50,31
12300,2,4,-8,1,-9,3,2,20
12305,11,1,14,-1,-1,2,3,16
12310,-9,-14,-48,-17,-1,-1,19,-29
12315,-2,18,23,4,-4,-7,-8,-17
12320,2,8,17,6,16,7,-36,-41
12325,-2,-1,-9,-40,0,5,60,36
12330,-5,-4,-5,-5,-9,-20,-32,21
12335,-7,-9,-14,-10,0,-4,28,-26
12340,3,-7,-22,3,-8,1,-16,9
12345,7,4,6,9,2,11,22,24
12350,2,12,14,1,7,9,-10,-3
12355,1,-17,-33,-26,1,4,57,-3
12360,-11,2,-1,13,-5,-21,-61,-47
12365,4,20,66,35,3,-1,-13,-27
12370,0,4,-10,-9,3,5,3,12
12375,1,-3,27,10,1,-4,-11,17
12380,1,-7,-25,-12,-2,16,31,21
12385,-1,-9,-36,0,-7,-11,-43,-8
12390,-6,3,17,-14,-8,3,52,4
12395,3,-12,-4,-33,22,15,46,-19
12400,-2,24,25,54,1,-8,-27,-7
12405,2,-5,-14,-43,13,3,-31,9
12410,-2,1,36,23,2,-8,18,18
12415,1,-12,-50,-17,-9,3,-4,19
12420,-9,-8,17,4,-3,-1,-4,-64
12425,-2,-2,-7,10,-3,0,-22,-25
12430,16,17,-8,11,9,24,72,60
12435,-6,0,7,4,5,-14,-35,6
12440,-11,-18,-54,-7,-19,-12,-31,-17
12445,1,2,20,7,-6,-7,15,-22
12450,-3,-4,-2,-8,-1,-7,-30,-15
12455,-3,6,9,15,-12,3,-40,-13
12460,7,1,4,-3,5,6,67,41
12465,-5,-9,-30,3,-4,2,-25,-12
12470,-5,0,33,10,7,-3,14,9
12475,4,7,-3,3,4,10,-7,-5
12480,2,-6,-1,-18,-9,-3,29,44
12485,0,1,-20,10,0,5,9,-5
12490,5,7,16,11,12,5,3,-32
12495,-13,-5,11,-2,-8,-11,-63,-23
12500,2,-7,0,-3,3,-2,-18,15
12505,3,4,1,0,-7,2,33,39
12510,1,-13,-18,-7,-2,-5,0,3
12515,-6,17,20,4,-4,-7,-46,-18
12520,0,-4,-8,-28,8,7,27,-10
12525,-7,-4,21,-1,-6,-6,-12,11
12530,4,-5,-38,-6,-8,4,10,-3
12535,0,-9,19,14,2,2,6,-8
12540,0,6,40,39,8,-10,-1,8
12545,-1,-1,-13,-4,1,5,28,-13
12550,2,6,6,-15,2,4,3,-4
12555,2,-4,-15,7,-1,-4,19,34
12560,-8,-3,-28,-14,-15,0,2,-8
12565,5,0,3,-2,11,3,-14,-9
12570,-4,3,-2,12,4,-4,-6,33
12575,-4,-8,3,8,-10,3,35,-2
12580,6,9,13,-18,13,3,-26,-2
12585,-7,-2,-2,-4,-8,-14,-16,-34
12590,-5,-2,-3,-11,-6,-2,-24,2
12595,4,-3,-15,-2,5,8,41,17
12600,1,-3,30,-11,-6,-2,-33,-34
12605,-1,8,-7,15,-2,5,16,29
12610,-4,5,14,3,1,-7,-25,-16
12615,2,-7,-3,-4,7,-5,6,38
12620,2,-5,-13,-2,-7,4,11,-27
12625,-6,4,4,16,-8,-9,-3,-22
12630,-2,-9,-48,-19,1,9,3,-12
12635,1,9,54,28,16,6,31,27
12640,-2,-4,-19,-2,10,-9,-62,-3
12645,-1,-9,6,-23,-2,3,-9,-4
12650,-4,-2,-29,0,-8,-8,-11,-22
12655,11,4,2,-10,-5,13,13,11
12660,-13,-8,-2,6,-5,-8,7,-27
12665,2,0,-3,0,8,9,57,54
12670,-1,2,25,8,-5,-4,-43,-42
12675,-11,-2,-22,-13,-3,-11,-26,-19
12680,6,4,13,-4,-3,0,8,46
12685,3,-1,-17,-10,0,-5,-54,-25
12690,-4,-5,2,-6,-9,-3,31,13
12695,-6,-3,-8,19,9,0,-28,-26
12700,1,6,-28,-11,-2,5,2,9
12705,1,-2,28,3,-1,0,0,-7
12710,6,2,4,12,8,2,16,21
12715,-1,-5,-15,-15,-4,1,-28,-4
12720,1,4,-5,-24,2,-1,12,1
12725,-2,-8,5,1,-2,2,-5,-7
12730,-1,11,10,8,4,4,15,15
12735,-4,-1,-8,-8,-7,-5,-25,-26
12740,2,-6,26,8,0,5,9,7
12745,2,11,-6,-1,-1,5,31,8
12750,-2,-5,30,1,11,-7,-3,-3
12755,-4,0,-3,-13,-4,-5,-15,-4
12760,-4,-3,-18,3,-1,3,56,-6
12765,-6,-2,25,13,0,-7,-72,-31
12770,2,-5,-23,0,-9,2,36,36
12775,9,1,-34,-12,-1,4,25,73
12780,0,12,48,-9,6,10,49,-19
12785,-15,-11,-33,16,-3,-11,-57,-79
12790,-1,1,-3,-37,-3,-6,-16,38
12795,-2,-1,18,6,-2,-1,-13,-24
12800,1,-5,-20,1,-6,-5,-13,24
12805,8,-1,-3,5,3,8,39,38
12810,1,9,8,11,-1,-2,-25,-46
12815,-1,5,17,-10,0,-3,-2,-40
12820,-5,-10,-12,2,6,-5,-14,18
12825,1,0,8,-5,-2,1,36,25
12830,-6,-8,-6,4,-3,-9,-6,-3
12835,0,-5,-12,-8,0,1,-11,-7
12840,4,0,-35,7,-6,1,-14,14
12845,6,14,18,2,6,9,5,-30
12850,3,3,-5,26,10,10,11,27
12855,-9,-4,12,6,-6,-13,-54,-51
12860,1,2,-4,-10,-6,-4,-14,38
12865,-4,-12,-15,-10,-8,0,35,5
12870,3,-1,-5,5,1,3,27,23
12875,4,5,2,9,3,1,34,-16
12880,1,-1,1,9,-3,13,-16,9
12885,-1,-4,11,-9,0,-17,13,27
12890,-7,4,2,1,-2,-1,-40,-98
12895,1,-8,-16,-11,-1,5,30,45
12900,-2,2,16,-12,-1,-9,-39,-42
12905,4,4,-8,-2,-7,9,36,27
12910,0,0,10,-9,2,0,-13,22
12915,4,0,-9,4,0,4,-4,-24
12920,-3,1,-20,5,3,-1,36,-10
12925,-4,1,26,-11,0,-4,23,14
12930,-5,-9,-18,-10,-7,-4,-15,-17
12935,9,6,17,-10,2,4,15,37
12940,-6,-10,-10,-13,-12,0,-11,16
12945,0,5,22,28,12,1,4,-26
12950,-3,-4,-6,-14,-8,-9,-35,18
12955,-6,3,10,4,1,-5,-12,-52
12960,-4,-6,-15,-2,-3,-7,-9,-19
12965,0,-4,-12,-3,-4,-1,-24,-33
12970,6,-2,8,5,-8,7,26,47
12975,2,-6,-24,-4,1,-1,23,35
12980,0,8,26,-1,-1,-2,38,-3
12985,-3,-1,-10,-7,3,-2,-43,-7
12990,-2,-1,10,8,2,-3,-12,-32
12995,-1,-1,-9,-3,-3,-6,-25,-3
13000,1,-7,-1,4,-3,0,3,27
13005,-1,0,-4,38,-5,-4,14,-8
13010,-1,-1,-22,-42,3,1,12,5
13015,-7,-5,-9,-12,-3,-3,4,-39
13020,3,5,21,14,9,-4,-8,-12
13025,0,-4,-14,1,-6,1,-9,47
13030,7,0,25,10,5,7,39,28
13035,-3,3,-7,-14,-20,1,6,14
13040,-2,2,14,4,12,-1,-26,-36
13045,1,-3,-17,-15,0,-2,23,-5
13050,-8,-7,0,10,-6,-8,4,-4
13055,-1,-3,-3,-5,7,-2,-30,-18
13060,-3,-3,-30,-7,-18,-7,-22,-1
13065,-3,0,51,55,19,-3,-42,27
13070,-5,-2,-8,-10,0,5,48,-74
13075,8,1,11,13,7,10,48,48
13080,-6,-7,-19,-12,-9,-9,-46,-11
13085,-1,-3,-34,-13,-10,1,-12,-8
13090,5,3,31,16,3,5,33,28
13095,-6,0,-13,-4,-3,-5,-34,-9
13100,0,4,22,13,2,1,-3,-14
13105,0,-1,-5,-12,2,3,13,9
13110,-2,-2,-2,-10,-6,-4,-34,-13
13115,2,-2,-8,-20,-1,0,-1,-6
13120,-4,-3,1,14,5,0,17,8
13125,2,-5,-37,-39,-14,-4,8,-5
13130,0,-3,-7,20,9,6,7,-1
13135,4,20,44,43,10,3,-13,1
13140,0,0,-4,-6,-6,-5,24,10
13145,3,1,0,-15,0,1,2,18
13150,-7,-5,-18,-6,-4,-7,-45,-36
13155,3,-9,-8,4,-3,6,47,51
13160,2,4,7,2,0,12,-42,-26
13165,-7,-8,-12,-14,-7,-11,2,11
13170,4,5,11,9,-3,-3,-2,29
13175,-6,2,7,3,3,-10,-56,-64
13180,7,0,-10,-3,5,2,-3,44
13185,1,-3,9,4,0,10,37,29
13190,-10,-4,-7,-3,3,-17,-61,-41
13195,-5,-7,-3,-17,-11,3,14,-7
13200,-4,2,4,4,9,2,8,-47
13205,4,-1,-10,-3,-1,2,3,7
13210,7,6,11,-28,-2,11,43,36
13215,-5,-2,-26,-1,-3,-6,-30,7
13220,-1,-5,19,0,-8,-7,-5,-5
13225,2,4,-2,14,1,2,-17,-21
13230,-4,-6,-11,-14,-4,-8,-3,0
13235,-2,-7,4,20,5,0,-6,-10
13240,2,9,9,5,5,1,37,32
13245,-6,-5,20,-14,-1,-5,-34,-15
13250,0,8,-11,5,-3,5,12,-3
13255,8,-3,6,-11,-7,0,29,45
13260,-9,-8,2,22,-1,-11,-62,-44
13265,-4,-7,-17,-5,0,9,39,-25
13270,-2,3,4,30,-5,-3,-71,-5
13275,0,2,8,-1,10,-3,6,-7
13280,2,-1,-7,-1,-5,6,47,38
13285,-4,1,-12,-7,-3,-4,-24,7
13290,-2,-9,9,8,0,4,33,16
13295,-3,1,16,2,-5,-14,-2,-38
13300,4,-2,-9,-9,2,2,23,16
13305,-6,6,5,-1,-1,-7,-50,-44
13310,9,-3,-23,-2,1,5,19,34
13315,2,2,15,-3,0,4,4,19
13320,-2,-2,-12,-14,-6,6,-6,-6
13325,-4,-2,17,7,0,-10,-1,-48
13330,5,4,13,0,3,-1,-30,1
13335,-10,-5,-24,1,-9,-6,-1,18
13340,-1,-3,6,-21,0,0,-12,-2
13345,7,5,-6,13,1,8,13,13
13350,-2,0,-24,-49,-8,2,42,-11
13355,-3,-8,15,3,1,-7,-24,-23
13360,1,2,9,10,11,7,41,34
13365,-1,-3,-3,8,-7,-4,-29,-3
13370,-1,-4,-14,6,2,-2,30,47
13375,-4,4,19,3,0,5,3,-46
13380,-3,-2,-6,-8,-7,-8,-35,-57
13385,6,-3,3,-13,0,-1,-11,46
13390,0,-9,-11,14,0,-5,28,4
13395,-7,18,21,-5,-2,1,12,10
13400,4,1,-3,3,3,4,-14,1
13405,-4,-1,-11,-6,1,-4,-12,-30
13410,-2,0,14,7,-1,5,-16,-4
13415,2,-6,-18,6,1,0,10,7
13420,13,1,-14,-6,-6,3,-4,51
13425,-12,0,23,5,8,-4,21,-59
13430,-5,-1,12,-5,1,-6,-32,-33
13435,-5,1,-5,2,3,-4,-12,-17
13440,0,-2,-2,0,-9,-6,6,46
13445,3,-3,-5,-5,4,1,14,30
13450,0,1,-2,7,-5,4,16,-31
13455,1,-5,0,22,-4,-4,-16,21
13460,-9,-7,-15,-43,3,-4,27,-8
13465,-2,-7,-8,-11,-11,-9,-46,-5
13470,2,9,4,15,0,-6,-21,-30
13475,10,0,-13,-12,-6,15,9,42
13480,-8,3,35,26,5,-13,-13,-44
13485,1,-3,-11,-14,-5,14,88,57
13490,-4,3,10,-2,2,-7,-35,3
13495,7,-2,-23,-7,-6,-6,-19,14
13500,-5,-4,-48,7,-6,-6,1,-38
13505,6,4,48,-5,1,-2,5,13
13510,-2,4,10,6,1,5,5,-18
13515,-6,-12,-14,-22,-17,-15,-32,5
13520,-1,2,0,-4,8,3,15,4
13525,-2,1,-19,9,2,4,-19,-22
13530,0,-6,0,-12,-6,-4,13,25
13535,-5,-4,3,3,4,2,42,-11
13540,3,5,16,15,1,0,-40,-25
13545,2,-2,-2,0,-2,2,13,48
13550,-5,-3,1,2,-9,-8,-35,-22
13555,2,7,-6,3,7,8,34,-11
13560,-2,-3,21,23,0,-1,13,4
13565,2,-1,-10,-21,1,-3,2,26
13570,-4,-2,-32,-7,2,3,-26,-61
13575,-4,-2,58,13,3,-5,10,18
13580,3,2,-4,9,-1,9,44,28
13585,3,6,4,2,-10,-1,-32,-20
13590,-2,-6,-13,-1,6,-12,-13,15
13595,2,3,-20,-9,-3,8,-23,-30
13600,0,1,16,10,8,3,14,7
13605,1,-1,3,9,-1,6,-2,-4
13610,1,-3,-8,11,4,-8,6,26
13615,-2,-6,-21,-11,3,1,24,45
13620,-7,-5,13,-10,-7,-3,-24,-78
13625,-2,-9,-34,-6,-4,-7,-21,-1
13630,5,13,19,41,0,11,15,18
13635,2,0,7,-5,7,-2,-8,-15
13640,5,-2,-32,-13,-4,4,16,24
13645,-7,-2,23,5,-2,-12,-25,6
13650,0,-3,-3,-12,-2,0,5,-24
13655,5,-1,-22,-3,2,2,16,30
13660,1,-4,18,6,-1,-1,24,10
13665,-1,11,9,8,12,4,-46,-29
13670,-6,-7,18,-8,-2,2,46,28
13675,-2,-4,-14,-7,-2,0,-24,-18
13680,4,-4,-13,-5,-7,1,11,17
13685,-2,1,-4,5,-3,-9,-20,-25
13690,1,-5,-4,-19,-4,-3,-23,1
13695,-8,-4,-7,-3,3,-1,50,-2
13700,3,4,9,1,-6,-1,-16,11
13705,0,-1,-1,-3,3,6,21,8
13710,3,0,0,-2,-1,-6,-38,-26
13715,4,3,11,8,0,2,2,26
13720,-4,-7,-16,-36,-4,0,-14,10
13725,-13,-6,-3,-7,-7,-18,-8,-35
13730,-3,-1,18,4,3,2,7,6
13735,1,4,-3,6,-3,2,-5,1
13740,0,4,0,1,10,0,-9,-6
13745,2,-2,-10,-5,-2,0,5,-3
13750,5,-4,-18,-13,-8,2,-4,16
13755,-3,-3,14,-9,6,0,25,-13
13760,-10,-4,-22,-23,-10,-14,-27,-28
13765,0,-4,-7,-1,-6,-5,-25,26
13770,-3,4,17,4,3,2,52,-29
13775,1,-4,-7,-1,1,1,-45,-20
13780,-3,-7,-36,-4,-12,3,9,13
13785,5,10,20,13,5,11,32,6
13790,0,-7,13,35,14,-6,-12,54
13795,-1,8,-8,4,-5,2,-3,-66
13800,-1,-1,21,-12,10,0,-12,29
13805,-3,5,-20,-18,-12,-3,5,-14
13810,-2,-5,-10,-6,-7,3,29,25
13815,-6,-4,-2,0,-3,-6,-28,-31
13820,3,6,12,14,1,-1,-20,12
13825,-2,-7,-24,2,3,3,17,-12
13830,3,4,22,-3,2,0,-37,11
13835,5,3,10,-16,-3,-7,12,12
13840,-9,-5,-18,-8,-3,-2,10,-26
13845,2,-7,-2,-4,-1,9,23,65
13850,-5,1,29,11,-1,2,24,-83
13855,-1,-3,-12,5,-6,-8,-4,35
13860,4,6,17,18,12,5,10,-3
13865,-2,-1,0,-5,-2,-3,-9,-30
13870,0,-2,-35,-18,-8,3,-12,20
13875,1,1,18,14,5,-6,-44,8
13880,1,-5,-2,-22,3,2,27,17
13885,-3,11,-14,-13,8,8,26,-21
13890,-3,-10,13,-15,-22,-6,-9,38
13895,1,8,0,7,17,4,10,-7
13900,2,1,-11,7,-8,4,4,-7
13905,-7,-7,10,5,-2,-6,-9,-38
13910,0,-2,-33,-16,6,-1,-39,11
13915,1,-6,-6,-5,-7,2,45,7
13920,-3,-2,8,9,-5,-8,-16,6
13925,6,3,3,1,0,0,-5,-19
13930,-2,0,-9,-2,1,4,6,-7
13935,-7,-7,-1,-2,-7,-11,9,4
13940,6,5,4,8,0,6,9,14
13945,-3,0,11,5,0,-4,-1,-2
13950,1,4,-10,7,5,-2,-4,-7
13955,0,-3,-4,-36,-5,6,9,16
13960,1,-1,4,-4,-6,-4,-24,-48
13965,-2,1,16,8,-4,-3,16,29
13970,-6,-6,3,-3,8,-1,-9,-3
13975,2,2,-6,8,7,-1,-10,20
13980,-4,-4,-1,-6,-1,-6,-6,-31
13985,1,-6,3,-6,4,4,11,12
13990,6,3,-14,-3,-3,3,21,16
13995,1,15,5,0,-8,0,-56,-74
14000,1,-4,2,4,5,4,16,49
14005,-2,-3,4,13,-5,-8,-25,1
14010,-10,-11,-27,-19,-6,-12,3,-26
14015,0,-7,14,10,2,3,8,9
14020,1,3,5,13,-3,-2,-32,24
14025,5,4,-32,-37,-7,10,9,-47
14030,1,1,23,19,3,4,38,11
14035,-4,-4,-4,15,2,3,10,25
14040,-7,2,29,1,3,-1,12,-14
14045,2,-4,-15,4,-2,-5,-8,35
14050,-2,3,12,-3,-5,-8,-39,-42
14055,5,1,-10,-11,-1,7,13,-6
14060,4,-3,-31,0,-6,3,-8,13
14065,-8,-6,17,3,6,-14,-46,-18
14070,-3,4,15,-6,-10,-6,16,-5
14075,9,0,-4,-8,12,6,21,12
14080,-9,-8,-12,-10,-14,-2,-6,-10
14085,1,2,-14,1,-7,2,-3,3
14090,-3,-2,-20,9,6,0,-17,3
14095,0,2,49,22,-3,-5,-2,-3
14100,4,-1,-5,-1,-5,-2,26,4
14105,-2,0,4,21,11,4,-5,-14
14110,2,-3,-17,-37,-8,2,22,49
14115,-4,-2,-16,1,-5,-13,-53,0
14120,-2,1,-4,2,2,0,38,-18
14125,1,1,22,6,-1,2,18,6
14130,6,3,-1,15,-1,-1,-14,15
14135,-6,-6,-19,-17,-6,-9,12,13
14140,-1,0,17,10,1,1,-8,-38
14145,-2,-2,2,0,2,1,19,0
14150,-4,1,4,3,7,0,-52,-4
14155,-4,4,0,-22,0,-4,-16,-17
14160,-2,-1,-15,4,-1,-4,3,7
14165,5,-1,16,7,7,9,25,40
14170,3,5,15,-17,-14,5,10,-26
14175,-1,-8,-15,5,-4,5,8,13
14180,-4,3,37,11,7,-4,-35,4
14185,5,2,-9,-6,-8,0,11,-36
14190,-3,-11,-14,4,12,1,44,39
14195,-7,7,-19,-8,-12,-15,-21,-35
14200,-1,-1,27,9,1,0,-4,-3
14205,2,-1,-6,-5,0,-3,-18,10
14210,-3,3,7,3,0,-6,-60,-50
14215,-5,-14,-18,-7,-6,11,102,78
14220,-1,-3,-20,-11,0,-11,-46,-4
14225,-5,7,11,13,0,-5,3,-39
14230,2,-5,-9,-22,-3,3,-28,-3
14235,-5,-3,22,26,4,-1,-20,-38
14240,5,0,-19,-27,-7,-1,-10,66
14245,-9,-6,4,9,1,-5,6,-18
14250,3,2,-12,3,-2,2,19,10
14255,-4,1,4,11,-9,-5,-29,-25
14260,3,1,-12,11,11,6,13,17
14265,-2,-4,-9,-12,-6,-3,-2,-1
14270,2,3,15,6,-1,-2,2,-24
14275,10,-3,-14,-15,-7,6,6,105
14280,-10,-2,22,16,-1,-5,-4,-90
14285,3,-2,-10,-10,-4,-1,16,18
14290,-15,-3,-17,-10,1,-10,-35,-33
14295,2,-1,15,17,2,3,-4,2
14300,4,-1,8,0,-5,-7,0,30
14305,-2,-4,-30,-3,6,14,24,-30
14310,4,6,22,-17,-11,-4,15,55
14315,-5,-2,2,9,20,0,-28,-104
14320,-2,1,-9,-13,4,6,7,27
14325,-6,-2,-1,-9,-15,-10,-29,20
14330,4,0,-23,20,1,4,33,2
14335,-1,2,15,1,1,0,-22,-8
14340,-4,-4,-13,-6,-4,6,18,-34
14345,4,3,15,8,1,0,2,11
14350,-3,-7,5,4,-1,-12,-32,4
14355,-6,1,-8,-4,-1,0,16,-40
14360,2,4,-2,13,3,-1,18,25
14365,6,0,15,-4,0,1,24,68
14370,-9,1,14,24,-3,-6,-24,-78
14375,1,-7,-16,-9,4,-6,-13,55
14380,1,0,-7,-34,-6,2,-1,-5
14385,-4,-2,-5,-8,4,-1,-32,-32
14390,0,-1,27,19,-2,9,50,33
14395,-2,0,0,-13,5,-3,-5,-12
14400,2,-5,-12,10,-1,-3,-27,5
14405,-2,1,4,5,-1,-1,-23,-59
14410,4,-1,-8,-9,5,4,6,26
14415,1,-2,19,-22,-9,-3,-7,52
14420,0,6,-5,9,-6,9,48,-69
14425,1,-2,-20,-6,20,-4,-40,26
14430,-6,-4,12,-1,-10,0,4,0
14435,-6,-4,-27,-10,0,-3,7,-23
14440,7,-3,0,15,0,0,38,84
14445,-6,3,7,20,-3,-4,-26,-44
14450,3,3,-37,-25,-1,-4,20,18
14455,-6,0,14,3,-3,2,-42,-64
14460,4,3,5,13,1,4,41,56
14465,2,2,13,8,-10,-8,7,-5
14470,-5,-12,-14,5,5,-1,-7,33
14475,8,7,7,-6,-6,7,41,15
14480,-8,-8,-44,-15,0,-9,-57,-50
14485,0,3,38,-2,-8,3,-4,-17
14490,6,2,-13,8,13,5,10,36
14495,0,-2,14,-4,-2,-5,-20,-8
14500,-6,-4,-17,-3,12,8,-9,-91
14505,5,-2,-10,-3,-2,3,14,55
14510,2,2,-11,5,-6,-2,26,42
14515,-1,1,-7,4,0,8,12,-35
14520,-4,1,12,-21,-11,-15,-48,11
14525,4,-4,-30,-1,-3,-4,-9,28
14530,-8,-3,44,12,-1,-3,-15,-71
14535,3,7,-4,22,-6,5,23,22
14540,4,2,20,-9,19,2,4,41
14545,0,1,-11,-3,7,9,5,-33
14550,1,-3,-14,-7,-4,-2,28,-42
14555,-11,-2,-25,-4,-6,-8,-42,-16
14560,3,-6,34,8,12,8,46,65
14565,0,11,14,3,1,1,0,-19
14570,1,2,-12,-13,5,0,-5,-10
14575,0,-4,4,11,-2,-8,-22,-19
14580,-7,-9,-18,-9,-10,-2,44,-4
14585,1,-5,-17,-38,-6,0,-38,43
14590,-4,4,14,0,5,3,11,-74
14595,9,-2,-11,9,3,-3,24,70
14600,-2,3,-3,11,-2,0,-28,-4
14605,8,0,21,0,-4,3,68,33
14610,-5,2,0,6,-2,-2,-9,-38
14615,2,-3,3,-5,6,-3,-10,27
14620,1,4,12,-24,-11,-13,-35,-5
14625,-7,-5,-14,-2,2,5,-10,-13
14630,7,-2,4,5,-8,-5,-33,33
14635,-11,-8,-19,-14,-4,7,28,-9
14640,8,10,26,7,11,3,7,25
14645,-14,-10,-3,-3,-9,-16,-19,-23
14650,4,3,-6,-7,10,4,7,-11
14655,-1,-6,-10,12,0,-6,25,16
14660,-2,4,2,-10,-13,-3,-58,-17
14665,-3,-3,-20,3,8,-1,20,7
14670,-2,-3,-1,0,-2,3,5,-1
14675,10,6,33,6,0,8,3,4
14680,-10,-7,-8,-13,-3,-2,31,-50
14685,5,-2,7,4,4,-3,1,58
14690,-8,-5,-8,-35,-17,-6,-38,-35
14695,1,3,-3,1,-1,3,-8,0
14700,-1,1,-46,7,15,1,7,3
14705,-2,-2,54,1,-16,-11,-7,4
14710,1,-2,0,2,7,8,32,59
14715,-6,-3,-2,-4,-4,-9,-25,-91
14720,0,-4,-4,5,-2,-6,-17,32
14725,3,3,-8,3,-6,10,10,-5
14730,-7,-3,-15,-5,5,1,-3,-69
14735,8,2,4,-5,0,0,-12,66
14740,-7,4,13,15,-10,-1,22,-33
14745,-1,-1,-17,2,4,-5,-20,-9
14750,11,7,24,23,-6,6,0,13
14755,-1,-10,-13,-6,-2,-1,13,83
14760,4,0,20,19,1,-1,10,-36
14765,-6,11,-7,-5,4,-12,-18,-14
14770,-4,-3,-20,12,1,-8,-28,22
14775,4,4,-2,-42,5,10,23,-36
14780,-3,-3,-2,-2,-19,-5,-12,-5
14785,5,-1,25,16,10,11,53,26
14790,3,-1,-9,2,1,-12,-38,10
14795,-6,-1,-13,-4,-3,0,-1,-37
14800,-6,-7,-2,0,-1,0,0,13
14805,0,-1,-9,-4,1,2,-5,-20
14810,1,3,3,-5,-4,-1,18,7
14815,-8,-4,3,1,-3,-5,-12,-29
14820,3,3,6,-16,-3,-2,-15,6
14825,2,-2,-10,-1,-6,4,8,4
14830,-2,-2,-2,11,10,-8,-38,4
14835,1,5,22,8,-1,3,32,38
14840,-4,-5,-20,6,3,-2,-29,-54
14845,4,0,4,-6,-1,-1,10,14
14850,-3,-3,-10,-8,-16,-4,-9,15
14855,-4,0,34,10,12,2,11,-19
14860,0,3,-2,3,4,1,-18,6
14865,0,-6,-22,-7,-4,2,22,20
14870,-4,-2,-4,-2,-2,-2,3,-37
14875,0,-1,-18,-2,-4,1,12,17
14880,7,-1,12,-15,9,4,3,45
14885,-9,-10,-8,8,2,0,-1,-51
14890,2,6,4,-9,1,-3,15,26
14895,1,0,-7,-11,-6,-2,-14,-18
14900,-2,-7,-21,-2,-9,-2,-7,-8
14905,3,2,2,-4,7,-1,-31,16
14910,-6,-5,5,5,-4,1,47,20
14915,6,1,-5,13,-3,-1,-21,16
14920,-1,0,10,1,-1,-6,8,48
14925,-7,-3,-1,-5,-4,-1,-53,-40
14930,-6,0,4,-1,3,-2,-6,-83
14935,0,0,-5,-1,-6,4,45,10
14940,1,-1,-4,2,0,10,17,-12
14945,14,5,2,7,10,-2,-7,68
14950,-9,-14,-23,-11,0,-1,-43,-17
14955,-6,2,9,-14,2,-11,-23,-41
14960,-6,-5,24,-17,-9,-9,-11,-11
14965,0,4,11,4,6,-3,7,-14
14970,7,-2,-3,-5,0,12,-6,44
14975,-4,-3,-10,6,7,5,21,-2
14980,0,-6,-23,-3,4,-1,-11,22
14985,-13,-6,7,-24,-19,-13,-3,-78
14990,8,2,9,8,11,13,16,41
14995,-7,-8,-27,-1,-1,-7,-19,-15
15000,4,7,25,19,0,6,66,26
15005,-2,-4,-16,-5,1,3,-32,-6
15010,3,3,-1,24,5,-16,9,42
15015,3,0,8,-17,0,3,-12,-34
15020,-2,-3,-9,13,-2,-1,-25,-21
15025,-4,-2,-5,12,-1,-5,-7,9
15030,1,-1,-11,-16,-4,3,21,19
15035,-2,1,23,13,-4,-13,-17,-36
15040,-4,-2,-9,-2,0,-2,1,3
15045,-7,-1,3,4,1,-2,-20,-70
15050,-2,0,-3,-15,-3,-8,-22,48
15055,0,-5,5,5,-3,1,11,-7
15060,3,6,-1,-9,-2,1,-20,-18
15065,6,2,-8,1,-3,7,17,13
15070,-3,1,4,-9,5,4,21,-3
15075,-4,2,11,-8,-2,-13,-5,5
15080,-7,-5,9,15,0,-11,-11,-11
15085,3,1,0,-5,1,2,7,43
15090,-4,-2,-11,8,-3,5,13,-64
15095,6,-9,-30,-40,-13,3,5,43
15100,5,15,49,33,4,8,22,19
15105,-5,-2,-4,-8,10,-10,-67,-39
15110,-4,-4,10,-2,-8,-13,41,19
15115,-2,-1,-19,3,0,0,-8,3
15120,2,-6,-27,-7,-11,0,-12,6
15125,5,-2,2,-7,-4,12,86,59
15130,8,7,15,16,3,9,-15,-7
15135,-11,-4,-6,-8,4,-1,-21,-48
15140,-5,-8,-9,-23,-7,-6,-35,-15
15145,-5,1,5,4,-2,-5,9,9
15150,8,4,7,2,3,4,11,20
15155,8,5,5,15,-3,7,22,15
15160,6,3,10,4,10,1,2,-6
15165,-4,-8,-17,-11,-5,-8,-2,-23
15170,-7,6,16,3,-16,-4,-20,-35
15175,-2,0,4,19,19,4,4,25
15180,-3,4,-1,-7,-2,-5,13,-5
15185,4,-3,0,5,-2,4,31,20
15190,7,-4,-24,-13,2,10,13,8
15195,-9,1,29,20,-18,-20,-28,7
15200,-7,1,-4,-4,18,12,-16,-64
15205,-7,-5,-20,-6,-8,-12,-23,-8
15210,-3,-7,31,0,0,6,50,11
15215,-1,4,-24,13,-5,-11,-45,-7
15220,3,-4,-13,-11,-2,-2,12,21
15225,4,5,15,12,3,6,-17,-10
15230,4,4,-11,-6,-3,5,-3,15
15235,-2,-8,-12,4,5,3,30,16
15240,-4,-4,14,-5,-3,-10,-36,2
15245,-2,1,4,8,4,3,30,-21
15250,-6,-3,-5,-6,-2,-6,-46,-21
15255,12,6,12,-1,4,10,18,21
15260,7,0,-13,3,5,13,27,39
15265,-11,-9,-27,-2,-7,-19,-21,-58
15270,3,-3,4,-8,-3,1,24,7
15275,-2,6,33,6,1,-8,-82,-14
15280,-1,-2,-22,8,-6,-4,20,38
15285,-1,2,15,0,-4,5,-7,-5
15290,4,-1,-11,-4,5,1,35,12
15295,-4,-5,-10,-3,2,6,22,-19
15300,-1,-3,1,-4,-14,-13,-64,-22
15305,9,15,14,5,13,11,30,109
15310,-13,-10,-23,8,-3,-17,-46,-41
15315,-2,-3,5,-2,5,6,36,5
15320,3,-1,-2,-1,-3,0,20,1
15325,1,0,-2,-1,-9,-4,-36,-13
15330,-2,1,1,-14,5,4,16,20
15335,9,2,-12,1,-3,12,20,-2
15340,-3,-4,-10,-8,-4,-12,-32,9
15345,-16,-10,7,-1,-1,-9,14,-34
15350,2,2,10,-3,-1,0,-15,-5
15355,0,2,-12,-11,-8,2,8,36
15360,-2,-2,10,5,7,5,12,-29
15365,1,1,9,-9,-2,6,-7,-5
15370,-8,1,-8,10,-3,-7,-42,-49
15375,-2,-1,-11,-3,-5,-2,23,22
15380,-1,-4,-14,-14,-2,4,10,12
15385,4,2,8,-2,4,4,-7,-10
15390,0,-6,-6,-6,-5,4,15,20
15395,2,-4,-13,-9,-3,-6,-45,-2
15400,1,0,-8,13,-6,1,5,-4
15405,-12,-6,-2,-3,10,1,13,-38
15410,7,8,8,14,16,1,6,6
15415,-5,2,-15,-14,9,2,13,8
15420,4,1,9,4,-2,-3,-17,-34
15425,0,-4,-15,1,-18,-2,34,56
15430,5,-2,15,24,5,-2,-41,6
15435,-1,7,19,-3,-1,-4,-5,5
15440,1,1,-12,-12,-4,0,40,31
15445,4,2,0,10,6,6,8,-28
15450,-4,2,-6,-4,3,-10,-7,-19
15455,-3,-14,-24,-2,0,-3,-30,25
15460,-4,3,17,-1,4,3,15,-58
15465,2,4,0,-4,-4,3,-15,36
15470,-7,0,9,-11,-9,-5,-6,-12
15475,1,-4,-3,8,-3,-2,6,-28
15480,-1,-2,-16,0,10,0,38,37
15485,4,3,9,3,-1,0,-6,60
15490,-8,-3,-15,-30,-13,-3,-21,-80
15495,1,1,4,-21,13,8,8,-5
15500,-2,-8,-39,-6,-8,-7,4,19
15505,0,9,66,3,-1,-8,-38,-29
15510,10,-2,-4,9,6,4,36,106
15515,-9,5,18,10,2,-2,5,-107
15520,-4,-14,-25,-19,-4,-3,-17,-16
15525,7,4,-20,18,-13,-9,5,28
15530,0,3,17,-1,14,15,48,7
15535,-3,-7,-8,6,3,-4,-59,-1
15540,-5,2,10,8,2,5,20,-2
15545,-2,-3,-23,-3,5,-5,-8,-7
15550,7,1,24,-3,-7,6,13,16
15555,7,5,-7,20,-11,-2,26,25
15560,-8,1,15,-22,3,-6,-35,-34
15565,3,-3,-3,-10,2,4,-5,34
15570,-4,-12,-20,-13,-3,-6,-18,-20
15575,-1,8,10,3,-9,-7,-6,15
15580,-7,2,5,8,-7,0,-10,-88
15585,1,-6,8,4,0,-3,7,-3
15590,-2,4,3,1,0,-4,-25,22
15595,1,-2,4,-7,-10,-3,-18,-4
15600,5,4,5,16,6,4,46,45
15605,-3,-17,-32,-12,-5,4,52,2
15610,-7,17,14,-5,3,-15,-85,-55
15615,3,-4,3,-43,-6,5,48,38
15620,-4,4,0,0,3,-3,-69,-19
15625,-4,-2,-9,-7,-1,-8,-28,-16
15630,-3,-11,-12,-11,-11,-1,51,13
15635,-1,2,15,27,8,0,-20,-4
15640,3,-2,4,-8,-11,-10,-6,-5
15645,-1,-4,-8,-8,12,6,26,74
15650,-5,4,-10,21,-2,-9,-43,-102
15655,0,-3,4,-21,2,-4,4,-9
15660,-1,-2,-16,-1,1,6,21,26
15665,5,6,20,7,-4,0,-34,-6
15670,-1,-9,-16,1,0,7,17,5
15675,-1,1,0,12,3,-1,9,3
15680,2,2,6,-12,-8,-4,8,11
15685,-2,1,-9,6,2,-1,-19,-19
15690,1,-3,-5,-4,-5,9,32,40
15695,-2,0,22,12,4,-2,-14,-20
15700,-7,-13,-3,-6,-6,-9,-33,-24
15705,-3,12,-10,-3,-6,-6,33,-9
15710,1,-3,6,8,-2,0,5,31
15715,0,-9,-29,-19,-8,-2,-1,36
15720,1,4,7,6,5,0,1,-25
15725,1,-2,-2,5,5,4,5,-48
15730,-4,-1,3,7,6,3,-32,0
15735,-2,-9,-44,-15,-6,-2,42,38
15740,8,8,47,10,0,2,12,33
15745,-11,-5,-5,5,-2,-13,-49,-71
15750,2,-1,0,-7,-5,-1,20,24
15755,0,4,6,10,11,5,2,-10
15760,8,-1,-4,23,-1,6,1,15
15765,-7,3,3,-4,-2,-13,5,-2
15770,0,1,-4,-2,0,8,29,1
15775,-2,-4,-8,9,-3,-1,-28,-19
15780,-2,-9,-19,-36,-1,7,57,26
15785,8,13,29,21,1,5,-17,9
15790,2,2,6,2,13,-4,-31,8
15795,-12,-10,-15,-3,-8,-9,-1,-63
15800,4,17,-1,4,9,-6,-18,47
15805,-2,-11,4,-13,-10,6,5,-14
15810,-1,6,0,1,-9,-12,-36,-28
15815,-2,1,0,9,-3,0,27,36
15820,-7,-3,14,5,-1,-3,-40,-33
15825,3,-3,-20,-17,4,8,35,8
15830,5,1,-1,9,-2,6,16,26
15835,-1,-3,11,4,-2,-4,-26,27
15840,-5,-10,-31,-33,-1,-4,6,-21
15845,1,5,3,3,4,8,15,-26
15850,0,1,-5,-3,-2,-1,-20,-21
15855,2,-1,23,-4,-5,-5,-4,2
15860,-2,-7,-14,0,-2,0,-6,30
15865,1,-8,-2,32,15,8,8,3
15870,0,13,23,-39,-2,2,44,16
15875,-1,-2,-4,-14,-4,-10,3,-1
15880,-3,1,-18,5,-4,-7,-18,-22
15885,1,-9,-7,10,-10,-4,20,33
15890,0,-6,-15,6,4,-2,-13,3
15895,-3,3,1,11,6,2,-55,-70
15900,7,-2,16,-1,-4,1,-7,32
15905,-12,0,-13,-14,-7,-9,5,-21
15910,0,-3,-16,12,-4,1,20,16
15915,2,6,2,-5,-6,4,4,3
15920,-3,-2,-7,9,10,-1,-16,-27
15925,2,3,15,-9,-7,-6,-61,18
15930,0,-2,-1,4,1,3,38,-6
15935,-1,-11,1,8,-1,1,23,8
15940,0,-2,-3,-12,-7,0,5,5
15945,1,9,38,-7,2,6,-4,-12
15950,-4,-1,16,-9,5,-3,-34,-19
15955,-3,3,-8,0,-6,-4,-15,-2
15960,-2,-4,-1,11,0,2,18,3
15965,3,-3,-18,-3,4,-4,-5,29
15970,3,-8,-12,10,-16,1,-4,-10
15975,-8,-2,7,6,9,1,12,-26
15980,0,10,31,24,-5,-6,9,5
15985,-3,-6,0,-10,3,1,-23,-5
15990,-4,-8,-12,4,-1,-2,54,1
15995,4,3,-15,-5,-4,-3,-45,21
16000,-4,0,11,-19,-8,-4,-8,-31
16005,2,-8,-18,24,1,12,66,-10
16010,-1,-5,-20,-31,8,6,-16,33
16015,0,9,25,3,-1,-5,-5,-28
16020,-1,-9,-10,-3,7,-5,-56,26
16025,-4,11,14,5,-8,2,39,-30
16030,-7,-9,-1,-34,-20,-19,-81,-16
16035,-3,-6,-32,-6,0,4,24,-6
16040,1,-3,10,4,12,6,11,26
16045,-2,2,5,-9,9,6,35,-10
16050,-7,-8,-20,-4,-3,-17,-75,-17
16055,5,3,18,4,4,5,14,6
16060,-6,-8,-27,-7,-18,3,65,3
16065,7,13,9,9,15,6,-2,26
16070,-2,4,14,8,-2,-8,-49,-43
16075,2,-8,-14,-13,3,6,32,52
16080,0,4,4,7,-1,2,-2,21
16085,-13,-16,-35,-19,-8,-8,-50,-79
16090,-2,13,45,20,3,-2,4,1
16095,6,10,-1,5,0,6,36,52
16100,1,-5,10,-30,1,0,5,-20
16105,-7,-8,15,6,-15,-16,-68,-27
16110,5,-1,-5,-1,17,5,14,8
16115,-7,-6,-1,0,-4,-2,26,-22
16120,-1,2,-3,13,8,5,19,11
16125,11,0,-6,0,-3,-3,1,33
16130,-5,-15,-1,-4,-6,4,26,8
16135,3,28,42,-1,-3,-4,-33,-5
16140,0,4,-13,33,11,2,-53,-26
16145,-7,-13,-14,-33,-11,8,40,1
16150,1,4,-2,-5,6,0,14,-8
16155,3,-2,-8,-7,2,7,14,29
16160,0,3,0,7,-7,-10,-62,-46
16165,1,-3,-7,-1,-1,6,22,22
16170,1,-3,-14,-22,3,-5,-37,38
16175,-2,0,-7,-1,2,-3,-17,-37
16180,-2,0,7,3,-1,0,48,-22
16185,3,0,5,3,4,-1,2,3
16190,-3,-1,-7,11,-2,3,15,0
16195,8,-6,-5,7,-2,5,39,30
16200,-9,-5,8,-7,-3,-5,-24,-31
16205,2,-10,-39,-8,-5,2,15,40
16210,0,18,33,8,-6,-9,5,12
16215,0,-1,15,25,9,6,3,-64
16220,-1,-8,-14,-6,-2,5,10,29
16225,-3,9,-20,-28,-6,-11,-32,-1
16230,2,1,20,14,10,8,28,1
16235,-2,-13,-12,-11,-4,-9,-40,1
16240,0,0,-8,22,-5,2,10,-6
16245,7,4,26,7,-8,-2,6,22
16250,-7,-2,-12,9,3,4,41,16
16255,-4,-3,-15,-8,-2,0,1,-19
16260,-6,-2,16,3,-3,-1,15,-32
16265,-3,-14,-37,-4,-4,-15,-59,14
16270,-1,10,26,19,-5,-2,21,-10
16275,4,1,5,1,5,3,10,34
16280,4,6,3,-5,-1,2,-18,-1
16285,-6,4,2,-16,1,-9,10,-4
16290,0,-10,-27,7,-3,-9,-56,-7
16295,-8,-12,-6,6,-1,-7,-40,-43
16300,7,20,2,-4,4,12,62,40
16305,1,-3,9,-22,-3,3,31,37
16310,-6,-5,0,5,-7,-2,-23,-58
16315,5,-3,-10,-4,-1,2,12,-12
16320,3,-9,-6,-3,0,1,3,15
16325,-2,4,38,22,2,-4,-43,-18
16330,-3,9,3,1,-8,-8,-22,-15
16335,-3,-4,-34,-11,-3,-6,-40,-17
16340,-1,-10,10,-2,1,-1,35,36
16345,-9,-7,-15,-18,-4,-5,-2,20
16350,5,-3,-12,-5,7,5,-3,-37
16355,-6,-2,7,1,-7,2,44,4
16360,-2,-4,-12,-9,-7,-9,-50,-24
16365,4,-2,9,11,4,5,5,7
16370,6,1,2,1,5,2,37,46
16375,-5,-1,-15,3,2,-3,-2,-36
16380,-2,1,8,-43,-6,-2,-15,-7
16385,-1,0,-9,17,3,6,17,-6
16390,1,-6,4,-12,1,10,54,23
16395,-1,11,12,5,2,1,-45,15
16400,-1,-3,1,9,-2,-12,-23,3
16405,0,4,-4,9,-4,-8,-21,0
16410,0,-9,-15,-3,4,-4,-22,-3
16415,-7,-1,15,-3,-9,-1,43,-37
16420,3,7,1,5,4,-1,-14,27
16425,0,12,25,16,13,11,14,-22
16430,0,-5,-14,-6,-8,1,-25,-10
16435,-2,-4,13,-3,-7,0,34,51
16440,1,0,-10,1,3,-4,-5,26
16445,-1,-4,-15,7,-7,2,33,2
16450,-6,-4,-5,-17,-6,2,14,-30
16455,5,3,-9,1,3,-5,-39,10
16460,-3,-5,-55,-2,0,5,50,-37
16465,-4,-2,41,1,-5,-17,-89,-19
16470,-2,1,-15,6,-1,0,16,15
16475,4,0,10,-7,1,0,2,25
16480,-1,0,-2,11,1,5,42,1
16485,1,-1,-4,-7,-2,3,-12,4
16490,2,-3,-18,-4,5,-3,7,17
16495,3,-9,7,4,10,7,-6,-20
16500,-10,20,24,0,-8,-7,-20,-18
16505,-3,-8,-17,-3,-1,-5,-4,-31
16510,5,1,18,26,-5,0,0,48
16515,-2,-3,-4,-9,-12,8,2,-46
16520,-1,-4,-21,0,26,-9,-16,-21
16525,-5,0,2,-8,1,-2,34,-13
16530,0,-7,9,0,-5,7,36,27
16535,0,8,15,5,3,0,-28,28
16540,1,-7,-5,-8,-11,-4,-19,-9
16545,2,2,-14,0,4,1,-10,-6
16550,1,-6,-2,-7,2,-7,-29,26
16555,-3,0,-23,13,-2,12,101,27
16560,-11,-2,23,-5,0,-16,-78,-93
16565,12,6,-14,1,10,2,-1,39
16570,-19,-6,21,-2,-12,-7,3,-8
16575,3,-2,-11,-5,-3,-7,10,21
16580,2,-1,5,13,0,9,2,16
16585,-3,-4,1,0,-6,-8,-48,-31
16590,7,-2,-17,-12,-8,3,-2,-10
16595,-3,3,4,-6,5,-8,23,18
16600,4,-7,0,-2,1,8,-3,-19
16605,-2,0,-12,-2,-4,5,44,6
16610,-4,-6,5,-3,1,4,2,-3
16615,-12,3,9,0,-6,-23,-90,-57
16620,3,-6,-21,-7,-6,8,32,46
16625,2,3,-27,-4,8,3,19,18
16630,-1,-1,57,29,3,-7,-6,-15
16635,7,7,-3,3,2,10,0,10
16640,-2,-6,-14,-32,-1,-14,17,40
16645,-7,-4,15,12,-3,-2,-7,-58
16650,6,9,-13,4,5,6,5,-18
16655,-6,-11,5,-8,-10,-15,-16,4
16660,0,0,18,8,-5,-4,-22,2
16665,1,0,6,6,2,0,-41,-31
16670,-6,2,-11,-42,-2,6,11,-8
16675,-2,-6,-5,-7,-2,0,8,16
16680,-1,-5,-9,6,-2,-3,1,1
16685,0,4,13,2,3,-4,-3,26
16690,4,1,-20,12,-1,1,-1,-17
16695,-4,-5,5,-12,-7,-3,-2,-9
16700,-7,-7,6,20,14,4,46,24
16705,1,5,-4,-28,2,5,1,14
16710,0,3,2,13,-3,-5,18,-11
16715,2,-5,-26,-8,2,-5,-61,0
16720,6,6,35,17,-15,-6,-14,28
16725,-12,-15,-4,-15,-7,1,29,-44
16730,-5,-8,-24,13,4,2,9,2
16735,4,18,0,22,0,2,-3,13
16740,3,4,-4,-5,3,12,41,-7
16745,4,-3,2,3,-6,-4,-21,9
16750,-1,2,6,-13,7,-8,-45,9
16755,-5,-7,-3,12,0,0,15,-28
16760,3,-1,-7,-1,-9,4,17,20
16765,1,2,-4,2,-6,2,8,28
16770,-7,-1,0,6,3,-10,-56,-7
16775,-3,-1,4,-12,1,-5,-47,-65
16780,9,5,7,14,-3,9,-2,60
16785,-15,-10,-4,-1,1,-11,12,-71
16790,6,3,1,1,-1,9,33,29
16795,-1,-15,-17,-13,-3,-6,19,15
16800,4,18,8,-4,-4,6,-32,-19
16805,-5,-5,-1,2,-8,-12,-44,4
16810,-2,1,12,-9,1,-5,10,-3
16815,2,1,7,9,4,7,15,14
16820,0,-7,-22,4,4,8,30,-9
16825,5,-4,7,-1,-6,-6,2,31
16830,-4,5,-17,-18,0,-12,-48,-37
16835,10,7,7,-6,0,6,19,7
16840,-9,-8,16,-15,-1,-18,-59,-64
16845,-6,5,-4,-6,-4,9,75,19
16850,-3,-5,-7,-13,-11,-5,-16,9
16855,-6,-2,2,9,2,-4,-15,8
16860,-1,-1,-12,-8,-3,-3,-37,-3
16865,3,-1,-12,-3,2,4,26,-1
16870,7,1,17,2,-6,3,20,9
16875,-1,1,-3,3,8,2,10,1
16880,-1,-3,-2,-16,-4,-4,-1,14
16885,3,-1,-8,0,-8,8,0,16
16890,-10,1,-4,22,16,2,43,-41
16895,2,-3,5,-14,-4,-5,-54,4
16900,-14,1,19,-20,-4,-3,-12,-24
16905,2,4,2,10,7,-1,19,33
16910,9,-2,-31,-4,-6,6,9,12
16915,-2,-2,-10,3,0,-1,-27,-10
16920,-5,-3,12,5,-8,-6,25,-11
16925,1,1,4,-6,-3,-4,-22,8
16930,-2,-3,-1,-11,-3,2,7,-10
16935,-3,3,-3,-4,9,6,37,26
16940,2,-5,-11,-3,1,-6,-30,11
16945,0,2,5,9,-1,1,-19,-35
16950,2,-1,-5,1,-6,-3,4,2
16955,9,1,1,-2,-4,-5,-11,41
16960,1,-1,-14,5,-3,1,43,-37
16965,1,2,23,12,7,5,-17,19
16970,-5,-2,-2,7,9,1,29,-17
16975,0,-3,4,-49,-9,1,25,24
16980,2,1,-5,4,2,-4,-29,11
16985,-4,-6,-10,-9,-1,-3,-6,-9
16990,9,2,-4,-5,-4,8,-6,2
16995,-6,1,4,43,0,-6,21,15
17000,-3,8,12,1,1,-2,-71,-112
17005,-1,-14,-20,-35,-9,-1,93,107
17010,6,4,36,18,15,7,-13,4
17015,-18,8,-6,-8,-19,-15,-60,-80
17020,5,-4,-4,2,13,3,27,33
17025,0,4,-7,12,5,1,-54,-27
17030,2,-8,-20,-18,-13,-6,3,31
17035,0,-1,18,9,7,4,37,-33
17040,-6,-5,-23,3,-5,-1,-1,16
17045,5,10,27,22,3,2,-7,-2
17050,-2,-4,-6,12,-2,-8,-10,4
17055,4,1,-2,-4,-3,5,15,-7
17060,2,-1,-1,0,1,3,26,35
17065,-10,-3,1,5,-1,-6,-35,-3
17070,-3,-1,-6,-2,-2,-1,31,-5
17075,2,-6,-1,4,-2,1,32,33
17080,-1,-3,-1,-8,0,-9,-40,-30
17085,2,-4,-19,-5,7,-7,-41,-8
17090,4,10,21,-6,5,5,25,0
17095,-8,-6,-7,7,-3,-5,5,-12
17100,5,-2,6,0,6,11,17,57
17105,1,5,-5,-8,-6,-3,-21,-38
17110,-10,-7,-13,-7,-22,-18,-25,-25
17115,0,-6,-8,-7,8,9,9,45
17120,1,-3,-34,-5,-5,5,3,-31
17125,5,3,22,41,12,8,18,2
17130,-5,7,22,27,-3,-3,-34,-17
17135,10,0,6,-30,-1,3,10,39
17140,-19,-3,3,5,0,-17,-20,-54
17145,8,-4,-12,-5,-2,9,19,14
17150,-7,-1,-6,0,5,3,5,-4
17155,0,-2,-29,2,-8,-6,-24,-12
17160,7,3,18,8,1,16,31,44
17165,5,6,29,0,7,0,12,3
17170,-10,-9,-16,-14,-9,-10,-55,-27
17175,1,-4,-10,2,-1,-2,-13,4
17180,0,3,-2,-3,-3,-1,29,10
17185,0,2,1,-8,3,0,-35,-47
17190,9,-6,-9,-6,6,7,46,80
17195,0,7,13,11,1,0,-11,-40
17200,-1,1,19,12,0,3,41,23
17205,5,-3,-16,-26,-2,5,21,17
17210,-6,-4,-16,-14,-3,-14,-72,-35
17215,-10,2,-2,8,9,1,-7,-15
17220,5,6,26,8,-7,-1,33,14
17225,-5,-4,-7,-3,-4,-1,16,6
17230,8,2,-4,-4,-3,8,20,30
17235,-4,-8,-6,1,-3,-3,-5,-65
17240,0,-4,-23,2,-1,1,-8,10
17245,-10,-1,18,0,-5,-7,-10,0
17250,-3,-5,-6,-12,-1,-3,5,4
17255,2,4,20,18,3,7,20,20
17260,-1,-2,0,-10,7,3,-10,-22
17265,-6,-9,-29,18,-6,-11,0,7
17270,-2,4,14,-8,-4,-3,-22,-1
17275,4,4,8,2,2,4,-35,-35
17280,-13,-18,-14,13,-3,-12,-10,-20
17285,3,17,15,-28,-2,-1,4,17
17290,5,1,-17,-4,-5,11,24,17
17295,-1,-8,14,-7,-8,0,12,12
17300,-2,0,-4,13,-6,-2,4,7
17305,-4,-7,-15,-35,14,3,-23,-32
17310,-2,3,4,9,0,-3,-14,-30
17315,4,0,-50,-7,0,-3,20,44
17320,2,-2,32,4,-5,1,-16,-6
17325,-5,-3,5,1,-14,-6,23,-4
17330,0,3,4,1,7,0,-3,-42
17335,4,-8,-16,14,3,0,6,49
17340,-3,1,-10,-8,-4,-4,-45,3
17345,0,-3,-17,-6,-2,-3,4,-4
17350,-2,-6,17,9,0,-1,-9,13
17355,-4,3,-8,0,-3,-3,-2,-35
17360,4,2,4,-2,0,3,58,17
17365,-6,-1,-5,-6,1,-9,-50,-16
17370,3,-3,6,14,12,7,21,51
17375,-2,-2,9,1,-2,4,20,-26
17380,-1,4,0,-14,1,-7,-32,-13
17385,-3,-6,-5,12,-1,6,28,11
17390,-6,-2,-5,2,-10,-5,11,-48
17395,-1,5,6,-16,-8,-5,4,25
17400,6,2,18,3,6,2,-12,14
17405,-2,-2,4,18,4,1,-8,-6
17410,9,4,-2,17,1,1,-20,6
17415,-9,-4,18,-16,-6,1,42,9
17420,-1,-5,-52,-25,-4,-4,-38,1
17425,-1,0,-13,-2,0,-4,1,-24
17430,-5,2,49,22,2,-2,21,-7
17435,0,-4,-3,4,2,-3,-12,-11
17440,-3,-1,-5,-7,3,2,-17,6
17445,0,-5,-19,3,-5,4,24,10
17450,2,4,-8,-17,-3,-2,8,0
17455,1,-1,-2,1,-1,0,-22,12
17460,3,3,9,7,-2,2,5,18
17465,4,5,15,3,8,3,0,-32
17470,-15,-10,-13,-5,-9,-18,-35,-25
17475,1,2,8,1,2,-4,-26,-19
17480,-1,-6,-9,-1,-1,6,46,36
17485,2,0,8,0,-2,0,0,4
17490,1,2,-9,-3,3,1,6,5
17495,1,-3,-5,-5,3,5,24,-6
17500,-3,2,5,20,1,-12,-4,-5
17505,1,-1,3,-5,-5,3,24,39
17510,-5,-2,-28,-18,0,-2,-47,-5
17515,3,0,19,4,5,-5,-36,-27
17520,1,-2,-1,-2,-5,-1,-25,4
17525,-10,-17,-33,-22,-10,-11,5,-53
17530,10,27,57,32,11,4,1,18
17535,1,-2,-22,-8,1,3,11,27
17540,-3,1,27,4,3,8,12,2
17545,-6,-7,-13,3,0,-1,-30,-15
17550,-3,-15,-50,-26,-4,1,17,1
17555,1,10,27,2,-7,-9,-50,-25
17560,-2,-5,-15,4,4,-4,24,8
17565,10,13,27,11,9,13,42,35
17570,-7,-11,-26,-8,-12,-7,-3,1
17575,-2,-2,6,4,21,0,11,1
17580,0,-2,-1,0,-6,-3,-2,-22
17585,-5,1,7,-2,-1,-6,-22,13
17590,5,5,10,7,3,13,33,-5
17595,3,-4,-32,-14,-9,-2,12,10
17600,1,-1,-1,-7,-2,-3,-10,28
17605,-2,3,21,20,3,3,49,-42
17610,-7,-3,8,-9,-8,-7,-2,0
17615,0,-3,-9,-11,2,5,12,12
17620,-3,1,6,6,5,3,-28,-29
17625,7,1,-3,-2,-3,2,-9,56
17630,-5,-6,-7,-4,-12,-2,-17,-46
17635,-2,-9,-3,-2,5,-2,16,-22
17640,11,21,11,-6,-3,4,36,76
17645,-2,3,-7,-19,-1,11,15,-65
17650,-6,0,9,-5,-4,-22,-56,3
17655,-3,-5,-2,-16,-5,-5,-17,1
17660,-6,-8,-20,-13,3,1,-5,-15
17665,1,-5,-44,-3,-15,-1,1,28
17670,9,6,35,17,11,11,18,11
17675,-4,1,4,20,-2,1,-13,-2
17680,-3,-1,16,-11,-10,-9,-38,-35
17685,0,-1,-7,-5,5,-2,-39,-5
17690,5,-1,-19,-9,3,6,78,34
17695,-12,-4,-6,0,-13,-12,-30,-8
17700,-3,1,-8,-2,2,6,29,-26
17705,1,-1,17,15,-2,-1,-6,6
17710,3,-8,-22,-14,-1,-1,-17,-5
17715,2,0,14,8,-1,3,-11,-1
17720,-4,-1,0,-4,-4,-3,4,-9
17725,4,6,4,0,4,-4,-48,-43
17730,-5,-4,10,25,2,0,24,26
17735,-1,3,1,-1,1,4,23,23
17740,-1,-6,-10,-14,-6,-8,-39,-6
17745,-3,-17,-21,-6,-10,-11,-3,18
17750,-1,15,29,-4,-4,-3,-29,-44
17755,0,8,30,25,12,-3,6,13
17760,1,1,-17,-11,3,11,17,-13
17765,-2,5,28,19,6,-5,16,-12
17770,-2,-13,-25,-13,-12,-3,-26,6
17775,2,-6,-14,-6,-7,3,-1,21
17780,-1,2,4,4,4,-2,-9,-30
17785,0,-3,1,-11,-1,-8,-20,4
17790,6,9,1,6,7,6,36,12
17795,0,-4,-9,-34,-7,-1,6,30
17800,-6,-2,-8,2,7,2,19,-3
17805,-4,-1,2,-14,-3,2,-21,-13
17810,-3,-4,-6,-8,2,-1,-25,11
17815,-1,4,6,10,1,-6,-28,-54
17820,6,-2,-11,9,-3,6,-1,-2
17825,-8,-1,13,-1,-1,2,71,49
17830,4,4,15,1,-4,1,-67,-22
17835,-6,-5,-6,0,1,-8,32,23
17840,-2,-7,-37,-16,-3,-4,-9,-19
17845,7,11,44,35,5,9,15,20
17850,-1,-13,-38,-5,4,-1,27,1
17855,0,6,6,4,-7,-4,-15,-21
17860,-5,14,33,14,-5,-10,-44,-11
17865,0,2,-1,-4,13,2,8,-9
17870,-1,-4,-4,-10,-5,4,6,20
17875,4,-4,-23,12,8,12,50,9
17880,-1,-11,-32,3,-14,-14,-40,-26
17885,-4,-4,-6,-8,5,6,28,62
17890,-3,4,42,18,0,-1,-11,-46
17895,-2,-1,2,-6,-8,-8,-26,-18
17900,3,1,20,6,6,6,68,52
17905,-4,-3,-16,5,-8,-5,-64,-42
17910,5,-5,-33,-12,0,1,47,37
17915,3,6,-1,3,6,11,-29,-20
17920,-4,-7,23,-1,-13,-8,6,28
17925,0,-2,-16,-2,5,0,-12,4
17930,-10,-1,2,-2,-1,-4,14,-25
17935,6,4,3,-6,3,5,4,17
17940,3,-1,-4,0,2,-3,-12,-10
17945,2,0,-7,4,-7,6,8,-12
17950,-8,-12,-18,-7,3,-6,-26,-25
17955,-2,12,42,10,-8,-2,10,20
17960,-4,-7,0,-13,0,-1,-3,-41
17965,-4,-2,4,-14,-7,-4,10,15
17970,3,-1,-29,6,5,2,-16,-5
17975,0,-5,-33,-11,1,3,8,9
17980,2,3,59,28,4,1,28,37
17985,1,1,-16,17,-2,0,-34,3
17990,-3,-3,-6,-33,-10,-4,4,-14
17995,-2,-3,-8,-1,8,-5,-3,-6
18000,-2,-2,-16,-11,4,2,37,20
18005,1,-1,2,0,-6,-3,-14,-13
18010,7,4,4,12,0,13,36,22
18015,-17,-7,6,1,-6,-17,-105,-96
18020,3,2,-16,-35,-8,12,100,72
18025,1,-10,-15,-15,7,-5,-28,-4
18030,-6,14,9,8,-1,-8,-2,-12
18035,9,4,17,0,4,11,33,23
18040,-2,-3,-15,15,5,-7,-40,-29
18045,-7,-2,15,-13,-8,-1,40,-21
18050,3,-4,-15,-4,2,4,-11,18
18055,-1,-3,-12,-4,-14,-6,1,43
18060,-1,1,9,23,10,6,-2,-65
18065,-1,-4,-59,-20,4,-3,5,15
18070,10,7,67,24,8,7,20,84
18075,-7,-4,2,-9,-13,-12,-11,-97
18080,-8,-7,-15,-14,-8,-8,-50,4
18085,7,5,-7,2,-5,2,46,36
18090,-5,0,-8,12,1,0,-21,-16
18095,-1,-5,-17,-2,5,6,3,8
18100,0,-2,2,6,-4,-5,29,8
18105,-5,2,8,3,-5,-8,-47,-23
18110,-3,-6,-14,-11,-3,-3,-41,-6
18115,6,-4,16,5,-4,2,14,3
18120,3,6,-17,3,4,-7,4,53
18125,-11,3,20,12,-1,1,33,-62
18130,-1,-3,-4,-3,-8,-4,-29,-7
18135,4,-2,-10,-6,3,5,0,18
18140,4,2,4,-7,8,2,-29,-3
18145,1,0,11,1,-7,-11,-9,23
18150,0,0,7,-5,0,-5,-4,-9
18155,-4,-4,-40,4,-2,-2,11,-9
18160,1,2,15,11,4,9,-4,6
18165,-1,8,46,4,2,2,-7,5
18170,-7,-8,-12,19,-1,-12,-20,-31
18175,1,0,-6,-4,-4,0,21,25
18180,2,-6,-8,0,-3,4,15,20
18185,0,1,13,7,6,-1,37,43
18190,-11,-9,-10,2,-3,-13,-22,-90
18195,0,5,4,-8,-3,3,-35,15
18200,-6,-5,-13,-6,5,-3,21,-18
18205,8,4,2,2,-4,6,25,48
18210,2,0,1,-10,-3,7,-7,-10
18215,-5,-1,2,-1,-5,-11,-24,-8
18220,-4,1,-4,-5,3,-5,-28,-51
18225,2,-4,-7,-17,-2,2,-11,24
18230,3,3,-13,-6,2,1,49,21
18235,0,-2,11,-11,-4,7,8,22
18240,-5,-1,9,8,-7,-3,-22,-36
18245,-5,-1,-11,1,1,-2,-32,-39
18250,10,5,3,-8,-2,4,21,46
18255,-4,-2,7,-1,2,-6,-23,-6
18260,-2,-3,-9,-5,-4,5,20,4
18265,2,-4,-42,-40,2,4,-3,-4
18270,-2,2,25,6,-3,-6,-24,0
18275,-3,-2,6,10,11,0,43,6
18280,3,2,-4,-1,-10,3,-4,7
18285,-3,-4,-12,13,2,-4,-32,-38
18290,3,3,16,4,5,9,21,34
18295,-2,-2,-5,-10,0,-5,-22,-10
18300,2,-3,-15,-2,-1,-6,3,8
18305,-8,-6,2,3,-5,-9,-55,-61
18310,-2,7,2,5,-1,7,62,10
18315,-2,-4,-2,-6,-11,-5,-41,4
18320,-2,-2,-5,-3,10,1,35,16
18325,5,4,13,7,4,4,21,12
18330,-9,-7,-7,-10,-4,-11,-67,-22
18335,2,2,2,9,4,11,66,4
18340,-1,-6,-34,-46,-8,-9,-62,-19
18345,-3,6,50,8,-12,-11,27,24
18350,-4,-5,-14,-5,2,-7,-28,9
18355,-2,3,7,3,2,-2,18,-11
18360,-5,-1,1,5,1,5,1,-28
18365,1,-10,-35,5,-1,0,6,6
18370,-5,6,7,-9,0,0,16,-36
18375,7,8,19,6,5,2,4,49
18380,1,-3,4,6,0,11,2,-31
18385,-5,-4,6,0,0,-10,-29,0
18390,2,-5,-46,-9,0,4,21,21
18395,7,6,29,7,-1,1,-10,-1
18400,-2,2,-6,1,-3,-4,22,0
18405,1,-2,16,17,3,7,-1,10
18410,-4,-3,-2,-7,1,-4,-12,10
18415,-9,-8,5,-2,-1,-16,-57,-13
18420,4,2,8,9,-4,-5,-12,-1
18425,2,2,-18,-31,-9,7,-6,-29
18430,-2,-7,-3,-7,-1,3,45,15
18435,4,5,1,11,4,5,30,-10
18440,-3,-1,10,-2,-2,1,5,16
18445,-3,-7,-29,-3,8,-7,-19,-12
18450,12,9,20,3,-5,11,19,29
18455,-9,-9,-11,-10,-2,-14,-43,-23
18460,-6,-1,4,5,-1,-5,-29,-7
18465,1,4,41,14,3,7,2,-4
18470,2,-2,-6,-9,-2,3,14,4
18475,0,3,-5,9,-1,1,19,7
18480,2,0,2,-5,0,3,23,18
18485,-2,-5,-34,-4,-10,-7,-1,10
18490,2,0,18,18,10,3,-8,-21
18495,-7,-8,4,-31,-5,-7,-3,5
18500,-4,1,6,-19,0,-1,27,20
18505,6,4,0,-2,-5,-4,10,36
18510,-3,-6,-22,-7,1,-5,-14,-37
18515,5,3,8,21,-1,7,32,-2
18520,7,1,-11,8,0,6,-13,5
18525,-1,0,15,11,4,-5,-22,-13
18530,-11,-6,-6,6,-9,-15,-7,16
18535,-1,-3,1,-4,0,1,-35,-16
18540,-4,0,4,2,-3,-3,11,-45
18545,6,3,-3,2,5,10,7,18
18550,-1,-4,-7,2,1,4,6,-4
18555,3,0,-17,-2,-1,6,22,20
18560,-5,-4,6,-3,-1,-16,-23,-31
18565,-5,1,-12,-9,-18,-12,-17,22
18570,-5,1,21,11,15,3,14,-18
18575,2,-11,4,-30,-5,4,23,15
18580,4,19,3,-18,-3,3,-2,13
18585,-3,-7,-17,-10,4,4,-11,-19
18590,7,-2,17,-7,-9,2,9,30
18595,-7,0,-24,17,9,-8,19,4
18600,-3,-4,31,22,-3,-3,-102,-87
18605,-2,2,11,-6,-6,-1,15,9
18610,-2,-4,-34,-13,0,-1,-13,-3
18615,1,-5,-5,5,-2,2,16,24
18620,0,-4,0,-5,-4,-1,16,10
18625,-3,-8,-20,3,10,-1,10,11
18630,8,6,23,12,2,7,-6,-6
18635,3,3,-16,2,-8,-6,8,7
18640,-10,-3,-18,-14,0,-4,5,-24
18645,1,-1,10,-1,9,7,-1,-18
18650,-5,0,-4,-46,-12,-9,-30,-15
18655,3,1,20,17,0,1,-3,36
18660,2,0,-1,-2,7,8,29,27
18665,-2,-3,-10,0,-3,-3,-6,-9
18670,8,5,8,10,4,7,4,-15
18675,-2,-3,-7,-6,-4,-4,3,15
18680,-4,-10,-15,6,-2,-5,-1,2
18685,3,15,9,5,2,3,13,19
18690,-3,1,-5,9,-8,-4,-4,-28
18695,-4,-6,-12,-6,8,3,-27,-22
18700,5,7,-6,20,6,5,4,25
18705,-1,-5,-1,-8,1,-3,-1,-15
18710,-1,-2,11,19,-5,-11,-20,37
18715,-8,0,-5,-28,-4,-2,17,-59
18720,-5,-2,-5,4,-1,-7,-54,-6
18725,-1,-2,-4,4,-8,0,-16,3
18730,2,0,-3,-5,5,10,66,25
18735,-2,-4,-24,2,1,0,-6,-3
18740,5,0,13,3,7,-4,-47,-16
18745,-1,-2,8,6,-9,-4,26,-5
18750,-1,-1,2,-12,-8,9,21,65
18755,0,1,0,9,3,-12,-50,-39
18760,-2,-5,-7,-2,-1,9,49,-3
18765,-4,6,22,2,-1,-13,-48,-7
18770,-1,1,-8,1,5,-5,-11,-4
18775,-2,0,-13,-7,-6,5,30,11
18780,7,-6,-13,0,0,2,-17,18
18785,-9,-1,12,0,-1,2,44,-23
18790,-8,-8,-7,-6,3,-11,-36,-19
18795,6,2,14,-7,-11,7,32,50
18800,-13,-3,7,-1,8,-7,-33,-51
18805,2,-5,-55,-21,-9,6,34,10
18810,3,6,56,20,11,-1,2,-9
18815,-6,-4,-1,7,3,-11,-31,-8
18820,2,-2,2,-5,-13,-4,5,53
18825,-1,-4,-16,-2,5,1,16,-23
18830,3,0,-6,5,-3,5,5,-14
18835,-3,-6,-33,-8,-5,-4,-63,-1
18840,4,10,55,17,3,2,37,-30
18845,0,-3,4,1,-2,-3,-51,-32
18850,3,8,11,6,-4,1,33,84
18855,0,1,7,5,3,11,61,-22
18860,-2,-4,-31,-28,-5,-10,-48,18
18865,8,3,24,11,6,8,39,24
18870,-8,-10,-14,-10,-11,-11,-49,-67
18875,1,4,0,6,-5,5,34,42
18880,-3,0,1,-16,1,-3,-10,-4
18885,-2,-3,-6,6,8,-11,-35,-17
18890,2,0,-11,-6,-2,7,20,24
18895,-5,0,14,5,-5,2,27,-11
18900,2,-3,-10,4,-5,-2,23,1
18905,-5,-8,3,-4,-9,0,-18,7
18910,-1,4,-13,-1,7,1,-8,-16
18915,5,2,-11,-5,3,0,1,34
18920,-1,-5,-15,5,-2,6,-7,-46
18925,-5,8,8,-6,0,-10,-51,-8
18930,3,5,22,3,-9,0,22,0
18935,4,-5,19,15,8,5,37,3
18940,4,4,-27,-19,-9,-7,-26,51
18945,-5,-4,0,10,4,4,65,-2
18950,-2,-5,-6,-13,-13,-7,-57,-14
18955,-2,5,17,29,11,5,17,-60
18960,-10,-7,-17,-34,-8,-17,-60,6
18965,0,-1,7,-6,-3,2,21,4
18970,-2,-3,-20,2,2,0,-4,-9
18975,1,-1,-2,-15,-5,0,12,5
18980,2,3,20,17,8,0,-50,18
18985,-9,-9,-17,-13,-16,-11,17,-35
18990,-1,-2,-9,-3,2,5,41,39
18995,1,-2,-20,-12,-9,-2,-35,-19
19000,2,-5,18,-2,10,5,58,34
19005,4,15,-3,2,4,1,-24,25
19010,-1,-4,11,10,12,8,16,-40
19015,-8,3,-2,-6,-5,-16,-50,-38
19020,-2,-6,-4,-22,-7,3,76,-11
19025,6,-6,-28,3,4,12,-20,60
19030,-7,-2,-9,-28,-7,-9,-3,-32
19035,4,2,44,7,5,2,-29,-36
19040,-5,7,16,16,-2,-1,19,30
19045,3,1,0,3,12,4,37,4
19050,7,1,-5,15,2,2,-10,2
19055,-1,-13,-29,-9,-10,-4,12,55
19060,-4,2,-7,18,1,-4,-16,-59
19065,2,5,18,-10,-1,6,-11,-7
19070,-5,-13,-29,-15,-5,-8,-9,-2
19075,8,14,-8,-6,-5,-10,-30,36
19080,-5,1,36,29,4,7,23,-27
19085,-5,-1,26,-36,-8,-10,-41,-7
19090,5,-5,-32,2,0,-2,35,30
19095,-4,0,46,17,-3,14,27,3
19100,8,-4,-19,-14,1,1,6,29
19105,-17,-21,-42,12,2,-19,-47,-90
19110,6,23,17,12,6,6,-6,19
19115,-5,-14,-37,-6,-1,0,-5,-1
19120,4,-1,7,-1,-2,1,46,73
19125,-5,5,21,12,-6,2,-11,-39
19130,-8,-20,-20,-6,-8,-11,3,-2
19135,-7,1,-14,8,-2,1,4,-45
19140,8,11,1,-2,18,12,-7,2
19145,-5,-20,-9,-7,-9,-17,-21,9
19150,4,9,-1,9,3,2,8,-13
19155,1,-1,14,-27,4,3,-16,7
19160,-5,-1,-15,-8,-24,-7,12,45
19165,13,15,22,39,15,14,77,3
19170,-16,-17,-35,-23,2,-10,-82,-102
19175,8,9,20,-14,5,3,36,20
19180,0,-4,-17,6,-1,1,-51,19
19185,0,-8,-38,-15,-9,-3,22,-34
19190,-6,10,57,22,-4,-11,-46,-23
19195,-3,-19,-74,-23,-3,-1,19,70
19200,2,2,58,15,7,10,30,-56
19205,6,5,-8,13,4,8,7,49
19210,1,5,0,-10,-3,0,-11,-3
19215,-2,4,-1,-16,-13,-2,31,9
19220,-4,13,18,54,10,-6,-30,-81
19225,-5,-4,-9,-5,5,6,-13,42
19230,3,-8,2,2,3,1,45,32
19235,-1,3,36,19,2,-4,-41,-15
19240,1,-4,-41,-36,-9,1,48,44
19245,1,8,24,7,-4,-2,-26,-49
19250,0,-4,-3,-19,1,3,30,42
19255,4,-4,-21,19,1,7,4,-11
19260,-11,-8,-4,-2,-3,-18,-26,-53
19265,2,3,-2,-9,-3,4,1,48
19270,4,0,1,-6,-9,3,13,32
19275,-5,-8,-4,0,20,4,14,-54
19280,10,0,9,8,1,-1,-43,10
19285,1,7,15,-20,4,6,55,50
19290,-9,-5,-9,30,-9,-9,-39,-16
19295,-2,-1,-19,-6,-2,-4,2,-31
19300,1,2,10,10,-3,8,14,3
19305,0,-4,5,1,6,1,17,-4
19310,4,0,3,6,5,6,-6,14
19315,-2,0,-22,-7,-8,-14,-51,8
19320,1,3,14,-3,2,1,-6,4
19325,3,-3,-24,3,-4,-4,2,-9
19330,-2,-1,-14,-15,4,5,7,3
19335,-3,23,66,15,2,-4,-25,-16
19340,-3,-14,-20,-2,1,-2,19,5
19345,3,0,2,-4,-3,1,-7,9
19350,-7,10,17,-2,1,-10,-10,-17
19355,3,-2,-13,-10,-11,-7,-22,23
19360,-4,-12,-11,-7,4,8,16,-15
19365,-3,8,26,19,6,3,47,-13
19370,-4,-13,-38,-34,-7,-13,-91,-12
19375,-2,0,19,7,-2,3,-5,-4
19380,-1,3,-9,-17,0,-2,-2,11
19385,2,-10,-10,-7,-5,-3,30,46
19390,3,5,9,25,5,7,48,-25
19395,-9,-7,5,5,6,-5,-44,-8
19400,5,5,-14,-6,-3,4,30,17
19405,3,-14,-58,-4,-1,-7,-57,9
19410,-4,15,42,4,-2,-1,27,1
19415,-1,-5,5,3,2,2,9,26
19420,-1,-5,-10,-1,-1,-4,-18,-40
19425,1,6,8,-4,-8,3,-17,16
19430,-3,-15,-4,-6,-3,-11,-20,-15
19435,6,-2,-17,-6,-5,-1,25,29
19440,0,5,13,1,3,9,16,26
19445,-13,-9,1,-6,-2,-9,-28,-31
19450,-2,1,-19,10,-1,3,-22,-31
19455,0,-15,-33,-4,2,-3,4,5
19460,-4,7,3,-37,-17,-10,17,-19
19465,0,5,20,10,0,-2,-6,-7
19470,3,-10,15,-5,2,8,43,39
19475,4,15,-13,8,-6,8,39,-4
19480,-2,-13,-49,-4,14,-4,-51,21
19485,-9,-4,30,-2,-11,-13,0,-47
19490,8,10,-5,-9,4,5,-17,37
19495,-4,-22,-7,-1,4,7,6,-36
19500,-5,3,5,4,-9,-11,23,39
19505,4,6,20,5,6,9,35,-1
19510,-2,-9,-18,2,-2,2,-41,21
19515,-2,20,37,-2,0,-4,-32,-63
19520,0,-10,5,6,-3,-6,-35,-10
19525,0,-5,-22,-1,3,-5,2,32
19530,-1,-7,19,0,-6,-2,33,-4
19535,-2,14,-12,-10,2,0,-15,-8
19540,5,6,4,7,4,8,24,-9
19545,2,-2,0,-10,1,0,-6,18
19550,6,-2,-1,10,3,-2,16,34
19555,-1,9,17,-27,-3,-6,-13,-42
19560,-6,-8,-6,4,0,1,25,31
19565,1,12,34,1,2,6,-2,-19
19570,2,8,6,3,5,5,0,3
19575,-7,-12,-19,-3,-3,-12,-10,-17
19580,1,11,17,21,-5,-5,-10,-8
19585,-6,-14,-23,-11,2,-1,-33,-21
19590,6,6,-4,12,0,7,77,27
19595,-6,-16,-2,-8,-5,-7,-14,9
19600,-1,4,5,-13,-7,3,6,-36
19605,5,-7,-9,22,10,8,45,58
19610,0,21,15,-28,-1,5,5,-30
19615,1,-6,14,18,-1,-7,-52,-3
19620,-2,-17,-17,-11,-3,-1,10,-4
19625,2,5,39,-1,-4,3,6,11
19630,-6,6,-4,-2,0,-5,-8,-66
19635,4,-7,-8,5,2,9,31,52
19640,0,9,37,-3,-2,-1,-13,15
19645,7,5,-30,-7,-6,0,-20,-13
19650,-9,-8,6,7,-1,-14,-37,14
19655,-12,-7,-18,-1,0,3,32,-17
19660,2,0,-12,17,2,3,43,15
19665,-8,-14,-1,-28,-9,-12,-47,-66
19670,-3,1,25,3,-4,-3,-7,31
19675,2,7,-13,1,-4,-4,-1,2
19680,7,-6,-16,15,20,6,6,57
19685,-8,-8,-15,-10,-7,-4,42,-14
19690,-9,-7,-12,-10,-9,-5,-30,-86
19695,1,12,30,4,-1,6,7,0
19700,3,0,-23,17,-5,-4,-47,28
19705,-3,3,35,1,-1,0,-21,-7
19710,4,-11,-12,6,3,2,1,-3
19715,3,1,-1,-3,0,3,13,40
19720,-9,2,4,-1,-6,-8,-28,-64
19725,-4,1,-18,6,-4,-5,-11,-18
19730,2,-8,-18,-4,-3,0,28,57
19735,4,9,52,30,3,1,-2,-29
19740,-5,2,-12,-11,-6,-8,-34,-11
19745,1,-2,-15,5,5,7,7,-19
19750,-1,-16,12,-6,-2,-5,9,9
19755,-4,9,-39,1,-1,-8,-11,-23
19760,-6,-4,29,12,4,1,2,-29
19765,3,-3,-13,1,-5,0,2,51
19770,8,12,12,6,0,7,0,13
19775,1,-8,4,3,-1,-5,-51,-7
19780,-6,-8,-33,-37,-13,-3,12,-6
19785,7,11,37,7,4,5,47,56
19790,-6,-8,-10,-9,-1,-1,-40,-35
19795,-9,-7,0,-10,-4,-5,17,2
19800,4,0,-16,-6,4,-2,-3,-11
19805,6,7,8,13,8,0,-35,13
19810,-7,-10,-21,-6,-12,-4,14,-22
19815,6,2,4,-1,12,19,54,55
19820,0,8,36,15,-7,-14,-43,-6
19825,-10,0,-13,-7,-5,-13,0,-54
19830,4,1,6,2,1,4,-13,15
19835,-4,-13,-12,-4,-4,-2,-2,-23
19840,6,-2,-2,-11,0,1,2,34
19845,2,4,-6,5,-2,4,-4,26
19850,-4,10,9,2,4,1,59,-27
19855,-14,-19,-26,12,-7,-22,-82,-33
19860,14,8,6,-47,-3,12,50,44
19865,-7,1,15,4,-5,-4,-42,-44
19870,-7,-3,-15,-4,6,-8,9,-22
19875,12,5,5,7,4,11,21,36
19880,-3,1,2,17,7,2,10,11
19885,-11,-13,-24,-9,-10,-12,-59,-82
19890,6,2,3,11,2,4,-20,21
19895,2,19,3,-17,-6,2,60,32
19900,4,-1,14,13,4,10,4,42
19905,-11,-11,-18,2,-1,-13,-21,-35
19910,1,-4,-2,-19,-4,-3,-19,-4
19915,-1,-3,-11,10,-7,-2,29,22
19920,-7,-3,7,3,0,3,-38,-60
19925,4,7,8,-29,-5,9,1,37
19930,2,-4,-16,6,1,-10,-14,2
19935,1,8,21,-4,-4,0,-12,-23
19940,1,-2,-2,10,7,6,40,-5
19945,3,-7,8,6,1,3,-10,7
19950,-2,12,-24,-13,-8,4,26,9
19955,-1,-10,3,-3,7,3,9,22
19960,1,17,25,12,-2,-11,-23,-41
19965,2,4,-6,4,-3,6,33,6
19970,4,-2,-20,4,-3,4,-4,24
19975,0,-5,11,3,-4,-5,-4,-15
19980,-7,-16,-36,-20,-6,-3,9,-4
19985,5,17,34,20,4,9,-11,31
19990,-7,-2,16,14,0,-8,-25,14
19995,-5,-9,-13,-21,-10,-13,-19,-48
20000,1,3,4,4,4,4,2,-15
20005,3,-7,-24,-6,-5,-3,24,57
20010,-7,-2,8,12,16,6,-21,-78
20015,2,7,14,14,6,-1,24,26
20020,6,-9,-31,-12,3,3,28,57
20025,-7,-7,-4,-16,-4,-13,-9,-37
20030,2,0,-15,-12,-7,5,11,-17
20035,-8,-12,-19,-18,4,-10,-57,-11
20040,2,16,36,29,3,3,17,8
20045,-3,-1,-10,-15,1,5,-30,-19
20050,1,-9,-7,1,-7,2,55,33
20055,1,-4,2,-19,-6,4,0,19
20060,-15,-21,-30,-9,-9,-11,11,-31
20065,6,1,30,9,-5,2,-4,16
20070,-10,-2,4,1,0,-7,3,-31
20075,7,7,-36,-4,5,6,-30,12
20080,-5,-5,39,8,-11,3,2,-2
20085,1,1,-4,-5,11,-2,46,5
20090,9,-5,-30,-11,-1,10,12,28
20095,-7,4,27,11,-6,-7,-15,-17
20100,-3,-11,-17,-10,-7,-5,-27,-24
20105,8,6,-22,7,1,2,-31,-24
20110,1,-7,15,-4,3,-7,36,74
20115,-8,10,4,-2,4,11,22,-76
20120,4,-15,-28,-7,-6,-12,-70,-23
20125,-5,14,3,2,-5,-9,12,38
20130,-5,-8,-57,6,-2,-5,-18,-3
20135,9,11,63,38,3,3,-14,-16
20140,10,10,7,-15,4,12,74,77
20145,-12,-24,-31,-3,-3,-8,51,-10
20150,-9,-12,0,-9,-8,-8,-57,-65
20155,-7,3,33,-7,-3,-7,8,23
20160,2,-2,-1,6,3,0,-24,-33
20165,14,16,23,2,-6,12,-27,24
20170,-4,-14,29,1,7,5,91,40
20175,-1,-3,36,-2,-3,5,16,-25
20180,-5,-15,-31,-4,1,-11,-48,-30
20185,-5,-10,30,-5,0,-5,7,26
20190,6,14,3,13,3,7,-56,-6
20195,7,17,-60,-22,0,3,-17,23
20200,-8,-3,19,-8,2,0,38,8
20205,-3,-18,-18,-3,1,9,70,-12
20210,-2,32,36,8,4,-7,-77,-15
20215,0,-19,-42,-23,-4,-2,19,52
20220,2,22,20,7,-2,-3,-31,-31
20225,0,-9,-35,2,-3,14,42,-23
20230,1,-6,34,-8,2,-1,-13,9
20235,4,2,-14,1,2,-4,-9,30
20240,-11,-20,-34,-9,-9,-8,-19,-53
20245,6,9,28,19,13,0,-31,-2
20250,5,6,12,-14,-9,7,73,92
20255,-7,-17,-29,7,-7,-5,-49,-67
20260,-3,-6,-18,-3,-1,-4,20,39
20265,0,0,32,-15,6,-3,-11,-10
20270,-2,-6,-9,9,-4,-8,-39,-16
20275,4,17,15,4,6,14,42,-9
20280,-3,1,2,6,-2,-5,-23,4
20285,1,1,-11,21,0,-7,-2,1
20290,-1,-4,-18,-6,-4,2,-17,-9
20295,-2,-11,18,0,-3,-3,5,-23
20300,1,17,13,10,7,3,27,23
20305,-2,11,-33,9,3,1,-6,24
20310,-1,4,8,12,-1,-8,-31,-32
20315,-3,-16,11,-1,2,7,34,47
20320,4,8,-4,0,-1,14,6,-7
20325,-3,9,50,-7,-5,-13,-23,-31
20330,3,23,35,7,9,3,-30,-36
20335,-3,-19,-58,-18,-12,-4,50,39
20340,4,-5,2,-2,-3,-3,-10,17
20345,-3,4,11,-10,2,10,-18,-1
20350,-3,-13,-25,-11,-15,-5,-3,-42
20355,1,-1,12,8,23,0,-42,-21
20360,2,2,-21,-40,-6,5,62,37
20365,6,4,12,8,0,2,5,33
20370,-5,-11,-15,-2,-3,-5,11,4
20375,6,2,-3,1,-2,-6,-56,-7
20380,5,5,11,5,-1,-1,13,10
20385,-18,-18,5,-11,-4,-5,0,-39
20390,4,5,4,-2,3,1,17,47
20395,-1,7,15,-3,-1,5,4,-56
20400,-4,-1,-11,5,-8,-16,-44,0
20405,-1,1,-8,11,9,1,-14,-41
20410,3,-8,-6,-20,-1,-4,16,54
20415,12,12,13,4,3,7,43,44
20420,-14,-6,-3,6,-9,-2,-29,-42
20425,3,-12,-49,-26,2,3,18,20
20430,-3,15,10,7,0,-1,-28,-47
20435,3,-1,8,9,0,-5,24,39
20440,2,7,27,10,3,2,24,5
20445,2,-4,-17,5,-6,-1,-9,-8
20450,1,3,-6,-25,3,3,-19,3
20455,-7,-6,-38,-5,-3,-4,-14,-25
20460,-1,-6,14,3,-2,0,-24,9
20465,-3,4,-4,5,-1,2,33,-9
20470,0,-3,-6,2,-9,5,34,17
20475,-4,-7,-17,8,2,-6,8,-4
20480,-5,-7,1,-17,3,-8,-46,-42
20485,9,9,8,-3,5,3,-14,16
20490,3,0,-14,-1,-11,7,18,32
20495,-5,-6,3,-4,5,-5,-7,-48
20500,-7,3,28,3,2,-4,2,5
20505,-3,-7,-38,-3,-6,-1,39,23
20510,-1,-1,37,12,-2,-13,-41,-6
20515,-3,5,-5,5,-1,7,-28,-22
20520,9,-4,1,-1,5,13,38,28
20525,-9,-3,-9,-1,-9,-18,-37,-30
20530,1,-8,-4,8,4,-4,-9,-2
20535,-1,0,14,10,0,3,24,51
20540,-3,15,-12,30,7,5,26,-70
20545,4,-4,1,1,-3,1,-10,19
20550,-2,-9,-19,-1,1,5,19,-20
20555,3,3,31,11,-8,-14,-44,40
20560,-1,-13,-13,-23,0,2,20,21
20565,-1,11,10,7,4,-6,-30,-6
20570,1,9,4,8,1,9,41,-6
20575,-8,-7,-16,-3,-5,-6,-53,-26
20580,4,6,27,7,7,3,16,-4
20585,-4,-4,-9,-8,-5,6,1,-13
20590,-3,-10,28,-7,-2,-8,-63,-6
20595,-1,5,-19,-4,-1,15,94,8
20600,-5,-2,7,-4,-8,-13,-20,-2
20605,9,0,7,1,4,1,-25,15
20610,-9,-7,-10,5,1,-2,17,-51
20615,-12,-5,-32,-43,-9,-14,-32,15
20620,-5,-3,-17,12,1,-4,-20,-37
20625,1,-2,18,-5,1,5,11,43
20630,6,-12,-26,-9,-8,2,14,-1
20635,7,18,31,3,5,0,8,25
20640,0,-5,-39,-2,3,2,-1,-39
20645,-3,-2,27,-5,-8,-6,-31,-4
20650,-4,-8,-8,7,5,-6,8,5
20655,1,-11,9,3,-7,-1,1,5
20660,2,6,-21,-9,-1,3,43,13
20665,3,-1,6,12,-6,-6,-27,9
20670,-5,14,-10,-9,1,1,0,-37
20675,10,3,6,14,4,10,-2,21
20680,-5,-25,-24,-13,-7,-11,-26,13
20685,0,19,26,-2,-2,0,6,-8
20690,-2,0,-19,5,1,-2,-13,-10
20695,2,3,17,8,2,7,11,28
20700,2,1,22,1,-1,7,-16,14
20705,-1,-4,-21,-5,7,0,56,-6
20710,-12,1,9,-2,-3,-9,-26,-36
20715,3,-2,-15,1,0,-1,-3,1
20720,-4,-16,12,-5,-4,1,-1,9
20725,6,29,-13,13,-5,-6,-27,-3
20730,1,2,7,-6,9,9,30,5
20735,-4,-12,-18,-13,-13,-5,-20,-25
20740,2,-4,14,6,7,-8,-33,44
20745,-6,15,18,7,0,3,59,-40
20750,0,-6,19,7,-3,-8,-19,4
20755,-10,-7,-20,-44,-15,1,32,-19
20760,2,5,-3,-4,1,-1,9,13
20765,-1,-21,4,1,5,8,-15,7
20770,5,3,-22,6,1,0,17,12
20775,2,9,41,12,3,0,-25,0
20780,-7,0,8,-2,-7,-5,2,-49
20785,1,-7,-31,-14,-1,1,15,24
20790,3,1,4,0,-3,7,13,47
20795,-7,-8,-14,-9,-7,-7,-16,-25
20800,9,10,-23,5,11,2,21,-16
20805,-2,-7,-1,-16,-3,-2,-39,-19
20810,0,2,2,-5,6,6,19,-27
20815,-9,-19,-21,4,-3,-8,15,-1
20820,4,14,10,-8,-9,-6,-7,64
20825,-1,2,10,15,1,0,-5,-62
20830,3,0,-29,-7,-8,-4,-11,41
20835,1,8,53,9,10,3,15,-20
20840,2,1,-7,6,-2,-1,-7,-7
20845,0,-13,-5,-5,2,-3,-30,7
20850,0,-3,-14,3,-6,1,11,53
20855,3,-4,-21,-5,-4,-2,37,-41
20860,0,11,15,6,7,-2,-60,-18
20865,1,-4,-21,-3,-1,5,5,4
20870,2,6,21,5,-3,-1,21,10
20875,-1,2,-19,0,-4,-1,-4,16
20880,-7,-7,-1,3,0,0,13,-9
20885,-4,-8,-2,-11,-6,0,-14,-7
20890,1,-1,-3,5,12,-10,-34,-13
20895,-5,-4,21,-16,-4,-4,9,51
20900,4,13,20,11,4,9,48,-50
20905,-4,-8,-12,-23,-3,-7,-68,13
20910,-3,-2,17,-12,-10,0,7,-15
20915,4,-1,-22,13,8,2,-12,-32
20920,-3,-10,-8,-5,-6,-7,-1,4
20925,-4,2,8,3,4,-2,12,-2
20930,1,-6,-1,7,-3,-7,33,25
20935,-1,6,-7,-13,1,-6,-39,-43
20940,1,-17,-8,-9,-9,8,11,35
20945,2,4,-1,5,-3,-3,17,18
20950,-6,11,46,-14,-2,3,13,-41
20955,-1,-1,-11,17,3,2,-8,15
20960,-6,-9,-21,-8,-4,-10,2,7
20965,1,0,5,-26,-6,1,-27,-1
20970,-1,3,-11,16,11,9,58,-23
20975,-6,-1,15,-39,-3,-9,-30,7
20980,7,3,-13,-3,-1,3,-30,-8
20985,-5,-5,-7,11,-3,-10,-19,1
20990,10,6,3,0,3,7,-23,19
20995,6,5,-2,15,6,13,56,49
21000,-14,0,-5,12,-7,-4,-2,-41
21005,-6,-10,-3,-16,-7,-11,-10,-1
