timestamp,x,y,z
109000433310,-0.258301,0.462891,0.87207
109000449837,-0.27832,0.502441,0.852051
109000472365,-0.277344,0.49707,0.854004
109000486690,-0.262207,0.486328,0.865234
109000509758,-0.267578,0.495117,0.852539
109000532296,-0.274414,0.510254,0.844727
109000553432,-0.243652,0.503418,0.837402
109000569802,-0.244629,0.51123,0.834473
109000592365,-0.258301,0.519043,0.84082
109000613428,-0.260254,0.503906,0.843262
109000630382,-0.263672,0.5,0.837402
109000652383,-0.27832,0.492676,0.86377
109000673480,-0.274414,0.482422,0.854004
109000689884,-0.279785,0.469238,0.861328
109000712360,-0.279297,0.474121,0.859375
109000733445,-0.284668,0.47168,0.855957
109000749820,-0.282227,0.474121,0.864258
109000772366,-0.271484,0.480469,0.853027
109000793549,-0.27002,0.496582,0.851562
109000809819,-0.265625,0.491699,0.849609
109000832322,-0.259277,0.501465,0.846191
109000853478,-0.242676,0.508789,0.822754
109000869746,-0.244629,0.489746,0.851074
109000892773,-0.273926,0.469238,0.87207
109000913462,-0.296387,0.489258,0.887207
109000929848,-0.278809,0.480957,0.848633
109000952345,-0.273926,0.491699,0.834473
109000974792,-0.276367,0.507324,0.827148
109000989799,-0.29248,0.507324,0.836426
109001012341,-0.293457,0.487793,0.835938
109001034793,-0.275391,0.483398,0.847168
109001049826,-0.26123,0.484375,0.855957
109001072314,-0.26709,0.495605,0.853027
109001094827,-0.276855,0.503418,0.847168
109001109172,-0.28125,0.481934,0.841309
109001132308,-0.286621,0.476562,0.85498
109001154794,-0.28418,0.474609,0.861328
109001169128,-0.285156,0.475586,0.855469
109001192358,-0.270996,0.48291,0.859375
109001214862,-0.262207,0.50293,0.835938
109001229150,-0.265137,0.50293,0.833496
109001259852,-0.275391,0.506836,0.846191
109001274821,-0.277832,0.480469,0.842773
109001289169,-0.27832,0.484863,0.86084
109001312367,-0.287598,0.479004,0.85791
109001334844,-0.275879,0.472656,0.856934
109001349184,-0.262695,0.475586,0.85498
109001372324,-0.277344,0.500977,0.840332
109001394816,-0.288086,0.493652,0.848633
109001409179,-0.274902,0.48584,0.847168
109001432343,-0.276367,0.487793,0.852539
109001454871,-0.27832,0.485352,0.857422
109001475962,-0.282227,0.483887,0.87207
109001492374,-0.291992,0.491699,0.863281
109001514772,-0.285645,0.478027,0.862793
109001536026,-0.267578,0.482422,0.84082
109001552304,-0.281738,0.498047,0.833496
109001574883,-0.280273,0.496094,0.841797
109001596007,-0.266602,0.452148,0.884766
109001612386,-0.246094,0.444336,0.879883
109001634863,-0.243164,0.477051,0.851074
109001655736,-0.240723,0.499023,0.854004
109001672421,-0.27002,0.477539,0.865234
109001694891,-0.259277,0.449219,0.873535
109001715931,-0.242188,0.493164,0.85498
109001739899,-0.24707,0.512695,0.836914
109001754852,-0.222656,0.523438,0.831055
109001775966,-0.209473,0.532715,0.837891
109001792402,-0.217773,0.539551,0.827637
109001814901,-0.207031,0.527832,0.841309
109001835954,-0.219238,0.52002,0.844238
109001852342,-0.243164,0.502441,0.859375
109001874840,-0.23291,0.480469,0.864746
109001897357,-0.227539,0.483887,0.855957
109001912361,-0.228027,0.50293,0.845703
109001934922,-0.222656,0.52002,0.836426
109001957452,-0.21875,0.528809,0.824219
109001972391,-0.25293,0.528809,0.848633
109001994927,-0.246094,0.527832,0.85791
109002017314,-0.223145,0.461914,0.876465
109002031630,-0.206543,0.445801,0.880371
109002054817,-0.202637,0.476562,0.852051
109002077483,-0.20166,0.501953,0.839844
109002091741,-0.213379,0.510254,0.832031
109002114840,-0.199707,0.485352,0.834961
109002137375,-0.216797,0.495117,0.819824
109002151776,-0.255371,0.577148,0.830566
109002174874,-0.247559,0.584473,0.841309
109002197405,-0.235352,0.534668,0.849609
109002211715,-0.253906,0.484375,0.879883
109002234877,-0.241699,0.493652,0.866211
109002257345,-0.243164,0.515137,0.839844
109002271765,-0.258301,0.508301,0.836914
109002294833,-0.255859,0.497559,0.85791
109002317378,-0.257324,0.515137,0.838379
109002331692,-0.266113,0.509766,0.837891
109002354846,-0.26709,0.507324,0.835938
109002377394,-0.256836,0.506348,0.846191
109002398534,-0.244141,0.489258,0.865234
109002414878,-0.231445,0.499023,0.848633
109002437349,-0.243652,0.505371,0.84668
109002458630,-0.259277,0.515625,0.837891
109002474906,-0.268066,0.499023,0.841797
109002497345,-0.26709,0.489746,0.85791
109002518566,-0.247559,0.494629,0.849609
109002534942,-0.244141,0.503906,0.845703
109002557428,-0.256836,0.511719,0.841797
109002578443,-0.259766,0.501465,0.853027
109002594891,-0.262695,0.48877,0.854004
109002617399,-0.269531,0.504883,0.84375
109002638608,-0.262207,0.496094,0.848633
109002654867,-0.250977,0.500488,0.854004
109002677416,-0.253418,0.498047,0.852539
109002698632,-0.255371,0.503418,0.845703
109002714895,-0.261719,0.505371,0.846191
109002737339,-0.262695,0.509277,0.837402
109002758590,-0.260254,0.501465,0.84375
109002774936,-0.25,0.496582,0.850586
109002797367,-0.258789,0.498047,0.849121
109002818596,-0.275879,0.496582,0.850586
109002834249,-0.262695,0.489746,0.859375
109002857387,-0.258789,0.501465,0.848145
109002879923,-0.260742,0.511719,0.839355
109002894878,-0.251465,0.508301,0.829102
109002917399,-0.250977,0.514648,0.84375
109002939875,-0.254395,0.510254,0.842285
109002954854,-0.259766,0.511719,0.842773
109002977432,-0.255371,0.499512,0.843262
109002999918,-0.243652,0.500977,0.848145
109003014320,-0.254395,0.511719,0.839844
109003037428,-0.261719,0.512207,0.847168
109003059916,-0.24707,0.486328,0.851074
109003074224,-0.253418,0.492676,0.859863
109003097364,-0.25,0.492676,0.856934
109003127375,-0.254883,0.513672,0.851074
109003134213,-0.260254,0.529297,0.826172
109003157450,-0.259277,0.545898,0.833008
109003179914,-0.254395,0.527344,0.837891
109003194323,-0.245605,0.522949,0.842285
109003217448,-0.243652,0.517578,0.849121
109003239922,-0.250977,0.52832,0.845215
109003262390,-0.256348,0.536621,0.844238
109003277395,-0.249512,0.54541,0.84375
109003299920,-0.243164,0.536133,0.837891
109003321024,-0.263184,0.547363,0.836426
109003337427,-0.268066,0.538574,0.831055
109003359873,-0.252441,0.537109,0.82959
109003381041,-0.225586,0.539062,0.799805
109003403616,-0.208496,0.569336,0.794434
109003419962,-0.214355,0.595215,0.779785
109003440983,-0.195801,0.601074,0.785645
109003457395,-0.188477,0.594238,0.78418
109003479969,-0.187988,0.584961,0.796387
109003500983,-0.194824,0.587891,0.805176
109003517420,-0.189453,0.586426,0.812012
109003539925,-0.181641,0.572754,0.815918
109003561060,-0.181152,0.554199,0.814941
109003577467,-0.20459,0.561035,0.824219
109003599958,-0.209961,0.540527,0.829102
109003620957,-0.208008,0.51709,0.84668
109003637442,-0.21582,0.499512,0.867676
109003659924,-0.22168,0.489258,0.863281
109003682445,-0.237793,0.492188,0.868652
109003697488,-0.24707,0.489258,0.871094
109003719978,-0.219238,0.455078,0.87207
109003741089,-0.235352,0.493164,0.84082
109003757442,-0.23877,0.572266,0.797363
109003779983,-0.226074,0.557129,0.82666
109003802438,-0.197754,0.512695,0.806152
109003816795,-0.202637,0.553711,0.806641
109003839995,-0.251465,0.58252,0.797363
109003862474,-0.253906,0.524902,0.85498
109003876752,-0.225586,0.445801,0.918945
109003900065,-0.235352,0.408691,0.908691
109003922415,-0.238281,0.41748,0.918945
109003936772,-0.228516,0.431641,0.90918
109003960389,-0.251953,0.435547,0.895508
109003982443,-0.248047,0.415039,0.87793
109003996770,-0.245605,0.400879,0.875488
109004020005,-0.259277,0.458496,0.86084
109004042443,-0.288574,0.397949,0.871582
109004063641,-0.27832,0.242188,0.915527
109004079914,-0.272461,0.453613,1.01318
109004102419,-0.373535,0.476074,0.91748
109004123490,-0.364258,0.369629,0.901367
109004139929,-0.268066,0.266602,0.966309
109004162385,-0.202148,0.273926,0.93457
109004183490,-0.199707,0.37207,0.861328
109004199684,-0.258789,0.444336,0.846191
109004222439,-0.313965,0.445312,0.873047
109004244935,-0.243652,0.403809,0.929688
109004259934,-0.227539,0.433594,0.896484
109004282416,-0.246094,0.504883,0.87793
109004303400,-0.216309,0.525879,0.86084
109004310293,-0.169434,0.538574,0.845215
109004325321,-0.153809,0.533691,0.822266
109004347809,-0.145996,0.564453,0.813965
109004370336,-0.165527,0.539062,0.821777
109004385301,-0.161133,0.549316,0.82373
109004407806,-0.160156,0.538086,0.82666
109004439248,-0.148438,0.506836,0.853516
109004445292,-0.145996,0.483398,0.850098
109004467825,-0.155273,0.506836,0.847656
109004490378,-0.181152,0.512695,0.852051
109004512827,-0.195312,0.515137,0.858398
109004528008,-0.205566,0.518066,0.866211
109004550335,-0.202637,0.498535,0.880859
109004565356,-0.202148,0.490723,0.869141
109004587868,-0.217285,0.513672,0.850586
109004610339,-0.229004,0.525391,0.849609
109004625503,-0.220215,0.505859,0.865234
109004647845,-0.217773,0.478516,0.879395
109004670394,-0.209961,0.472168,0.883301
109004685367,-0.212402,0.493164,0.871094
109004707819,-0.199219,0.519531,0.824219
109004730520,-0.202637,0.555176,0.825684
109004745335,-0.182129,0.52832,0.82666
109004767801,-0.188965,0.545898,0.860352
109004791820,-0.179688,0.543945,0.866699
109004805310,-0.165039,0.545898,0.848145
109004827898,-0.168457,0.54834,0.86084
109004850328,-0.169434,0.583496,0.879883
109004865346,-0.16748,0.629395,0.932129
109004888047,-0.16748,0.633789,1.00439
109004910330,-0.207031,0.598145,1.0874
109004925377,-0.268066,0.583008,1.17676
109004950743,-0.353516,0.600586,1.21875
109004970395,-0.359375,0.618652,1.24609
109004985328,-0.144043,0.669434,1.27051
109005007887,-0.101074,0.594238,1.24219
109005030505,-0.30127,0.771484,1.15771
109005046087,-0.188477,0.885742,0.938965
109005067817,-0.0585938,0.943848,0.868164
109005090381,-0.0766602,0.775879,0.806152
109005105336,-0.09375,0.618652,0.717773
109005127880,-0.0483398,0.567383,0.625488
109005150397,-0.0498047,0.532715,0.547852
109005165342,-0.0517578,0.546387,0.453613
109005187868,-0.034668,0.535645,0.337891
109005210365,-0.00537109,0.473633,0.246582
109005225358,0.00292969,0.42041,0.168945
109005248583,-0.0224609,0.391602,0.0932617
109005270349,-0.0664062,0.36084,0.0283203
109005285507,-0.0981445,0.315918,0.00976562
109005307857,-0.0761719,0.266602,-0.0180664
109005330361,0.00195312,0.277344,0.0146484
109005346959,0.0981445,0.244141,0.118164
109005367847,0.228516,0.34375,0.395996
109005390572,0.333984,0.641113,0.474121
109005406871,0.257324,0.900879,0.827637
109005427934,-0.10791,1.07031,1.30176
109005450512,-0.338379,1.25391,1.07324
109005466809,-0.524414,1.49609,1.11816
109005487950,-0.501953,1.58984,1.21875
109005510354,-0.181152,1.45117,1.47363
109005526853,0.0771484,1.17627,1.49072
109005548061,0.182617,1.19531,1.39795
109005570458,0.0893555,1.31201,1.26123
109005588488,-0.0776367,1.25049,1.16455
109005607881,-0.148438,1.10596,1.10205
109005630362,-0.17334,1.01709,1.06885
109005648477,-0.0966797,1.01025,0.976562
109005667836,-0.0449219,1.04395,0.833008
109005690509,-0.0224609,0.880859,0.678223
109005708515,0.0351562,0.656738,0.557129
109005727857,0.0283203,0.54834,0.422363
109005750407,-0.00634766,0.368652,0.274414
109005768330,-0.0297852,0.34082,0.0864258
109005788036,-0.0751953,0.287598,-0.0864258
109005810448,-0.0546875,0.337402,-0.046875
109005828294,-0.0214844,0.334961,0.0512695
109005848043,-0.0102539,0.274902,0.194824
109005871117,0.0712891,0.293457,0.349609
109005893718,0.155762,0.29248,0.495605
109005907877,0.104492,0.289551,0.652832
109005930436,0.224121,0.483887,0.429688
109005945564,0.288086,0.449219,0.963379
109005967886,0.826172,0.73877,1.44092
109005990479,0.551758,0.766113,0.970215
109006005371,0.0410156,0.660645,0.381836
109006027886,-0.243164,0.619629,0.265625
109006059349,0.0488281,0.719727,0.864746
109006065413,0.171387,0.883789,0.742188
109006088497,0.305176,0.788574,0.896973
109006110650,0.264648,0.758301,0.88916
109006125403,0.243164,0.72168,0.867188
109006147961,0.231934,0.708984,0.84375
109006170394,0.223633,0.730957,0.798828
109006185406,0.546875,0.649902,1.06348
109006208001,0.480469,0.800781,0.916016
109006224338,-0.123047,0.479492,0.635742
109006245330,0.0292969,0.473145,0.797363
109006267897,0.65332,0.751465,0.945312
109006284346,-0.367188,0.564453,0.47998
109006305482,0.597168,0.763184,0.866211
109006327883,-0.180176,0.517578,0.68457
109006344347,0.341309,0.76709,0.708008
109006365540,0.209473,0.522949,0.938477
109006387914,-0.0708008,0.739746,0.443359
109006404334,0.490234,0.585449,1.08594
109006425379,-0.361816,0.689941,0.350586
109006447889,0.745605,0.662598,1.11719
109006464427,-0.429199,0.611816,0.417969
109006486834,0.678223,0.758301,0.984375
109006508060,-0.267578,0.563477,0.633301
109006524457,0.448242,0.785645,0.797852
109006546860,0.0751953,0.671387,0.804199
109006567896,0.151855,0.648438,0.791992
109006584406,0.171387,0.669434,0.771484
109006606850,0.179688,0.67334,0.759277
109006628197,0.164062,0.680664,0.777344
109006644364,0.163086,0.658691,0.767578
109006666858,0.173828,0.647461,0.777832
109006687944,0.176758,0.650391,0.77002
109006704373,0.161621,0.677734,0.777832
109006734417,0.149414,0.64502,0.767578
109006747931,0.164551,0.635254,0.774414
109006765876,0.150879,0.640137,0.752441
109006787548,0.146484,0.654297,0.745117
109006810033,0.147949,0.644043,0.742188
109006824439,0.147461,0.634766,0.747559
109006847565,0.15332,0.634766,0.754883
109006870078,0.154297,0.625488,0.744629
109006884416,0.154297,0.634277,0.735352
109006907542,0.152344,0.645996,0.754395
109006930074,0.146484,0.637695,0.754883
109006944397,0.145996,0.633789,0.755859
109006967597,0.146973,0.627441,0.756348
109006990092,0.151855,0.626465,0.76123
109007011107,0.146973,0.632324,0.764648
109007027571,0.144043,0.624512,0.762695
109007050078,0.150879,0.62793,0.774902
109007064396,0.149414,0.628906,0.768555
109007087592,0.13623,0.629883,0.766113
109007110032,0.14502,0.634766,0.770996
109007131238,0.150391,0.64209,0.76709
109007147521,0.152344,0.634766,0.775879
109007170024,0.150391,0.646484,0.772949
109007191223,0.141602,0.649414,0.771484
109007207509,0.144531,0.634766,0.773438
109007230055,0.148438,0.63623,0.771973
109007251120,0.155762,0.63916,0.77002
109007268657,0.147949,0.634277,0.769531
109007290131,0.142578,0.63916,0.766602
109007312517,0.146973,0.634277,0.777832
109007327572,0.141602,0.638672,0.777344
109007350012,0.131836,0.640137,0.76416
109007371116,0.134766,0.637695,0.763672
109007387595,0.14209,0.648438,0.762695
109007410015,0.135742,0.652344,0.760742
109007431184,0.141602,0.632812,0.772949
109007447619,0.14502,0.619629,0.765625
109007470067,0.131836,0.625,0.782715
109007491209,0.139648,0.666016,0.759277
109007507557,0.135742,0.650391,0.760254
109007530069,0.134766,0.649414,0.761719
109007552554,0.13916,0.646484,0.754883
109007567505,0.129883,0.631836,0.776367
109007590027,0.132324,0.623535,0.772949
109007612589,0.137695,0.628906,0.776367
109007626928,0.14502,0.633789,0.769531
109007650079,0.141113,0.638672,0.768066
109007672568,0.131348,0.641602,0.776367
109007687603,0.12207,0.657227,0.763672
109007710109,0.13916,0.668945,0.765137
109007732574,0.13916,0.63916,0.77832
109007746920,0.131348,0.633789,0.794922
109007770515,0.128418,0.648438,0.765137
109007792592,0.13916,0.670898,0.758789
109007806918,0.132324,0.645996,0.76123
109007829998,0.126953,0.640625,0.76123
109007852661,0.125488,0.634766,0.764648
109007866955,0.131836,0.630859,0.773438
109007890030,0.126465,0.615234,0.762207
109007912583,0.127441,0.616699,0.768066
109007926915,0.140137,0.621582,0.769531
109007950107,0.128418,0.636719,0.757812
109007972603,0.118652,0.642578,0.763672
109007986928,0.132812,0.626953,0.771484
109008010162,0.133301,0.613281,0.774902
109008032645,0.128906,0.623535,0.774414
109008046971,0.125488,0.626465,0.774414
109008070097,0.125488,0.637207,0.775391
109008092610,0.119629,0.642578,0.768066
109008121132,0.134766,0.646973,0.763184
109008130047,0.132812,0.628418,0.776367
109008152697,0.134277,0.626953,0.781738
109008173667,0.12207,0.633301,0.773926
109008191839,0.119141,0.650391,0.763184
109008212612,0.117188,0.646973,0.771484
109008233666,0.125,0.636719,0.783691
109008250151,0.117188,0.627441,0.771973
109008272621,0.124512,0.629395,0.775391
109008293376,0.126953,0.63623,0.774414
109008310058,0.118164,0.630859,0.767578
109008332580,0.121094,0.628906,0.778809
109008353802,0.132812,0.639648,0.776367
109008370572,0.119141,0.656738,0.772949
109008394788,0.108398,0.632812,0.765625
109008413804,0.103516,0.621582,0.772461
109008430081,0.10498,0.612305,0.775879
109008452620,0.097168,0.615723,0.77002
109008473668,0.105469,0.615723,0.782227
109008496124,0.102051,0.640625,0.778809
109008512650,0.10498,0.645508,0.776855
109008535102,0.102051,0.653809,0.762207
109008550163,0.0893555,0.620117,0.775391
109008572692,0.105957,0.612305,0.787598
109008596333,0.108887,0.625488,0.775391
109008610197,0.0996094,0.670898,0.77002
109008632596,0.117188,0.678711,0.748535
109008655045,0.117676,0.631836,0.761719
109008676159,0.0888672,0.603027,0.780273
109008692624,0.102539,0.628418,0.80127
109008715164,0.131836,0.633301,0.794434
109008729484,0.131836,0.666016,0.792969
109008752632,0.149902,0.699707,0.753418
109008775149,0.0800781,0.693848,0.738281
109008789463,0.0107422,0.622559,0.811523
109008812728,0.120117,0.638672,0.899414
109008835104,0.17041,0.562988,0.804199
109008856388,0.111816,0.475098,0.84082
109008872751,0.133301,0.716797,0.681641
109008895097,0.0917969,0.794434,0.699219
109008916304,0.129883,0.696289,0.746094
109008932651,0.118652,0.549805,0.825684
109008955183,0.118164,0.504883,0.806641
109008976208,0.140137,0.651855,0.745605
109008992590,0.130371,0.769043,0.686035
109009015170,0.124023,0.689453,0.742188
109009036147,0.115723,0.635742,0.758301
109009052628,0.114258,0.573242,0.800293
109009082582,0.130859,0.629395,0.776367
109009096169,0.162109,0.67627,0.711426
109009112812,0.145508,0.710449,0.710938
109009135141,0.108398,0.662109,0.743652
109009156305,0.118652,0.599121,0.791504
109009172695,0.101074,0.537598,0.793945
109009195511,0.106445,0.571777,0.86377
109009216399,0.136719,0.665039,0.780762
109009232690,0.0922852,0.63916,0.742676
109009255161,0.119629,0.711426,0.654785
109009277717,0.159668,0.76416,0.623047
109009292638,0.0932617,0.755371,0.680176
109009315218,0.125977,0.695312,0.708984
109009339068,0.138184,0.634277,0.744141
109009351930,0.0996094,0.612305,0.730469
109009375235,0.103027,0.602539,0.739746
109009403725,0.108887,0.605469,0.725098
109009411943,0.0893555,0.59668,0.719727
109009435185,0.0810547,0.59375,0.736328
109009457705,0.0717773,0.563965,0.724609
109009478851,0.0698242,0.590332,0.729492
109009495166,0.0722656,0.613281,0.731934
109009517627,0.0722656,0.620117,0.746094
109009538777,0.0766602,0.621582,0.761719
109009555145,0.0800781,0.65918,0.751953
109009583764,0.0693359,0.657715,0.726562
109009592020,0.0766602,0.655273,0.750977
109009615535,0.090332,0.657715,0.768066
109009637728,0.0927734,0.666016,0.754883
109009651967,0.0795898,0.67334,0.73584
109009675278,0.0791016,0.674316,0.764648
109009697657,0.102051,0.663086,0.763672
109009711944,0.118652,0.642578,0.759277
109009735230,0.126465,0.645996,0.756348
109009757635,0.124023,0.66748,0.737793
109009778703,0.100098,0.685059,0.706543
109009795181,0.0639648,0.630859,0.664551
109009817934,0.0483398,0.650391,0.697266
109009838841,0.046875,0.689453,0.706055
109009855151,0.0126953,0.696777,0.720215
109009877756,-0.00976562,0.696289,0.729004
109009898734,-0.0161133,0.741699,0.743652
109009915332,-0.0375977,0.744141,0.712402
109009937754,-0.0449219,0.70459,0.748047
109009958728,-0.0180664,0.681641,0.758789
109009975321,-0.00585938,0.71582,0.736328
109009997663,-0.0209961,0.766113,0.729492
109010020188,-0.027832,0.759277,0.711914
109010035200,-0.0380859,0.681641,0.712891
109010065163,-0.0600586,0.635254,0.712891
109010078839,-0.0581055,0.674805,0.652832
109010095182,-0.0473633,0.737793,0.657227
109010117634,-0.0400391,0.751953,0.63623
109010138787,-0.046875,0.733887,0.67334
109010155234,-0.00195312,0.799316,0.748535
109010177668,0.0634766,0.884277,0.772461
109010198859,0.0859375,0.954102,0.822754
109010215182,0.146484,0.924805,0.814453
109010237666,0.0791016,0.883789,0.795898
109010258751,0.0180664,0.858398,0.696777
109010275186,-0.00537109,0.827148,0.620605
109010297689,0.0102539,0.79541,0.601074
109010318728,0.0410156,0.773438,0.588867
109010342730,0.0634766,0.806152,0.576172
109010357692,0.0932617,0.861816,0.553711
109010378751,0.103027,0.872559,0.536621
109010394560,0.106934,0.852539,0.549316
109010417683,0.109863,0.824219,0.569824
109010440230,0.0976562,0.830078,0.58252
109010454572,0.0664062,0.838867,0.587402
109010477732,0.0375977,0.842773,0.58252
109010500195,0.00927734,0.841309,0.599121
109010515174,0.00634766,0.845703,0.622559
109010537689,0.00195312,0.826172,0.62793
109010560276,0.00683594,0.80127,0.637695
109010574532,0.0244141,0.773438,0.646484
109010597712,0.0385742,0.776367,0.649414
109010620141,0.0371094,0.772461,0.647461
109010634532,0.0473633,0.76709,0.654785
109010657744,0.0600586,0.76416,0.658203
109010680134,0.0644531,0.762207,0.633301
109010694629,0.0566406,0.759766,0.631836
109010717723,0.0532227,0.785645,0.651367
109010740222,0.059082,0.806641,0.63916
109010754565,0.065918,0.800293,0.608887
109010777770,0.0561523,0.766602,0.64209
109010800215,0.0410156,0.808594,0.655762
109010814515,0.0371094,0.832031,0.602539
109010837723,0.0449219,0.794922,0.681641
109010860277,0.0810547,0.806641,0.57959
109010865555,0.0585938,0.731445,0.660645
109010897103,0.103516,0.750977,0.666016
109010903139,0.0727539,0.78418,0.621094
109010925548,0,0.807617,0.63623
109010948183,0.0576172,0.754883,0.661621
109010963136,0.100098,0.772949,0.631836
109010985579,0.043457,0.742676,0.659668
109011008245,0.0874023,0.78418,0.665039
109011025979,0.0527344,0.816895,0.59668
109011045686,0.0268555,0.792969,0.630859
109011068110,0.074707,0.770996,0.65918
109011083052,0.0541992,0.783203,0.664062
109011105788,0.0415039,0.794922,0.625
109011128086,0.0385742,0.793945,0.625977
109011143110,0.0615234,0.716309,0.650391
109011165715,0.0791016,0.785156,0.633789
109011182029,0.0737305,0.837402,0.592285
109011203254,0.043457,0.845703,0.575684
109011225609,0.043457,0.805664,0.601074
109011242153,0.0600586,0.743652,0.673828
109011263388,0.0991211,0.773438,0.650391
109011285606,0.0830078,0.816406,0.620605
109011302095,0.0556641,0.817383,0.603027
109011323290,0.0859375,0.784668,0.587402
109011345990,0.0805664,0.77002,0.62793
109011363625,0.103027,0.803223,0.599121
109011383126,0.0673828,0.833984,0.606934
109011405650,0.0429688,0.803223,0.637695
109011431026,0.0541992,0.745117,0.665527
109011450610,0.0795898,0.711426,0.685059
109011465878,0.119141,0.751953,0.569336
109011488127,0.074707,0.904297,0.536621
109011503189,0.00488281,0.916016,0.556641
109011525783,0.0473633,0.819336,0.619141
109011549654,0.09375,0.725586,0.624512
109011563242,0.0756836,0.695801,0.669922
109011585738,0.0883789,0.755859,0.64209
109011603562,0.0708008,0.852539,0.598633
109011623120,0.0517578,0.889648,0.606934
109011645621,0.0576172,0.842773,0.584473
109011663602,0.0527344,0.793457,0.605957
109011683118,0.0820312,0.812012,0.586914
109011707081,0.0786133,0.86377,0.561523
109011723638,0.046875,0.853027,0.594238
109011743172,0.0458984,0.796875,0.62793
109011765761,0.0639648,0.75293,0.63623
109011783523,0.0708008,0.74707,0.653809
109011803107,0.0517578,0.770996,0.642578
109011825845,0.0410156,0.808105,0.641113
109011843592,0.0307617,0.80127,0.64502
109011863163,0.0449219,0.772461,0.652832
109011887125,0.0527344,0.75293,0.652344
109011903536,0.0385742,0.774414,0.647461
109011923154,0.0205078,0.773926,0.655273
109011953172,0.0327148,0.775879,0.672363
109011963576,0.043457,0.75293,0.674805
109011984599,0.0454102,0.749023,0.669922
109012008599,0.0273438,0.752441,0.654297
109012023609,0.0283203,0.771973,0.659668
109012044610,0.0439453,0.783691,0.65625
109012065616,0.0556641,0.762695,0.651855
109012083598,0.0639648,0.76123,0.650879
109012104614,0.0600586,0.765137,0.651367
109012125650,0.0571289,0.776367,0.641113
109012143623,0.0600586,0.785645,0.641113
109012164535,0.0673828,0.779785,0.63623
109012185674,0.0512695,0.77832,0.638672
109012203573,0.059082,0.787598,0.625
109012224597,0.0581055,0.791016,0.632324
109012245675,0.0571289,0.787109,0.648926
109012265416,0.0537109,0.776367,0.634277
109012284594,0.0488281,0.788086,0.644531
109012305696,0.0546875,0.77832,0.647949
109012323584,0.0620117,0.776367,0.654297
109012346098,0.0493164,0.773926,0.650391
109012368579,0.0483398,0.786133,0.640625
109012383790,0.0458984,0.774414,0.650391
109012406005,0.0581055,0.762207,0.654785
109012425763,0.0498047,0.764648,0.649902
109012443717,0.0454102,0.777344,0.648926
109012470702,0.050293,0.771484,0.648438
109012485717,0.0488281,0.778809,0.65625
109012503552,0.0522461,0.765625,0.654297
109012526099,0.0581055,0.763672,0.65332
109012545818,0.0561523,0.770996,0.644531
109012563563,0.0522461,0.782715,0.64209
109012586140,0.0517578,0.777832,0.649902
109012605665,0.0541992,0.762207,0.647949
109012623543,0.0546875,0.774902,0.648926
109012646273,0.0561523,0.779297,0.646484
109012665686,0.0537109,0.770996,0.648926
109012683711,0.0551758,0.771484,0.649902
109012706159,0.0483398,0.780273,0.645996
109012725674,0.0507812,0.770996,0.654785
109012743643,0.0527344,0.772949,0.653809
109012766069,0.0507812,0.765625,0.652344
109012788699,0.0522461,0.774902,0.650879
109012803554,0.0517578,0.77002,0.65918
109012826100,0.0517578,0.767578,0.656738
109012845903,0.0527344,0.772949,0.653809
109012869651,0.050293,0.777832,0.652832
109012886121,0.046875,0.772949,0.652832
109012907154,0.0507812,0.774414,0.65332
109012923649,0.0507812,0.760742,0.660156
109012946283,0.0488281,0.765137,0.656738
109012967078,0.0454102,0.770508,0.658691
109012983678,0.0522461,0.774902,0.659668
109013006132,0.0498047,0.770996,0.655273
109013027096,0.0571289,0.773438,0.660156
109013043764,0.0649414,0.789062,0.661621
109013066096,0.0371094,0.804199,0.598633
109013087147,0.0249023,0.744141,0.662598
109013103656,0.0620117,0.760742,0.69873
109013125283,0.0517578,0.778809,0.663574
109013146416,0.0395508,0.76709,0.618652
109013162793,0.034668,0.72168,0.692871
109013185032,0.0566406,0.745605,0.715332
109013206452,0.0761719,0.788086,0.60791
109013222751,0.0522461,0.783691,0.680664
109013245445,-0.0234375,0.793457,0.631836
109013267801,0.0234375,0.839355,0.649902
109013283820,0.112305,0.768066,0.615234
109013305410,0.0888672,0.749512,0.613281
109013327792,0.0454102,0.823242,0.556152
109013342196,0.034668,0.808105,0.686035
109013365304,0.0908203,0.789062,0.622559
109013394049,0.0439453,0.791992,0.614258
109013402873,0.0541992,0.729492,0.649902
109013425284,0.0556641,0.773926,0.65625
109013447885,0.0424805,0.779297,0.662109
109013462184,0.0493164,0.77832,0.651855
109013492982,0.0380859,0.805664,0.621094
109013507815,0.0527344,0.766113,0.614746
109013522139,0.0375977,0.77832,0.664062
109013545361,0.0869141,0.791504,0.652832
109013567845,0.078125,0.796875,0.595215
109013583133,0.0644531,0.794434,0.578613
109013605358,0.0585938,0.799316,0.601074
109013627843,0.0439453,0.772461,0.663086
109013642231,0.0849609,0.791504,0.686523
109013672804,0.106934,0.822266,0.609375
109013688504,0.0507812,0.800293,0.568848
109013702228,0.0732422,0.783203,0.608398
109013726779,0.0615234,0.740723,0.617188
109013754064,0.0683594,0.740234,0.706543
109013768899,0.0952148,0.793945,0.711426
109013785309,0.0834961,0.824707,0.569824
109013807883,0.0336914,0.795898,0.546387
109013828839,0.0668945,0.867676,0.556641
109013845370,0.0776367,0.843262,0.582031
109013867861,0.119629,0.82373,0.643555
109013888990,0.103027,0.805664,0.611816
109013906798,0.0512695,0.756836,0.60791
109013927793,0.0693359,0.744141,0.633301
109013948901,0.0844727,0.771484,0.655273
109013965359,0.0732422,0.79541,0.625977
109013988534,0.0610352,0.790527,0.645996
109014009047,0.0541992,0.76416,0.660645
109014025415,0.0322266,0.740234,0.662598
109014047857,0.0126953,0.73584,0.686035
109014068960,0.0478516,0.79248,0.674316
109014085307,0.0703125,0.80127,0.65625
109014107889,0.0688477,0.757324,0.642578
109014128944,0.0688477,0.752441,0.631348
109014145318,0.0571289,0.758301,0.634277
109014167896,0.0551758,0.808594,0.647461
109014188891,0.0664062,0.835449,0.621094
109014205307,0.0532227,0.783691,0.625977
109014227947,0.0620117,0.775391,0.643066
109014250383,0.0664062,0.798828,0.637695
109014279104,0.0537109,0.801758,0.623535
109014287800,0.043457,0.76709,0.663574
109014310369,0.0605469,0.75,0.674805
109014325334,0.0581055,0.749512,0.65625
109014347868,0.0419922,0.772949,0.663086
109014370405,0.0395508,0.770996,0.655762
109014384700,0.0483398,0.771484,0.647949
109014408584,0.0532227,0.760254,0.648926
109014430369,0.0541992,0.777832,0.65918
109014444715,0.0493164,0.780762,0.64502
109014467871,0.0458984,0.772461,0.643066
109014490370,0.0498047,0.76123,0.654785
109014504661,0.050293,0.763184,0.665527
109014527898,0.0541992,0.775391,0.658203
109014550342,0.0532227,0.782227,0.65625
109014571583,0.0517578,0.776855,0.637207
109014587854,0.0488281,0.77832,0.647461
109014611079,0.0488281,0.773438,0.649414
109014624722,0.0498047,0.770508,0.654297
109014647887,0.0483398,0.763672,0.65918
109014670492,0.0517578,0.769531,0.65625
109014691475,0.0473633,0.768555,0.657715
109014707837,0.050293,0.766113,0.652832
109014730365,0.0541992,0.77832,0.656738
109014751387,0.0483398,0.769531,0.651855
109014767866,0.0581055,0.772949,0.655273
109014790395,0.0507812,0.763672,0.665039
109014811424,0.0478516,0.773926,0.655762
109014835421,0.0498047,0.775391,0.659668
109014850368,0.0571289,0.771484,0.65625
109014871534,0.0551758,0.76416,0.653809
109014887898,0.0532227,0.765625,0.651855
109014910410,0.0527344,0.76416,0.655273
109014931422,0.0537109,0.768066,0.655273
109014947692,0.0410156,0.759277,0.653809
109014970394,0.0483398,0.777344,0.660645
109014991507,0.0444336,0.766113,0.660645
109015007838,0.0483398,0.763672,0.65918
109015030435,0.043457,0.76709,0.655762
109015058964,0.0522461,0.773926,0.647949
109015067849,0.0498047,0.774902,0.657715
109015090478,0.0522461,0.767578,0.657715
109015111458,0.0512695,0.770508,0.655762
109015128002,0.0546875,0.774414,0.653809
109015156445,0.0532227,0.766113,0.65625
109015172843,0.0517578,0.766113,0.650879
109015187924,0.0483398,0.768066,0.658691
109015210391,0.0541992,0.76416,0.652344
109015232990,0.0473633,0.771484,0.65918
109015247974,0.0537109,0.769531,0.654297
109015270377,0.0532227,0.771484,0.651367
109015292935,0.050293,0.767578,0.652344
109015307277,0.0493164,0.769531,0.651367
109015330572,0.0517578,0.770996,0.647949
109015360384,0.0478516,0.772949,0.650879
109015367287,0.0532227,0.77002,0.649414
109015390606,0.0561523,0.770508,0.649414
109015412859,0.0541992,0.765137,0.651855
109015427317,0.0517578,0.776367,0.657227
109015450448,0.0571289,0.771484,0.646973
109015472883,0.050293,0.777832,0.65332
109015487368,0.0498047,0.767578,0.65918
109015510421,0.0541992,0.766113,0.655273
109015539040,0.0517578,0.768066,0.645508
109015547375,0.0546875,0.767578,0.660645
109015570406,0.0571289,0.758301,0.656738
109015593087,0.0527344,0.779785,0.658691
109015613977,0.0541992,0.798828,0.65625
109015630427,0.0605469,0.850098,0.640137
109015652922,0.0141602,0.798828,0.575684
109015673922,0.0234375,0.648438,0.70752
109015690530,0.0942383,0.698242,0.762695
109015712946,0.0874023,0.819824,0.669922
109015733769,0.0205078,0.847168,0.640137
109015750463,-0.0390625,0.777832,0.702148
109015778991,0.0771484,0.68457,0.601074
109015793917,0.101562,0.741211,0.641113
109015810411,0.0668945,0.840332,0.561035
109015834060,0.00292969,0.875488,0.562012
109015853977,0.0751953,0.769531,0.672852
109015870404,0.0922852,0.754395,0.657715
109015892969,0.0385742,0.740723,0.666992
109015913997,0.0844727,0.733887,0.659668
109015930460,0.0654297,0.821289,0.625
109015952945,0.0366211,0.851562,0.583496
109015975385,0.0488281,0.807129,0.616211
109015990521,0.0478516,0.729492,0.693848
109016012986,0.0800781,0.714844,0.712402
109016033932,0.0429688,0.777344,0.642578
109016049812,0.0478516,0.820801,0.59375
109016072964,0.0439453,0.824707,0.575684
109016095464,0.0332031,0.781738,0.634277
109016109792,0.0849609,0.752441,0.662598
109016132913,0.081543,0.775879,0.651367
109016156923,0.0693359,0.807129,0.600586
109016171061,0.0541992,0.822754,0.580566
109016192956,0.0668945,0.796875,0.593262
109016215485,0.0800781,0.793945,0.612793
109016230423,0.0688477,0.801758,0.634766
109016252938,0.0786133,0.828613,0.649902
109016275447,0.0439453,0.805664,0.615723
109016289816,0.0600586,0.770508,0.638672
109016319060,0.0737305,0.746094,0.640625
109016335446,0.0541992,0.78125,0.62793
109016349819,0.0639648,0.810059,0.625977
109016372980,0.0800781,0.808105,0.601074
109016396868,0.0546875,0.809082,0.597656
109016416670,0.0351562,0.803711,0.602539
109016432934,0.0576172,0.74707,0.681641
109016455513,0.0507812,0.708984,0.725098
109016469846,0.0620117,0.759766,0.721191
109016493012,0.0532227,0.786621,0.65625
109016515493,0.0390625,0.797363,0.579102
109016529801,0.0322266,0.80957,0.574707
109016552942,0.0449219,0.826172,0.586914
109016575586,0.0585938,0.82666,0.631348
109016589789,0.0810547,0.820312,0.648438
109016613098,0.0556641,0.745605,0.651855
109016636084,0.0625,0.752441,0.635254
109016656627,0.0551758,0.797852,0.615234
109016679004,0.0478516,0.822754,0.617676
109016695434,0.050293,0.784668,0.636719
109016716380,0.0493164,0.749512,0.67627
109016732948,0.065918,0.771973,0.683105
109016755508,0.0288086,0.780273,0.640137
109016776713,0.0307617,0.777832,0.63916
109016792925,0.0488281,0.775879,0.634277
109016815546,0.0527344,0.770996,0.645508
109016836532,0.0541992,0.775391,0.658691
109016852926,0.0581055,0.763184,0.67041
109016875575,0.0620117,0.761719,0.670898
109016896502,0.0483398,0.754395,0.655273
109016913016,0.0449219,0.777832,0.646973
109016935486,0.0493164,0.793457,0.638672
109016956487,0.0546875,0.789551,0.641113
109016973010,0.0566406,0.785645,0.631348
109016995290,0.0610352,0.776855,0.642578
109017016928,0.0576172,0.774902,0.641602
109017033011,0.0581055,0.779785,0.641113
109017057098,0.0532227,0.785156,0.644531
109017077971,0.0551758,0.776367,0.643066
109017092941,0.0507812,0.760742,0.650879
109017115507,0.0512695,0.758789,0.65625
109017137785,0.0532227,0.772461,0.661621
109017153394,0.0483398,0.774902,0.649902
109017175496,0.0415039,0.76709,0.665527
109017198012,0.046875,0.757324,0.663574
109017218996,0.0498047,0.767578,0.663574
109017235425,0.046875,0.772461,0.665527
109017264657,0.0512695,0.774902,0.654297
109017272439,0.0493164,0.759277,0.648926
109017295509,0.0463867,0.771484,0.657715
109017318012,0.0527344,0.774414,0.658203
109017332332,0.0585938,0.775391,0.647949
109017355488,0.0551758,0.766602,0.650391
109017377989,0.0595703,0.772461,0.651855
109017392357,0.0576172,0.777832,0.644531
109017399860,0.0527344,0.786133,0.644043
109017420903,0.0488281,0.773438,0.64209
109017443376,0.0493164,0.769043,0.654297
109017459812,0.0498047,0.77002,0.652344
109017483835,0.0483398,0.775879,0.647461
109017503388,0.0551758,0.766113,0.652832
109017519840,0.0556641,0.773926,0.65332
109017540945,0.050293,0.767578,0.651367
109017563375,0.0454102,0.766602,0.662109
109017579909,0.0512695,0.770996,0.647461
109017600886,0.0458984,0.774414,0.652832
109017623420,0.0478516,0.769043,0.658691
109017639810,0.0576172,0.770996,0.656738
109017660878,0.0546875,0.771484,0.657715
109017683541,0.0541992,0.783691,0.652344
109017699907,0.0537109,0.783203,0.641602
109017720918,0.0488281,0.768555,0.650879
109017743555,0.050293,0.767578,0.651367
109017759869,0.0551758,0.76416,0.664551
109017780851,0.0581055,0.779297,0.659668
109017804881,0.0498047,0.77832,0.644531
109017819849,0.0556641,0.77002,0.651367
109017840896,0.0585938,0.764648,0.647461
109017863372,0.0556641,0.773926,0.663086
109017879853,0.0576172,0.763672,0.660156
109017900952,0.050293,0.769531,0.666504
109017923405,0.0556641,0.77002,0.657227
109017939797,0.0449219,0.779785,0.65918
109017963792,0.0532227,0.771484,0.655273
109017983400,0.0615234,0.771484,0.655762
109018001284,0.0483398,0.775879,0.64502
109018020911,0.0512695,0.766602,0.663574
109018043427,0.0639648,0.755371,0.656738
109018061388,0.0639648,0.778809,0.67627
109018080887,0.0507812,0.807617,0.620117
109018103475,0.0351562,0.762695,0.682617
109018121365,0.0307617,0.771484,0.709961
109018140973,0.0488281,0.785156,0.601562
109018163473,0.135254,0.782227,0.651367
109018185886,0.074707,0.683594,0.57959
109018201073,-0.0253906,0.824707,0.623047
109018223442,0.0947266,0.810059,0.63916
109018245930,0.081543,0.817871,0.63623
109018262452,0.0551758,0.785156,0.597168
109018283476,0.0932617,0.755859,0.635742
109018301339,0.0703125,0.765625,0.644043
109018320925,0.0732422,0.808594,0.632812
109018343380,0.0673828,0.835449,0.571289
109018361355,0.0566406,0.786621,0.628906
109018388425,0.0678711,0.772461,0.635254
109018403448,0.0664062,0.785156,0.629395
109018421400,0.065918,0.778809,0.65332
109018440946,0.078125,0.814941,0.61084
109018463441,0.0595703,0.759766,0.630371
109018481320,0.106445,0.787598,0.593262
109018500875,0.0810547,0.815918,0.550293
109018523581,0.0639648,0.82959,0.612793
109018542758,0.0849609,0.778809,0.626465
109018560951,0.0986328,0.745605,0.660645
109018583413,0.101074,0.79541,0.585449
109018602015,0.0581055,0.826172,0.590332
109018622395,0.0683594,0.813965,0.606445
109018643397,0.059082,0.754395,0.614258
109018674160,0.0600586,0.702148,0.703125
109018682412,0.105469,0.736328,0.643555
109018703430,0.078125,0.895996,0.583496
109018721357,0.0673828,0.98584,0.53418
109018742338,0.0678711,0.906738,0.493164
109018763748,0.112793,0.89209,0.477539
109018781387,0.130371,0.847168,0.525879
109018803348,0.112305,0.782715,0.589355
109018823445,0.103516,0.711426,0.669434
109018841343,0.10498,0.634277,0.794922
109018862448,0.0874023,0.646484,0.75
109018883497,0.0493164,0.691895,0.703125
109018901361,0.0166016,0.767578,0.662109
109018922498,0.0209961,0.827637,0.628906
109018944862,0.0180664,0.79834,0.651855
109018961301,0.0454102,0.770996,0.666504
109018984050,0.0751953,0.77002,0.669434
109019003465,0.0668945,0.757324,0.663086
109019021514,0.0717773,0.769531,0.647461
109019043877,0.0722656,0.793457,0.63916
109019063443,0.0791016,0.810059,0.608398
109019081493,0.0732422,0.765137,0.639648
109019103863,0.0844727,0.758789,0.665039
109019123562,0.0761719,0.772461,0.65918
109019141366,0.0566406,0.781738,0.655273
109019163885,0.0527344,0.757324,0.655273
109019183602,0.0610352,0.750488,0.64502
109019201355,0.0556641,0.78418,0.642578
109019223904,0.0585938,0.806152,0.631836
109019250939,0.0615234,0.783691,0.631836
109019261384,0.0620117,0.767578,0.640625
109019284080,0.0537109,0.767578,0.643555
109019303451,0.0649414,0.78125,0.648438
109019321354,0.0639648,0.774414,0.668457
109019343947,0.0732422,0.77002,0.664551
109019363487,0.0634766,0.756836,0.661621
109019381547,0.0595703,0.76416,0.658691
109019403854,0.059082,0.77002,0.654297
109019423498,0.0512695,0.780273,0.646973
109019441445,0.0532227,0.767578,0.647949
109019463905,0.0507812,0.770508,0.655762
109019483599,0.0634766,0.772949,0.641602
109019501396,0.0625,0.783203,0.64209
109019523822,0.0654297,0.777344,0.637695
109019545077,0.0683594,0.780762,0.638672
109019561388,0.0639648,0.781738,0.638672
109019584029,0.0698242,0.775879,0.64502
109019604905,0.0620117,0.783203,0.650879
109019621415,0.0644531,0.77002,0.650391
109019643983,0.0600586,0.777832,0.64502
109019664879,0.0585938,0.780273,0.650391
109019680609,0.0541992,0.782715,0.649902
109019703078,0.0576172,0.765625,0.64502
109019724154,0.0605469,0.762695,0.648926
109019740647,0.0620117,0.765137,0.647949
109019763076,0.0571289,0.776855,0.644531
109019784297,0.0600586,0.77002,0.646484
109019800555,0.0644531,0.779785,0.653809
109019823931,0.0649414,0.775391,0.656738
109019844216,0.0620117,0.774902,0.651855
109019860576,0.0654297,0.756348,0.658691
109019883065,0.0727539,0.764648,0.645508
109019905548,0.0634766,0.780273,0.661621
109019920561,0.0654297,0.789062,0.63916
109019943111,0.059082,0.772949,0.642578
109019965616,0.0585938,0.763184,0.658203
109019980616,0.0605469,0.762207,0.651367
109020003108,0.0595703,0.782227,0.654785
109020025786,0.0625,0.778809,0.649414
109020039940,0.0649414,0.773438,0.644043
109020063066,0.0634766,0.774902,0.652344
109020085630,0.0581055,0.773926,0.63916
109020100025,0.0585938,0.769531,0.658691
109020123128,0.0703125,0.774414,0.659668
109020145583,0.0600586,0.765625,0.644531
109020159941,0.0639648,0.78125,0.646484
109020183092,0.0600586,0.785645,0.643555
109020205647,0.0737305,0.760254,0.661621
109020219936,0.0615234,0.754883,0.649414
109020243200,0.0615234,0.765137,0.660156
109020265628,0.0698242,0.776855,0.64209
109020279930,0.0668945,0.805176,0.635254
109020303147,0.0585938,0.800781,0.666016
109020325552,0.034668,0.771973,0.652832
109020339973,0.0678711,0.719238,0.67627
109020363126,0.0581055,0.724121,0.691406
109020385561,0.0537109,0.750488,0.685059
109020406700,0.0717773,0.797852,0.66748
109020423164,0.0639648,0.812012,0.594727
109020445665,0.0541992,0.754883,0.622559
109020466664,0.0439453,0.76709,0.646973
109020483187,0.0307617,0.808594,0.699707
109020505633,0.0834961,0.802734,0.673828
109020526732,0.0874023,0.800781,0.595215
109020543183,0.0869141,0.79834,0.57373
109020565589,0.0556641,0.775391,0.609375
109020586713,0.0458984,0.798828,0.677246
109020610615,0.0751953,0.791016,0.661133
109020625574,0.0874023,0.760742,0.659668
109020646667,0.0786133,0.729004,0.61377
109020663187,0.0600586,0.757324,0.620117
109020685586,0.0742188,0.82373,0.654785
109020708187,0.0561523,0.852051,0.601562
109020723142,0.0483398,0.817383,0.62207
109020746990,0.0668945,0.770508,0.614746
109020766813,0.065918,0.666504,0.697266
109020783120,0.120117,0.763184,0.671875
109020805643,0.0673828,0.851074,0.585938
109020826704,0.0292969,0.858887,0.574707
109020842455,0.065918,0.800293,0.59375
109020865638,0.0771484,0.728027,0.675293
109020888141,0.0961914,0.768066,0.658203
109020903128,0.0825195,0.8125,0.619629
109020925609,0.0585938,0.834961,0.592773
109020948166,0.0761719,0.82373,0.576172
109020963160,0.0639648,0.770996,0.614746
109020985662,0.0737305,0.714844,0.658203
109021008140,0.078125,0.738281,0.70459
109021022458,0.0795898,0.790527,0.693359
109021045676,0.106445,0.86084,0.614746
109021068194,0.0825195,0.836426,0.503418
109021082534,0.0737305,0.894531,0.452637
109021113168,0.0849609,0.930176,0.47168
109021128188,0.107422,0.834961,0.571777
109021149209,0.0712891,0.726562,0.695312
109021165701,0.0961914,0.711426,0.756836
109021188138,0.0654297,0.692383,0.722656
109021209359,0.0371094,0.745117,0.671875
109021227150,0.0239258,0.809082,0.62207
109021248786,0.015625,0.834473,0.606445
109021269209,0.0253906,0.784668,0.634766
109021285635,0.0385742,0.712402,0.715332
109021308321,0.0820312,0.708496,0.716797
109021329253,0.0493164,0.74707,0.677734
109021345684,0.0214844,0.763184,0.657715
109021368198,0.0361328,0.79248,0.645508
109021389210,0.0488281,0.813965,0.62207
109021405712,0.0571289,0.774902,0.642578
109021428163,0.0673828,0.747559,0.66748
109021449197,0.0717773,0.75293,0.661133
109021465673,0.0610352,0.771484,0.650391
109021488201,0.0600586,0.777344,0.655273
109021509254,0.0649414,0.778809,0.649902
109021525671,0.0561523,0.776855,0.645996
109021548154,0.0615234,0.783203,0.633301
109021569340,0.0566406,0.774902,0.64502
109021585704,0.0527344,0.763672,0.654297
109021608285,0.0517578,0.772461,0.649414
109021629455,0.0546875,0.782227,0.646973
109021645672,0.0512695,0.765137,0.653809
109021668200,0.0585938,0.77002,0.657227
109021689245,0.0478516,0.758789,0.651855
109021705697,0.0527344,0.776367,0.648926
109021728215,0.0493164,0.768555,0.654785
109021749242,0.0571289,0.770996,0.654297
109021765699,0.0561523,0.759766,0.654297
109021788175,0.0551758,0.775879,0.654297
109021810726,0.0537109,0.771484,0.653809
109021825697,0.0522461,0.765137,0.656738
109021848212,0.0493164,0.765137,0.661133
109021870694,0.0629883,0.773926,0.661621
109021885664,0.0576172,0.770508,0.652832
109021908201,0.0639648,0.771484,0.658691
109021930652,0.0581055,0.774414,0.658691
109021945012,0.0634766,0.783691,0.640625
109021968225,0.0541992,0.769043,0.648926
109021998218,0.0615234,0.768066,0.658203
109022004975,0.0595703,0.772461,0.665527
109022028221,0.0527344,0.787598,0.634277
109022050670,0.0576172,0.777832,0.65332
109022065025,0.0625,0.753906,0.664062
109022088250,0.0644531,0.760742,0.654785
109022110661,0.0634766,0.77832,0.649414
109022125058,0.059082,0.785645,0.640137
109022148152,0.0654297,0.777344,0.631348
109022170676,0.0600586,0.775391,0.644043
109022185044,0.0610352,0.769531,0.65332
109022208276,0.0605469,0.776367,0.650879
109022230751,0.0595703,0.785156,0.653809
109022245094,0.0581055,0.812012,0.624023
109022275689,0.0517578,0.765625,0.628418
109022290696,0.0737305,0.726562,0.666016
109022311703,0.0805664,0.760742,0.671387
109022328193,0.0488281,0.805176,0.642578
109022350701,0.046875,0.779297,0.640137
109022371743,0.0649414,0.755859,0.652344
109022388218,0.0463867,0.746094,0.660645
109022410687,0.0537109,0.782715,0.675781
109022431820,0.0668945,0.774902,0.646973
109022448194,0.0576172,0.781738,0.626465
109022470701,0.0708008,0.787109,0.615723
109022491763,0.0698242,0.804199,0.640625
109022508184,0.0649414,0.797363,0.619629
109022530891,0.0678711,0.782227,0.643555
109022551776,0.0566406,0.753418,0.647461
109022569056,0.0585938,0.748047,0.662109
109022590749,0.0532227,0.770508,0.664551
109022611759,0.0634766,0.796387,0.644043
109022628223,0.0649414,0.779785,0.629883
109022651180,0.0698242,0.806641,0.609375
109022672347,0.0336914,0.799805,0.604492
109022688258,0.0546875,0.770996,0.664551
109022710736,0.0839844,0.731934,0.682617
109022733350,0.0839844,0.759766,0.654297
109022748219,0.0625,0.795898,0.599121
109022770716,0.046875,0.820801,0.619629
109022793284,0.0664062,0.79541,0.640625
109022808348,0.0786133,0.756836,0.650391
109022831174,0.081543,0.762695,0.65625
109022853306,0.0703125,0.78418,0.620117
109022868276,0.0517578,0.823242,0.609375
109022890732,0.0576172,0.79541,0.644043
109022913348,0.0727539,0.747559,0.655273
109022927549,0.0888672,0.785645,0.625
109022952201,0.0776367,0.836426,0.598145
109022973337,0.0498047,0.844238,0.571777
109022987509,0.0737305,0.807617,0.618164
109023010742,0.0878906,0.751465,0.640625
109023033346,0.078125,0.767578,0.646484
109023047628,0.0810547,0.786621,0.632812
109023070723,0.0849609,0.804688,0.634277
109023093463,0.0751953,0.798828,0.59082
109023107562,0.0620117,0.78418,0.637695
109023130729,0.0839844,0.783203,0.647461
109023153323,0.0864258,0.811523,0.621582
109023167589,0.0800781,0.805664,0.605469
109023190708,0.0830078,0.81543,0.600098
109023213401,0.0698242,0.791016,0.632324
109023227569,0.0893555,0.773438,0.651855
109023258371,0.090332,0.772461,0.63916
109023273313,0.0727539,0.779785,0.609863
109023294347,0.0668945,0.813965,0.604492
109023310872,0.0791016,0.821777,0.606445
109023333292,0.0629883,0.820312,0.604492
109023354375,0.0898438,0.787598,0.630371
109023370752,0.0888672,0.787598,0.608887
109023393271,0.0869141,0.789062,0.625488
109023414572,0.0771484,0.812012,0.59375
109023430742,0.0742188,0.825684,0.588379
109023459474,0.078125,0.808105,0.612793
109023474372,0.0820312,0.773438,0.623535
109023490747,0.0761719,0.769043,0.619141
109023513304,0.0820312,0.787109,0.620605
109023534307,0.081543,0.814941,0.628906
109023550739,0.0742188,0.803711,0.647949
109023573361,0.0756836,0.804688,0.609375
109023594325,0.0957031,0.785156,0.555664
109023612363,0.0688477,0.783203,0.631836
109023633287,0.0888672,0.801758,0.631348
109023654334,0.0668945,0.840332,0.612793
109023670822,0.043457,0.821777,0.606445
109023693305,0.0751953,0.789062,0.648438
109023715759,0.097168,0.760742,0.620605
109023736846,0.0625,0.760742,0.624023
109023753289,0.081543,0.782227,0.638672
109023775811,0.0478516,0.807617,0.64502
109023790728,0.0410156,0.797363,0.643555
109023813343,0.0517578,0.789551,0.640137
109023835765,0.0561523,0.73584,0.649414
109023850089,0.0605469,0.756348,0.657715
109023873323,0.0854492,0.8125,0.636719
109023895732,0.0576172,0.820801,0.60498
109023910111,0.0473633,0.791016,0.625488
109023939376,0.0639648,0.769043,0.643555
109023955738,0.0649414,0.769043,0.635254
109023961200,0.0664062,0.777344,0.648438
109023977676,0.0776367,0.784668,0.644531
109023998661,0.0620117,0.782227,0.644531
109024022646,0.0610352,0.783203,0.629395
109024037664,0.0639648,0.794434,0.627441
109024058675,0.0644531,0.791504,0.62207
109024081294,0.0620117,0.774902,0.638184
109024097599,0.0708008,0.773926,0.646973
109024118708,0.0703125,0.764648,0.654785
109024141232,0.0664062,0.754883,0.660645
109024157569,0.0620117,0.770508,0.649414
109024178802,0.0551758,0.790527,0.644531
109024201135,0.0483398,0.775879,0.648926
109024219056,0.059082,0.772949,0.661621
109024238805,0.0620117,0.757812,0.658203
109024261203,0.0639648,0.759766,0.655762
109024277714,0.059082,0.774902,0.643066
109024298739,0.0673828,0.789551,0.644043
109024321136,0.0610352,0.779785,0.638672
109024337688,0.0561523,0.782715,0.642578
109024358674,0.059082,0.769043,0.649902
109024381224,0.0620117,0.771973,0.648926
109024397666,0.0600586,0.774902,0.650391
109024418659,0.0698242,0.78418,0.644531
109024441186,0.065918,0.786133,0.644531
109024457674,0.059082,0.777832,0.641602
109024478690,0.0629883,0.766602,0.651855
109024501256,0.0605469,0.765137,0.654297
109024519122,0.0615234,0.763184,0.65918
109024538685,0.0571289,0.770996,0.652344
109024561148,0.0585938,0.769043,0.648926
109024577643,0.0620117,0.773926,0.644043
109024598878,0.0595703,0.775879,0.652344
109024621175,0.0654297,0.773438,0.649902
109024639142,0.0664062,0.779297,0.64209
109024658715,0.0610352,0.777832,0.645508
109024681220,0.0639648,0.775391,0.648926
109024699240,0.0664062,0.780762,0.644531
109024718680,0.0576172,0.781738,0.642578
109024741263,0.0615234,0.783691,0.63916
109024759148,0.0595703,0.770508,0.64209
109024778681,0.0649414,0.766113,0.65332
109024801333,0.0668945,0.779297,0.650391
109024819081,0.0620117,0.782227,0.651367
109024838734,0.059082,0.778809,0.63623
109024861209,0.0585938,0.769531,0.651855
109024879120,0.059082,0.771973,0.648926
109024898677,0.0576172,0.771973,0.645996
109024921169,0.0561523,0.791016,0.660156
109024939139,0.0693359,0.778809,0.638184
109024958734,0.059082,0.756836,0.630371
109024981195,0.0610352,0.745605,0.667969
109024999883,0.0688477,0.771973,0.6875
109025018714,0.0698242,0.779297,0.65332
109025048887,0.0678711,0.777832,0.619629
109025059167,0.050293,0.780273,0.598145
109025078691,0.0561523,0.78125,0.647461
109025101233,0.065918,0.793945,0.651367
109025119093,0.0776367,0.801758,0.665039
109025138772,0.0751953,0.757324,0.644531
109025161221,0.0717773,0.769531,0.619629
109025179119,0.0581055,0.760254,0.617188
109025206296,0.0717773,0.791016,0.67041
109025221173,0.0649414,0.80127,0.640137
109025239116,0.0566406,0.79248,0.660645
109025260206,0.0688477,0.758301,0.631348
109025281164,0.0561523,0.764648,0.595703
109025299194,0.0600586,0.790039,0.63623
109025326190,0.0712891,0.80957,0.666016
109025342802,0.0668945,0.810059,0.654785
109025359214,0.0761719,0.778809,0.608398
109025380174,0.0708008,0.776367,0.60498
109025401207,0.0322266,0.802734,0.643066
109025419212,0.0283203,0.805176,0.672852
109025440154,0.0795898,0.74707,0.691406
109025461239,0.0883789,0.683594,0.622559
109025486614,0.0717773,0.786133,0.605957
109025506210,0.0483398,0.834961,0.58252
109025521313,0.0302734,0.851074,0.63916
109025539194,0.0708008,0.775391,0.663574
109025561793,0.0976562,0.788086,0.621582
109025581231,0.0634766,0.789062,0.568359
109025605217,0.0717773,0.75293,0.633789
109025622352,0.0688477,0.831055,0.643066
109025641227,0.078125,0.825195,0.612305
109025659230,0.0942383,0.818848,0.568359
109025681658,0.0327148,0.795898,0.578125
109025701302,0.0615234,0.771973,0.647461
109025719177,0.0805664,0.790039,0.682129
109025741673,0.0917969,0.791992,0.634277
109025762652,0.0791016,0.822754,0.566406
109025779254,0.0385742,0.824219,0.587891
109025806259,0.0615234,0.772949,0.630859
109025821293,0.0756836,0.779297,0.6875
109025839204,0.104492,0.80957,0.611816
109025861804,0.0761719,0.801758,0.571289
109025881520,0.0678711,0.803223,0.570312
109025899159,0.0581055,0.80957,0.630859
109025921685,0.0708008,0.770996,0.688477
109025941234,0.133301,0.787598,0.629883
109025959187,0.0776367,0.807617,0.550293
109025982269,0.0644531,0.82959,0.571777
109026001320,0.0664062,0.802246,0.603516
109026019143,0.097168,0.797363,0.644531
109026041699,0.0981445,0.794922,0.606934
109026061208,0.0888672,0.810547,0.576172
109026079385,0.0512695,0.816406,0.586426
109026101628,0.0854492,0.796387,0.620605
109026130223,0.0854492,0.811035,0.637207
109026139178,0.103027,0.807129,0.611328
109026161713,0.0756836,0.776855,0.572754
109026181403,0.0859375,0.782227,0.615723
109026199196,0.0444336,0.825195,0.643066
109026221820,0.0722656,0.821289,0.669922
109026241963,0.0869141,0.787109,0.632324
109026258348,0.0473633,0.76709,0.608887
109026280904,0.0991211,0.794434,0.588379
109026301885,0.0825195,0.817383,0.572266
109026318402,0.104492,0.827148,0.566406
109026341418,0.0888672,0.814941,0.584473
109026361927,0.0732422,0.804688,0.619141
109026378420,0.121094,0.789551,0.641113
109026401304,0.09375,0.790039,0.620117
109026421963,0.0839844,0.793457,0.61377
109026438852,0.0683594,0.822266,0.601562
109026460864,0.0712891,0.788574,0.604492
109026481956,0.0761719,0.74707,0.645508
109026498369,0.0864258,0.755371,0.637695
109026520824,0.0874023,0.828613,0.622559
109026543448,0.0629883,0.840332,0.606934
109026558364,0.0654297,0.825684,0.588379
109026580917,0.0507812,0.782227,0.61377
109026603404,0.0610352,0.749023,0.65332
109026618333,0.0834961,0.767578,0.67627
109026642364,0.0825195,0.786133,0.658691
109026664060,0.0688477,0.779297,0.62207
109026677755,0.0405273,0.762695,0.648926
109026700903,0.0507812,0.766602,0.660156
109026723363,0.0581055,0.781738,0.658203
109026738415,0.0693359,0.78418,0.647461
109026760892,0.0727539,0.779297,0.637207
109026783388,0.0771484,0.787598,0.627441
109026797868,0.065918,0.791992,0.61084
109026820884,0.074707,0.779785,0.633301
109026843428,0.0844727,0.777832,0.641602
109026864421,0.0820312,0.797363,0.620117
109026881510,0.0800781,0.805176,0.617188
109026903392,0.0683594,0.805664,0.609863
109026917688,0.0561523,0.786133,0.629395
109026941096,0.0556641,0.780762,0.649902
109026963447,0.0556641,0.755859,0.661621
109026977708,0.0722656,0.762695,0.65918
109027000923,0.0712891,0.785156,0.644531
109027023382,0.0664062,0.81543,0.625488
109027044552,0.0561523,0.809082,0.61084
109027060882,0.059082,0.79248,0.628418
109027084443,0.0644531,0.756348,0.640625
109027104482,0.0664062,0.750488,0.666016
109027120902,0.0703125,0.75293,0.67334
109027143419,0.0756836,0.766602,0.671875
109027164482,0.065918,0.770996,0.65332
109027180862,0.0556641,0.773926,0.64502
109027203467,0.059082,0.778809,0.651367
109027224425,0.0654297,0.783691,0.63623
109027240848,0.0537109,0.765625,0.655273
109027263540,0.0629883,0.753906,0.668457
109027284472,0.0639648,0.758301,0.653809
109027301064,0.0615234,0.771973,0.640625
109027323427,0.0610352,0.786133,0.646484
109027344542,0.0639648,0.791992,0.637695
109027360960,0.0625,0.781738,0.641602
109027383460,0.0678711,0.755371,0.651367
109027404520,0.0727539,0.77002,0.655762
109027420912,0.0644531,0.777832,0.64209
109027443463,0.0551758,0.774902,0.652832
109027464628,0.0615234,0.764648,0.651855
109027480911,0.059082,0.771484,0.647461
109027503477,0.0605469,0.773438,0.648438
109027525907,0.0595703,0.770508,0.655273
109027540889,0.0610352,0.765137,0.652832
109027563444,0.0581055,0.775391,0.65625
109027585925,0.0571289,0.771484,0.651855
109027600944,0.0639648,0.770996,0.65332
109027623471,0.0654297,0.763184,0.656738
109027645934,0.0644531,0.771973,0.654297
109027660350,0.0556641,0.769531,0.650391
109027683423,0.0581055,0.773926,0.654297
109027706010,0.0620117,0.76416,0.65332
109027720314,0.0649414,0.769043,0.652344
109027743917,0.0585938,0.768066,0.650879
109027765930,0.0585938,0.774414,0.643555
109027780316,0.0605469,0.768555,0.656738
109027809568,0.0620117,0.763184,0.65625
109027825900,0.0605469,0.768555,0.651855
109027840362,0.0556641,0.773438,0.657227
109027863502,0.0629883,0.773438,0.654297
109027885941,0.0610352,0.772949,0.65332
109027901013,0.0634766,0.76416,0.650391
109027923456,0.0605469,0.761719,0.656738
109027945961,0.0649414,0.771973,0.65918
109027960383,0.0649414,0.763672,0.656738
109027983419,0.0664062,0.76709,0.654297
109028006010,0.0620117,0.765625,0.655273
109028027001,0.0644531,0.771973,0.650879
109028043416,0.0551758,0.773926,0.654297
109028065987,0.0600586,0.773438,0.658203
109028086985,0.0595703,0.769531,0.646973
109028103864,0.0634766,0.770508,0.655762
109028126027,0.0644531,0.768555,0.658203
109028146989,0.0605469,0.773438,0.646973
109028163492,0.0581055,0.770508,0.650879
109028185974,0.0595703,0.770508,0.662598
109028207005,0.0649414,0.765137,0.654785
109028223474,0.0703125,0.766113,0.667969
109028245977,0.0581055,0.780762,0.635254
109028267187,0.0576172,0.779297,0.650391
109028283483,0.065918,0.771484,0.656738
109028305979,0.0605469,0.771973,0.654297
109028327060,0.0698242,0.749512,0.656738
109028343425,0.0625,0.759766,0.649414
109028365985,0.0673828,0.769531,0.657227
109028387062,0.065918,0.780762,0.64209
109028403848,0.0722656,0.783691,0.647461
109028426009,0.0610352,0.778809,0.657227
109028448412,0.0517578,0.754883,0.652832
109028463505,0.0615234,0.730957,0.67627
109028485958,0.074707,0.749512,0.679199
109028508439,0.0600586,0.799316,0.633789
109028523569,0.0454102,0.77002,0.646484
109028545918,0.0620117,0.76416,0.672363
109028568469,0.0654297,0.772949,0.667969
109028582828,0.0708008,0.764648,0.663086
109028605910,0.0839844,0.768066,0.621094
109028628472,0.0576172,0.793945,0.629395
109028642848,0.0541992,0.820801,0.65625
109028665939,0.0820312,0.791504,0.646484
109028688519,0.0766602,0.751465,0.655273
109028702786,0.0625,0.722168,0.661621
109028726105,0.0649414,0.800293,0.628418
109028748481,0.0615234,0.809082,0.619629
109028762774,0.0620117,0.782715,0.621582
109028786017,0.0917969,0.76709,0.647461
109028808483,0.0869141,0.739746,0.651367
109028822839,0.0649414,0.79248,0.629883
109028845940,0.0786133,0.839355,0.622559
109028868529,0.0678711,0.78125,0.614258
109028882896,0.0898438,0.723145,0.642578
109028905995,0.0976562,0.746582,0.649902
109028934734,0.0737305,0.803223,0.633301
109028957029,0.0791016,0.8125,0.616211
109028965974,0.0581055,0.804688,0.609863
109028988534,0.0581055,0.726562,0.670898
109029009503,0.0859375,0.776367,0.666504
109029026027,0.0776367,0.788086,0.637695
109029048483,0.090332,0.818848,0.588379
109029071071,0.0634766,0.782227,0.583496
109029085944,0.0722656,0.760742,0.658691
109029108487,0.0654297,0.762695,0.672852
109029129615,0.0966797,0.765625,0.680664
109029146025,0.124023,0.816406,0.585449
109029168486,0.0664062,0.865723,0.512207
109029189644,0.0517578,0.832031,0.59082
109029212763,0.100586,0.770996,0.633301
109029228443,0.0922852,0.763672,0.680176
109029249620,0.125,0.791992,0.627441
109029266008,0.0610352,0.834473,0.558105
109029288519,0.0473633,0.810547,0.613281
109029309518,0.0883789,0.753906,0.662109
109029326055,0.0683594,0.780273,0.669922
109029348556,0.0966797,0.793457,0.62793
109029369511,0.0537109,0.800781,0.595703
109029386044,0.059082,0.789062,0.627441
109029408486,0.078125,0.75293,0.659668
109029431295,0.0615234,0.795898,0.67334
109029445405,0.0839844,0.79248,0.634766
109029468484,0.0727539,0.782715,0.611328
109029491688,0.0458984,0.78418,0.618164
109029506019,0.0883789,0.788086,0.615723
109029528534,0.0917969,0.773926,0.64502
109029551016,0.0986328,0.828613,0.611328
109029566800,0.0810547,0.835449,0.571777
109029588516,0.0605469,0.828125,0.581055
109029611017,0.0742188,0.772461,0.621582
109029625325,0.0854492,0.750977,0.669922
109029648565,0.0771484,0.771484,0.688477
109029671005,0.0488281,0.784668,0.662109
109029685366,0.0576172,0.763672,0.647949
109029709263,0.0561523,0.779785,0.640625
109029731110,0.046875,0.759277,0.614746
109029745542,0.0488281,0.768555,0.660156
109029768525,0.0537109,0.757324,0.672852
109029791060,0.0683594,0.78418,0.682129
109029805399,0.0498047,0.774414,0.641113
109029828524,0.0654297,0.786621,0.617188
109029851003,0.0424805,0.784668,0.619629
109029872025,0.0566406,0.769531,0.666992
109029896051,0.0664062,0.75293,0.679688
109029911067,0.0712891,0.772949,0.64502
109029932087,0.0581055,0.77002,0.637695
109029948621,0.0493164,0.780273,0.637695
109029971037,0.043457,0.800781,0.616699
109029992088,0.059082,0.763672,0.635254
109030008520,0.0556641,0.73291,0.680176
109030031011,0.0541992,0.746094,0.695801
109030052145,0.0512695,0.782227,0.666016
109030068507,0.0253906,0.780273,0.642578
109030091109,0.0390625,0.788574,0.642578
109030113514,0.0546875,0.787109,0.635254
109030128540,0.0537109,0.779297,0.636719
109030151040,0.0576172,0.749512,0.668457
109030172110,0.0600586,0.766602,0.670898
109030188534,0.043457,0.766602,0.648926
109030211030,0.0419922,0.770996,0.649902
109030232101,0.046875,0.770996,0.654785
109030248617,0.0517578,0.772949,0.645508
109030271011,0.046875,0.765625,0.658203
109030292111,0.0507812,0.773926,0.654785
109030308486,0.0483398,0.770996,0.660645
109030331058,0.0522461,0.771973,0.65918
109030353550,0.0517578,0.770996,0.652344
109030368572,0.0483398,0.769043,0.644531
109030390988,0.0483398,0.761719,0.650879
109030413616,0.0463867,0.774902,0.657227
109030427869,0.0458984,0.780273,0.652832
109030451018,0.0395508,0.776855,0.649414
109030473603,0.0473633,0.763184,0.651855
109030487857,0.0498047,0.76709,0.650879
109030495377,0.0551758,0.772461,0.65625
109030516465,0.0517578,0.774902,0.651367
109030538917,0.0512695,0.771484,0.648438
109030555524,0.050293,0.76416,0.653809
109030576436,0.0483398,0.76709,0.653809
109030598935,0.0488281,0.766602,0.65918
109030615429,0.0522461,0.762695,0.650879
109030636413,0.0498047,0.773438,0.654785
109030659153,0.0493164,0.775391,0.648926
109030675402,0.046875,0.782227,0.655273
109030696453,0.0478516,0.766113,0.651855
109030718993,0.0429688,0.755859,0.651855
109030735403,0.0483398,0.772949,0.660645
109030756448,0.0449219,0.775879,0.649902
109030778960,0.0478516,0.776855,0.64209
109030795361,0.0483398,0.76416,0.648438
109030816514,0.0537109,0.771484,0.652344
109030838957,0.0488281,0.774414,0.650879
109030855373,0.0473633,0.776855,0.649414
109030876531,0.0488281,0.769531,0.653809
109030898962,0.0522461,0.771973,0.658691
109030915576,0.0439453,0.787109,0.644043
109030936468,0.046875,0.774902,0.645996
109030960496,0.0439453,0.771484,0.668945
109030975463,0.0561523,0.762695,0.669922
109030996416,0.0444336,0.753906,0.650879
109031019161,0.0537109,0.770508,0.653809
109031035397,0.0561523,0.781738,0.655273
109031056502,0.0532227,0.78125,0.631836
109031079023,0.0571289,0.774902,0.647461
109031095367,0.0537109,0.768555,0.661133
109031124073,0.0522461,0.790039,0.666504
109031138966,0.0541992,0.805176,0.632812
109031155431,0.0351562,0.753906,0.652344
109031176600,0.0507812,0.742676,0.678223
109031198931,0.0649414,0.842285,0.628418
109031215460,0.0678711,0.772949,0.623535
109031236467,0.0639648,0.725586,0.642578
109031258956,0.0463867,0.76416,0.63623
109031277059,0.043457,0.813477,0.640137
109031296447,0.0532227,0.791992,0.67041
109031319001,0.0654297,0.754883,0.620605
109031336974,0.0708008,0.772949,0.611816
109031356458,0.059082,0.763672,0.618164
109031378985,0.0541992,0.774414,0.636719
109031396943,0.0571289,0.787109,0.664551
109031416450,0.0683594,0.791992,0.646484
109031439026,0.0454102,0.789062,0.631348
109031456870,0.0429688,0.763672,0.637695
109031476530,0.0488281,0.789551,0.634766
109031499017,0.043457,0.794434,0.651367
109031516881,0.0571289,0.80127,0.633789
109031536750,0.0268555,0.788574,0.607422
109031558969,0.0478516,0.776855,0.641113
109031577003,0.0380859,0.791992,0.64209
109031596702,0.0498047,0.758789,0.661133
109031618937,0.0634766,0.771973,0.65625
109031637005,0.0498047,0.836426,0.584473
109031656485,0.0336914,0.799316,0.603516
109031679030,0.0708008,0.780273,0.617676
109031697105,0.0644531,0.80127,0.629395
109031716483,0.0908203,0.810547,0.634277
109031739122,0.0786133,0.836426,0.560547
109031756945,0.0419922,0.786133,0.60791
109031776455,0.0869141,0.790039,0.611328
109031799079,0.0786133,0.796875,0.656738
109031816923,0.103027,0.807129,0.604492
109031836618,0.0317383,0.82373,0.579102
109031859010,0.0473633,0.772949,0.633301
109031876899,0.0839844,0.784668,0.660645
109031897973,0.0913086,0.807617,0.617188
109031918965,0.0644531,0.839355,0.577148
109031936919,0.0571289,0.810547,0.592773
109031957947,0.0644531,0.769043,0.645508
109031986539,0.0854492,0.787109,0.625977
109031997090,0.0771484,0.814453,0.618164
109032017922,0.0761719,0.827148,0.583984
109032039170,0.0751953,0.804199,0.591309
109032056932,0.0722656,0.760254,0.632324
109032086685,0.0859375,0.774414,0.63623
109032099168,0.0805664,0.815918,0.623047
109032116922,0.0957031,0.821777,0.563477
109032137937,0.0483398,0.807617,0.579102
109032159064,0.0913086,0.776855,0.594727
109032176872,0.0786133,0.78418,0.671387
109032197911,0.0649414,0.847168,0.669434
109032220426,0.078125,0.814941,0.55957
109032237548,0.0444336,0.785156,0.636719
109032259539,0.0571289,0.759766,0.609863
109032279007,0.0615234,0.766602,0.609863
109032297061,0.0830078,0.786133,0.664062
109032319429,0.0913086,0.817871,0.634277
109032339026,0.0595703,0.842285,0.580566
109032356932,0.050293,0.825684,0.59082
109032379382,0.0756836,0.773926,0.584473
109032399145,0.0566406,0.735352,0.699219
109032416932,0.0483398,0.753906,0.712402
109032439484,0.0517578,0.782227,0.683594
109032459050,0.0512695,0.779297,0.620117
109032476951,0.0463867,0.820801,0.577637
109032499642,0.059082,0.824707,0.561523
109032519062,0.0595703,0.80127,0.60791
109032542290,0.0551758,0.79248,0.644531
109032559590,0.0600586,0.788086,0.667969
109032579088,0.065918,0.765625,0.664062
109032597124,0.0556641,0.777344,0.631836
109032619612,0.0498047,0.744141,0.61084
109032638989,0.0385742,0.751465,0.665527
109032657034,0.0629883,0.786133,0.686523
109032679447,0.0439453,0.820312,0.639648
109032699111,0.050293,0.816406,0.621582
109032717026,0.0405273,0.791992,0.608398
109032739528,0.0512695,0.757812,0.613281
109032759122,0.0498047,0.777832,0.671387
109032776154,0.0620117,0.756836,0.684082
109032798674,0.0708008,0.751953,0.69043
109032821149,0.0444336,0.743652,0.651367
109032836171,0.0527344,0.797852,0.625
109032858661,0.0439453,0.839355,0.587402
109032879690,0.0546875,0.818848,0.601074
109032897091,0.0610352,0.760742,0.641113
109032918700,0.0585938,0.746094,0.675293
109032939699,0.0595703,0.762207,0.67041
109032956206,0.0615234,0.779785,0.658203
109032978685,0.0380859,0.785156,0.645508
109032999634,0.0517578,0.786133,0.629883
109033022260,0.0517578,0.779785,0.631348
109033038699,0.0600586,0.769531,0.649902
109033059880,0.0732422,0.771484,0.645996
109033076234,0.0571289,0.781738,0.64209
109033099119,0.0463867,0.787598,0.640625
109033119914,0.0493164,0.77832,0.642578
109033136175,0.0581055,0.769043,0.638184
109033158608,0.0493164,0.769531,0.650391
109033181146,0.0512695,0.791992,0.645508
109033196138,0.043457,0.783203,0.641602
109033218697,0.0478516,0.773926,0.644531
109033241151,0.0541992,0.771973,0.648926
109033256127,0.0581055,0.774414,0.650391
109033278771,0.0639648,0.771484,0.654785
109033301292,0.0585938,0.773926,0.64502
109033315538,0.0498047,0.777344,0.634766
109033346141,0.0556641,0.784668,0.646973
109033361260,0.0546875,0.774414,0.647461
109033375559,0.0566406,0.780762,0.634766
109033398685,0.0546875,0.772949,0.649414
109033421163,0.0546875,0.776855,0.640625
109033435481,0.0527344,0.779297,0.654785
109033458686,0.0507812,0.787109,0.64209
109033481203,0.0541992,0.774902,0.648926
109033495501,0.0600586,0.777344,0.645996
109033518719,0.0546875,0.775879,0.642578
109033541192,0.0522461,0.777832,0.643555
109033555485,0.0527344,0.780762,0.648926
109033578821,0.0571289,0.773438,0.649902
109033601165,0.0527344,0.771973,0.650879
109033615483,0.059082,0.780273,0.643555
109033638675,0.0527344,0.775879,0.638672
109033661207,0.0561523,0.778809,0.639648
109033682289,0.0620117,0.774414,0.649414
109033698662,0.0610352,0.775391,0.647949
109033721183,0.0629883,0.778809,0.649414
109033742247,0.0615234,0.766113,0.640625
109033758702,0.0634766,0.776367,0.644043
109033781234,0.0639648,0.779297,0.641602
109033809751,0.0541992,0.782715,0.637207
109033826212,0.0634766,0.776855,0.646484
109033841244,0.0610352,0.767578,0.655762
109033862187,0.0737305,0.774414,0.672363
109033878849,0.0664062,0.820801,0.625488
109033901167,0.0551758,0.805176,0.620605
109033929912,0.0571289,0.745605,0.63916
109033938687,0.0581055,0.72998,0.67334
109033961196,0.0766602,0.790527,0.677734
109033982318,0.0595703,0.833008,0.625
109033998726,0.0454102,0.793457,0.617676
109034021248,0.0385742,0.744141,0.625977
109034042357,0.0644531,0.757812,0.697754
109034058697,0.0742188,0.819336,0.651367
109034088746,0.0620117,0.788086,0.608398
109034102294,0.0722656,0.750488,0.614746
109034119479,0.0498047,0.806152,0.620605
109034141223,0.0639648,0.811523,0.64209
109034163715,0.0571289,0.730469,0.666504
109034178720,0.081543,0.698242,0.683594
109034201028,0.0898438,0.774414,0.632324
109034223754,0.0541992,0.851074,0.609863
109034238066,0.0341797,0.833984,0.615723
109034261204,0.0673828,0.765625,0.651855
109034283763,0.103516,0.731934,0.658691
109034298130,0.0800781,0.797852,0.621094
109034321178,0.0644531,0.854004,0.581543
109034343799,0.0498047,0.830078,0.620117
109034358047,0.0288086,0.73584,0.672363
109034381203,0.0712891,0.69043,0.695312
109034403686,0.111816,0.745605,0.647461
109034424784,0.0654297,0.867188,0.582031
109034441242,0.0634766,0.870117,0.568359
109034463711,0.0478516,0.803223,0.598633
109034484966,0.0336914,0.708008,0.696289
109034502623,0.125,0.709961,0.717773
109034523688,0.0795898,0.837402,0.597656
109034544895,0.0498047,0.875488,0.571777
109034561314,0.0595703,0.77832,0.591309
109034583870,0.0463867,0.739258,0.678223
109034604729,0.0844727,0.775879,0.690918
109034622526,0.0908203,0.814453,0.622559
109034643759,0.074707,0.832031,0.556152
109034664773,0.0375977,0.810547,0.576172
109034681375,0.0664062,0.739258,0.655762
109034703872,0.0751953,0.773926,0.67334
109034724753,0.0947266,0.774902,0.641602
109034741344,0.0703125,0.820801,0.565918
109034763730,0.0351562,0.816406,0.585938
109034784756,0.0644531,0.780762,0.661621
109034801203,0.0830078,0.763672,0.682617
109034823742,0.11084,0.811523,0.603027
109034844895,0.046875,0.82666,0.583496
109034861255,0.0634766,0.793457,0.604004
109034883714,0.0756836,0.74707,0.628906
109034904806,0.0976562,0.770996,0.677246
109034921349,0.10498,0.817871,0.607422
109034943880,0.0561523,0.821777,0.588379
109034964798,0.0874023,0.782715,0.593262
109034981289,0.081543,0.758789,0.597168
109035011398,0.0932617,0.785156,0.661133
109035024783,0.090332,0.79834,0.634277
109035041744,0.0561523,0.817871,0.621094
109035063800,0.0380859,0.805176,0.616699
109035086459,0.0932617,0.755859,0.633301
109035100577,0.0800781,0.73584,0.641602
109035123755,0.0786133,0.783203,0.657715
109035147716,0.059082,0.834473,0.633789
109035161286,0.0571289,0.800293,0.615723
109035183738,0.0566406,0.794434,0.608887
109035212434,0.0458984,0.803223,0.606934
109035220565,0.0605469,0.744629,0.652344
109035243791,0.0742188,0.745117,0.680664
109035266344,0.0830078,0.820312,0.662598
109035280552,0.0551758,0.878906,0.581055
109035303866,0.0439453,0.807129,0.59375
109035326298,0.0668945,0.777344,0.610352
109035341025,0.0639648,0.779297,0.607422
109035363758,0.0771484,0.783203,0.650391
109035386295,0.0654297,0.771973,0.663574
109035400603,0.0478516,0.756348,0.667969
109035423744,0.0498047,0.75293,0.65625
109035446318,0.0463867,0.769043,0.642578
109035460584,0.0585938,0.794922,0.642578
109035483739,0.0566406,0.786621,0.637207
109035506328,0.0512695,0.776367,0.644043
109035520683,0.0615234,0.773926,0.649902
109035543723,0.0473633,0.757812,0.665039
109035566480,0.0566406,0.756348,0.667969
109035587055,0.0532227,0.76123,0.662598
109035603839,0.0629883,0.772461,0.65625
109035626317,0.059082,0.782227,0.641602
109035647332,0.0473633,0.783203,0.649902
109035663794,0.0517578,0.773926,0.63916
109035686281,0.0478516,0.768555,0.65332
109035707457,0.0595703,0.763672,0.647461
109035723846,0.0498047,0.776855,0.650391
109035746276,0.059082,0.784668,0.644531
109035767573,0.0541992,0.775391,0.649414
109035783778,0.0541992,0.766602,0.649902
109035806475,0.0595703,0.777832,0.645996
109035827401,0.0556641,0.783203,0.638672
109035843734,0.0522461,0.773438,0.652832
109035873785,0.0605469,0.76416,0.654785
109035887318,0.0625,0.768555,0.653809
109035903812,0.0527344,0.772949,0.655273
109035926318,0.0517578,0.769531,0.656738
109035947378,0.0581055,0.768066,0.655762
109035963810,0.0498047,0.76709,0.65332
109035986301,0.0444336,0.774902,0.646484
109036008855,0.0556641,0.773926,0.651855
109036023812,0.0571289,0.773926,0.649414
109036046278,0.0571289,0.768555,0.650879
109036068877,0.0512695,0.780762,0.650391
109036083894,0.0546875,0.772461,0.648438
109036106348,0.0610352,0.76416,0.655762
109036128882,0.0620117,0.773438,0.655273
109036152858,0.0561523,0.780273,0.653809
109036166313,0.0532227,0.771973,0.641113
109036188797,0.0566406,0.772949,0.649414
109036203090,0.0546875,0.77002,0.65332
109036232504,0.0541992,0.770996,0.65332
109036248780,0.0541992,0.769043,0.654297
109036263146,0.0561523,0.77002,0.658691
109036286338,0.0581055,0.769531,0.65625
109036308788,0.0576172,0.767578,0.655273
109036323163,0.059082,0.773438,0.647461
109036346301,0.0546875,0.78125,0.654297
109036368874,0.0561523,0.771484,0.650879
109036389880,0.0498047,0.763672,0.660645
109036406349,0.0561523,0.755859,0.663086
109036428796,0.0522461,0.756836,0.663574
109036443173,0.059082,0.763672,0.661621
109036466691,0.0561523,0.771484,0.650879
109036488786,0.0546875,0.777832,0.648926
109036509831,0.050293,0.762207,0.660156
109036533820,0.0551758,0.766113,0.656738
109036548803,0.0546875,0.771973,0.666992
109036569890,0.0532227,0.789551,0.658203
109036586357,0.0424805,0.769043,0.644531
109036608862,0.0517578,0.762695,0.649414
109036629919,0.0556641,0.755371,0.667969
109036646321,0.0595703,0.796387,0.667969
109036669091,0.0458984,0.785156,0.628906
109036689916,0.0693359,0.745605,0.643066
109036706295,0.0512695,0.726562,0.69043
109036728901,0.0625,0.783203,0.673828
109036749828,0.0527344,0.797852,0.674316
109036765656,0.0595703,0.746582,0.654297
109036788835,0.0722656,0.737305,0.652832
109036811298,0.0800781,0.78418,0.616211
109036826314,0.0541992,0.822754,0.609375
109036848845,0.0566406,0.815918,0.652344
109036870072,0.0556641,0.729492,0.67627
109036886365,0.0668945,0.69043,0.695312
109036909276,0.0668945,0.733398,0.662109
109036929966,0.0595703,0.791016,0.631836
109036946768,0.0517578,0.838867,0.637207
109036970420,0.0385742,0.79834,0.625
109036991379,0.0673828,0.771973,0.643555
109037006707,0.0878906,0.757812,0.64502
109037028897,0.0634766,0.790527,0.652832
109037058053,0.0541992,0.828125,0.644531
109037059675,0.0678711,0.788574,0.62207
109037079368,0.0683594,0.765625,0.612793
109037094278,0.0742188,0.751465,0.615234
109037116744,0.0795898,0.758301,0.655273
109037131843,0.0844727,0.799316,0.648438
109037154335,0.0600586,0.790527,0.62207
109037176650,0.065918,0.817871,0.601074
109037191696,0.0859375,0.797852,0.572266
109037214171,0.0620117,0.772949,0.59668
109037236714,0.0717773,0.82666,0.637695
109037251800,0.0458984,0.816895,0.651367
109037274174,0.0986328,0.762207,0.633301
109037296761,0.0615234,0.803711,0.611328
109037311739,0.0581055,0.804688,0.61084
109037334208,0.0761719,0.791016,0.620117
109037356760,0.0893555,0.808594,0.609375
109037371768,0.0708008,0.841309,0.547852
109037394384,0.0952148,0.812988,0.558105
109037416681,0.0908203,0.811523,0.60498
109037431703,0.103027,0.804688,0.61377
109037454377,0.101562,0.818848,0.612793
109037476691,0.090332,0.82959,0.591797
109037491697,0.0927734,0.80127,0.555664
109037514226,0.0688477,0.791016,0.615723
109037536776,0.0961914,0.82373,0.607422
109037553218,0.081543,0.812988,0.616211
109037574254,0.11084,0.802246,0.566406
109037596928,0.0878906,0.765137,0.604492
109037613231,0.114258,0.782715,0.590332
109037641699,0.0571289,0.819824,0.624023
109037656731,0.0307617,0.830566,0.6875
109037673155,0.0820312,0.796387,0.678711
109037694330,0.0458984,0.731934,0.64209
109037716729,0.0473633,0.71582,0.650391
109037740686,0.0952148,0.773926,0.632324
109037754440,0.043457,0.845703,0.623535
109037776853,0.0581055,0.868652,0.591797
109037793229,0.0664062,0.822266,0.595703
109037817621,0.0742188,0.755371,0.624023
109037836778,0.0830078,0.720215,0.643066
109037853327,0.0947266,0.785645,0.662598
109037874226,0.0791016,0.814453,0.63623
109037896695,0.0649414,0.817383,0.616699
109037914852,0.0678711,0.810059,0.62793
109037934244,0.065918,0.781738,0.618652
109037964502,0.0727539,0.755859,0.632812
109037974707,0.0654297,0.748047,0.65625
109037994181,0.0791016,0.788574,0.683105
109038016715,0.0517578,0.787598,0.63916
109038035534,0.0385742,0.78418,0.648926
109038061776,0.0620117,0.768555,0.641113
109038076757,0.081543,0.779297,0.616699
109038096770,0.074707,0.779297,0.640137
109038114210,0.0703125,0.796387,0.663574
109038136700,0.0786133,0.790527,0.646484
109038154706,0.0532227,0.769043,0.633789
109038174318,0.0595703,0.77002,0.651367
109038196821,0.065918,0.786621,0.652832
109038214684,0.0585938,0.761719,0.65918
109038234306,0.0493164,0.735352,0.679688
109038256774,0.0546875,0.732422,0.685059
109038274711,0.0537109,0.753906,0.670898
109038294288,0.0424805,0.768555,0.666016
109038316890,0.0458984,0.773926,0.651855
109038334681,0.0551758,0.763672,0.651855
109038354314,0.0556641,0.763672,0.665527
109038376811,0.0673828,0.76709,0.65625
109038394685,0.0688477,0.764648,0.65332
109038414354,0.0639648,0.766113,0.657227
109038436779,0.0595703,0.770508,0.655273
109038454779,0.0673828,0.775391,0.649902
109038474375,0.0644531,0.765137,0.649902
109038496906,0.0625,0.767578,0.662598
109038514797,0.0507812,0.76416,0.655273
109038535747,0.0507812,0.769531,0.659668
109038556778,0.0546875,0.766602,0.656738
109038574751,0.0537109,0.766113,0.662109
109038595717,0.0615234,0.754883,0.657227
109038616738,0.0541992,0.760254,0.662109
109038634646,0.0541992,0.760742,0.65332
109038655719,0.0585938,0.771973,0.654297
109038676773,0.0517578,0.756348,0.67041
109038694677,0.0634766,0.760254,0.656738
109038715680,0.0517578,0.764648,0.666016
109038736774,0.0615234,0.776367,0.655762
109038754695,0.0610352,0.761719,0.666504
109038775731,0.0581055,0.756348,0.661621
109038796758,0.0561523,0.757324,0.657227
109038814645,0.0541992,0.780273,0.655762
109038837166,0.0620117,0.774902,0.661621
109038856763,0.059082,0.765137,0.653809
109038874681,0.0561523,0.758789,0.658203
109038897264,0.0561523,0.76709,0.65918
109038916725,0.0561523,0.768066,0.667969
109038934691,0.0629883,0.775879,0.662109
109038957279,0.0571289,0.761719,0.660645
109038976767,0.0595703,0.757324,0.650391
109038994739,0.0507812,0.768555,0.661133
109039017383,0.0551758,0.773438,0.660156
109039036811,0.0541992,0.772461,0.649902
109039054716,0.0576172,0.760742,0.659668
109039077324,0.0566406,0.755859,0.660645
109039096815,0.0600586,0.759766,0.662598
109039114673,0.0576172,0.773438,0.653809
109039137319,0.0620117,0.79248,0.648438
109039156799,0.0537109,0.775879,0.645508
109039174822,0.0561523,0.742188,0.66748
109039203285,0.0639648,0.746582,0.66748
109039216794,0.0629883,0.753418,0.661133
109039234746,0.0644531,0.75293,0.66748
109039257278,0.0605469,0.783203,0.65332
109039276994,0.0571289,0.779297,0.629395
109039302273,0.0507812,0.75,0.655762
109039317279,0.0581055,0.742188,0.680664
109039337536,0.0683594,0.771973,0.660645
109039353879,0.0556641,0.780273,0.644043
109039376487,0.0605469,0.795898,0.644043
109039397507,0.0488281,0.795898,0.61377
109039415579,0.0566406,0.762695,0.643066
109039436471,0.0698242,0.761719,0.681641
109039457534,0.0708008,0.788574,0.657227
109039480021,0.0644531,0.789551,0.644531
109039496441,0.0673828,0.760742,0.628418
109039517450,0.0288086,0.787598,0.661133
109039534003,0.0268555,0.770508,0.685547
109039556400,0.0703125,0.758789,0.672363
109039577556,0.0708008,0.735352,0.651855
109039593991,0.0693359,0.77832,0.609375
109039616460,0.0380859,0.810059,0.604492
109039637430,0.0600586,0.813965,0.65332
109039653950,0.0712891,0.781738,0.654297
109039676401,0.0717773,0.77002,0.673828
109039697441,0.0927734,0.776855,0.618164
109039713896,0.0805664,0.802246,0.585938
109039736398,0.0512695,0.834473,0.586914
109039758949,0.0776367,0.819336,0.599609
109039773939,0.0620117,0.733398,0.646973
109039796409,0.0541992,0.766602,0.661133
109039819907,0.0742188,0.811035,0.620605
109039833920,0.0424805,0.790039,0.641113
109039856450,0.0649414,0.802246,0.632324
109039879012,0.043457,0.76709,0.634277
109039893943,0.0673828,0.759766,0.65332
109039918286,0.0766602,0.776367,0.619629
109039938917,0.0712891,0.799805,0.621094
109039953933,0.0625,0.804199,0.609375
109039976508,0.0537109,0.755371,0.640137
109039999004,0.0986328,0.756836,0.658691
109040013280,0.0874023,0.82666,0.602051
109040036472,0.0751953,0.82959,0.575195
109040058920,0.0766602,0.802734,0.5625
109040073331,0.0761719,0.750488,0.644531
109040096488,0.0708008,0.754883,0.660156
109040118939,0.104004,0.779297,0.685547
109040133389,0.0830078,0.803711,0.609375
109040162486,0.0473633,0.831055,0.606445
109040179026,0.0551758,0.79834,0.603027
109040193304,0.0664062,0.712891,0.649902
109040216433,0.0830078,0.684082,0.705566
109040238973,0.102051,0.848633,0.66748
109040260106,0.0556641,0.891113,0.535156
109040276464,0.0361328,0.893066,0.535645
109040299174,0.0546875,0.837402,0.570312
109040320061,0.0942383,0.730469,0.626465
109040336468,0.0737305,0.708008,0.72998
109040359022,0.0830078,0.770508,0.69043
109040380071,0.0478516,0.77832,0.675781
109040395839,0.0356445,0.794922,0.645996
109040418969,0.0351562,0.799805,0.626953
109040441646,0.0571289,0.794434,0.588379
109040456522,0.0620117,0.759766,0.615234
109040478951,0.0751953,0.762695,0.669434
109040500253,0.0859375,0.807129,0.660156
109040516496,0.0595703,0.803711,0.617676
109040538952,0.0556641,0.782227,0.600586
109040560075,0.0625,0.790039,0.597168
109040576537,0.059082,0.802734,0.608887
109040599025,0.0649414,0.78125,0.650391
109040619981,0.059082,0.775879,0.678711
109040635803,0.0332031,0.757324,0.689941
109040659002,0.0292969,0.723145,0.697266
109040680048,0.03125,0.746094,0.683594
109040695889,0.0395508,0.775879,0.658691
109040718949,0.0405273,0.797363,0.641113
109040741526,0.0400391,0.785156,0.637207
109040756518,0.0380859,0.763184,0.663086
109040779015,0.0429688,0.740234,0.678223
109040801457,0.0395508,0.740234,0.666992
109040816446,0.0385742,0.750488,0.666504
109040838973,0.0390625,0.769531,0.652344
109040861361,0.0424805,0.77832,0.660156
109040882539,0.0561523,0.76709,0.662109
109040899042,0.0483398,0.754395,0.668457
109040921456,0.0444336,0.759277,0.666016
109040936768,0.0449219,0.760742,0.671875
109040959049,0.0439453,0.769531,0.657715
109040981463,0.043457,0.771484,0.657227
109040995895,0.0424805,0.765625,0.658203
109041019012,0.0439453,0.762695,0.658691
109041041505,0.0478516,0.753418,0.662598
109041062587,0.046875,0.760254,0.663086
109041078965,0.0429688,0.767578,0.661621
109041101500,0.0429688,0.766602,0.656738
109041115850,0.0454102,0.77002,0.655762
109041139261,0.0478516,0.766602,0.662109
109041161602,0.0454102,0.76123,0.656738
109041175854,0.0458984,0.76416,0.660156
109041199032,0.0473633,0.758789,0.663086
109041229006,0.0473633,0.767578,0.665039
109041242517,0.0449219,0.762207,0.663086
109041259040,0.043457,0.766113,0.664062
109041281464,0.043457,0.760254,0.66748
109041302690,0.0449219,0.769531,0.657227
109041319055,0.0400391,0.76709,0.662109
109041349171,0.0493164,0.763672,0.664062
109041362599,0.0463867,0.756348,0.662598
109041379029,0.046875,0.765625,0.662598
109041401490,0.0415039,0.766602,0.652832
109041422569,0.0449219,0.767578,0.656738
109041439008,0.0463867,0.763672,0.658691
109041461535,0.0493164,0.767578,0.658203
109041482623,0.0419922,0.763672,0.655273
109041499023,0.0463867,0.768066,0.660645
109041521565,0.0488281,0.768066,0.66748
109041542528,0.0454102,0.770996,0.664551
109041559047,0.043457,0.757324,0.660645
109041581546,0.0522461,0.762207,0.658691
109041602567,0.0439453,0.763672,0.653809
109041619014,0.0488281,0.761719,0.666016
109041641515,0.0458984,0.758301,0.65918
109041662648,0.0473633,0.767578,0.658691
109041678975,0.0385742,0.766602,0.647461
109041701509,0.0458984,0.780273,0.658691
109041724016,0.0478516,0.77832,0.660645
109041739024,0.0478516,0.743652,0.65918
109041761553,0.0522461,0.753418,0.665527
109041784126,0.0537109,0.767578,0.660156
109041799039,0.046875,0.778809,0.660156
109041821516,0.0424805,0.764648,0.662598
109041844071,0.0512695,0.760254,0.671387
109041858364,0.0527344,0.77002,0.654297
109041881536,0.0458984,0.789551,0.65918
109041904034,0.0361328,0.76709,0.629395
109041918377,0.0576172,0.751465,0.687012
109041941577,0.0551758,0.758301,0.689453
109041964928,0.0415039,0.75293,0.666016
109041978898,0.0639648,0.74707,0.667969
109042001511,0.0556641,0.805664,0.627441
109042024098,0.050293,0.819336,0.631348
109042038446,0.0219727,0.766602,0.63916
109042061552,0.0620117,0.725586,0.691895
109042084068,0.118652,0.717773,0.650879
109042105079,0.0615234,0.806641,0.638672
109042121555,0.0288086,0.838379,0.584961
109042144134,0.0693359,0.791016,0.638184
109042158406,0.0517578,0.757812,0.647949
109042181602,0.0537109,0.757812,0.676758
109042203986,0.0966797,0.77002,0.632812
109042225240,0.0625,0.818848,0.60498
109042241597,0.0498047,0.837891,0.585938
109042264037,0.0532227,0.782715,0.632324
109042285322,0.0429688,0.760742,0.665039
109042301521,0.0629883,0.734375,0.681641
109042324033,0.0786133,0.768555,0.65625
109042352596,0.0449219,0.82959,0.593262
109042361553,0.0390625,0.804688,0.583984
109042385576,0.0610352,0.733887,0.686035
109042405110,0.0717773,0.755371,0.66748
109042421578,0.0585938,0.780762,0.670898
109042444120,0.0742188,0.836426,0.576172
109042465091,0.0424805,0.772949,0.612793
109042481707,0.0864258,0.760742,0.675293
109042504050,0.0913086,0.777832,0.65332
109042525095,0.0766602,0.816895,0.599121
109042547763,0.0561523,0.831055,0.563965
109042564083,0.0576172,0.80957,0.62207
109042585266,0.0844727,0.772949,0.634766
109042600915,0.0673828,0.778809,0.626465
109042624025,0.0771484,0.80957,0.600586
109042646671,0.0595703,0.793945,0.602051
109042661556,0.0751953,0.754395,0.636719
109042684213,0.0961914,0.781738,0.644531
109042712576,0.0732422,0.813477,0.599121
109042721682,0.0493164,0.780273,0.635254
109042744116,0.0859375,0.741211,0.619629
109042766585,0.0786133,0.73584,0.650879
109042781652,0.0917969,0.819336,0.634277
109042810105,0.0546875,0.831055,0.60498
109042826516,0.0209961,0.835449,0.613281
109042840954,0.0351562,0.773926,0.680176
109042865502,0.0551758,0.728516,0.689941
109042886599,0.0600586,0.726562,0.68457
109042900927,0.0629883,0.748535,0.655273
109042924040,0.050293,0.793945,0.613281
109042946638,0.0249023,0.860352,0.586914
109042960918,0.0371094,0.823242,0.621094
109042985009,0.0712891,0.782715,0.651367
109043006591,0.0898438,0.796387,0.643555
109043020857,0.0625,0.758301,0.59375
109043044131,0.046875,0.766602,0.646484
109043066592,0.0639648,0.833984,0.631348
109043089123,0.03125,0.832031,0.623047
109043104173,0.0385742,0.773926,0.665527
109043126564,0.0488281,0.749512,0.647461
109043147625,0.0424805,0.754883,0.655762
109043164059,0.0444336,0.768555,0.658691
109043187401,0.0395508,0.76416,0.666992
109043207676,0.0385742,0.763672,0.667969
109043224180,0.0332031,0.744629,0.672363
109043246606,0.0336914,0.749512,0.680176
109043267605,0.0429688,0.76123,0.665039
109043284021,0.0366211,0.775879,0.65918
109043306615,0.0415039,0.762207,0.668945
109043327686,0.0429688,0.757812,0.666992
109043344070,0.0463867,0.758301,0.672852
109043366617,0.043457,0.757324,0.670898
109043388861,0.0429688,0.753906,0.670898
109043404135,0.03125,0.750488,0.669434
109043426568,0.0292969,0.751465,0.67041
109043447691,0.0361328,0.760742,0.669922
109043470144,0.0244141,0.760254,0.665039
109043486548,0.0336914,0.750977,0.674316
109043507728,0.0332031,0.744141,0.680664
109043524098,0.0361328,0.748047,0.676758
109043546623,0.0336914,0.755859,0.678223
109043569101,0.0405273,0.759766,0.666016
109043584144,0.0356445,0.757812,0.664551
109043606634,0.0380859,0.760254,0.671387
109043612145,0.0473633,0.756348,0.665527
109043634535,0.0419922,0.751953,0.675293
109043649709,0.0458984,0.762695,0.666992
109043671995,0.0395508,0.762695,0.66748
109043694467,0.0415039,0.764648,0.667969
109043709477,0.0473633,0.764648,0.671875
109043731977,0.0356445,0.762695,0.664551
109043754642,0.0351562,0.755859,0.663574
109043769809,0.0351562,0.760742,0.672363
109043791929,0.0366211,0.756836,0.67041
109043817542,0.03125,0.756348,0.667969
109043830966,0.034668,0.754395,0.67041
109043852148,0.0410156,0.757324,0.665527
109043874549,0.0405273,0.759766,0.666504
109043889499,0.0395508,0.766113,0.663086
109043919706,0.0439453,0.758301,0.666016
109043934561,0.0424805,0.766113,0.667969
109043952445,0.043457,0.765625,0.659668
109043972054,0.0444336,0.764648,0.660645
109043994560,0.0493164,0.755859,0.665039
109044009540,0.0415039,0.76416,0.670898
109044031990,0.0424805,0.754395,0.669922
109044054542,0.043457,0.763672,0.671387
109044069605,0.0429688,0.755371,0.667969
109044092075,0.0405273,0.762207,0.668457
109044114485,0.0429688,0.759766,0.67041
109044129556,0.0415039,0.756836,0.667969
109044152051,0.0405273,0.758301,0.668457
109044174610,0.0439453,0.757812,0.669434
109044190968,0.0483398,0.760742,0.672363
109044212089,0.0454102,0.763184,0.661133
109044234471,0.0454102,0.760742,0.659668
109044250988,0.0458984,0.76416,0.662598
109044272158,0.0444336,0.759277,0.671387
109044294521,0.0478516,0.76416,0.667969
109044310902,0.0449219,0.76416,0.665039
109044332081,0.0390625,0.764648,0.658203
109044354589,0.0454102,0.763184,0.665039
109044370991,0.0419922,0.759277,0.665527
109044392027,0.0478516,0.76709,0.65918
109044422934,0.0454102,0.760254,0.665039
109044430969,0.0498047,0.765137,0.657227
109044451991,0.0454102,0.759766,0.663086
109044477505,0.050293,0.759277,0.669434
109044490998,0.046875,0.760254,0.669434
109044512021,0.0537109,0.77002,0.678223
109044534581,0.0639648,0.795898,0.657715
109044552388,0.0390625,0.776855,0.61377
109044573461,0.0244141,0.73291,0.663574
109044594527,0.0507812,0.717773,0.710938
109044612447,0.0566406,0.748047,0.729004
109044632199,0.0512695,0.772461,0.637207
109044654515,0.050293,0.790039,0.611816
109044672444,0.0537109,0.785645,0.683105
109044692054,0.0356445,0.785156,0.631348
109044714549,0.0263672,0.763184,0.710938
109044732614,0.0922852,0.695801,0.67627
109044754962,0.0986328,0.768555,0.633301
109044774576,0.0512695,0.822266,0.563477
109044792493,0.0258789,0.833984,0.579102
109044812120,0.0356445,0.788574,0.674316
109044834726,0.0756836,0.73584,0.68457
109044852457,0.074707,0.695312,0.67627
109044872248,0.0517578,0.774414,0.662109
109044894515,0.0527344,0.826172,0.614746
109044913417,0.0332031,0.815918,0.608887
109044932192,0.0629883,0.758301,0.647949
109044954639,0.0664062,0.762695,0.636719
109044972463,0.0429688,0.762695,0.668945
109044992092,0.0546875,0.764648,0.65332
109045014552,0.0517578,0.777832,0.644043
109045032532,0.0708008,0.791504,0.602051
109045052076,0.0727539,0.79248,0.61084
109045074624,0.059082,0.812012,0.615234
109045092554,0.0712891,0.780273,0.63916
109045114962,0.0908203,0.791016,0.628418
109045134579,0.081543,0.79248,0.614746
109045152504,0.0664062,0.782227,0.602051
109045175011,0.0566406,0.803223,0.646973
109045202073,0.0629883,0.8125,0.640625
109045212458,0.0898438,0.782715,0.62207
109045235147,0.0639648,0.791504,0.604492
109045254599,0.0673828,0.805176,0.593262
109045272486,0.0644531,0.777832,0.623047
109045293610,0.0766602,0.782715,0.640137
109045314550,0.0869141,0.790039,0.630371
109045332483,0.09375,0.80127,0.586914
109045353524,0.0668945,0.788574,0.601562
109045374616,0.0664062,0.790039,0.636719
109045392499,0.0488281,0.747559,0.678223
109045413507,0.0864258,0.768555,0.681641
109045434519,0.0703125,0.795898,0.625488
109045452631,0.0458984,0.833008,0.585449
109045473577,0.0625,0.787109,0.600098
109045494742,0.0473633,0.763184,0.65332
109045512508,0.0595703,0.754395,0.677246
109045536876,0.0473633,0.76709,0.688965
109045554804,0.0625,0.776855,0.673828
109045572476,0.0732422,0.797852,0.630371
109045595109,0.0541992,0.800781,0.572754
109045614653,0.0595703,0.755859,0.60498
109045632573,0.105469,0.763184,0.59668
109045655109,0.0327148,0.828613,0.680664
109045674613,0.0439453,0.818848,0.65918
109045692539,0.0561523,0.786133,0.692383
109045715039,0.0527344,0.769531,0.666016
109045734566,0.0419922,0.776367,0.59668
109045752601,0.0576172,0.77002,0.598633
109045774990,0.0708008,0.766602,0.644531
109045794768,0.0585938,0.787109,0.664062
109045813160,0.0341797,0.783203,0.657715
109045834204,0.0410156,0.740723,0.664062
109045854784,0.0600586,0.743164,0.661133
109045871715,0.0629883,0.795898,0.62793
109045894273,0.0478516,0.821289,0.623047
109045915401,0.0483398,0.791016,0.642578
109045931661,0.0454102,0.739258,0.690918
109045954270,0.046875,0.722168,0.704102
109045975284,0.034668,0.741211,0.689941
109045991684,0.0258789,0.757812,0.676758
109046014220,0.0351562,0.767578,0.668457
109046035247,0.0371094,0.78125,0.65625
109046051724,0.0341797,0.769043,0.663086
109046074237,0.0410156,0.742188,0.671875
109046095347,0.0449219,0.732422,0.682617
109046111864,0.0415039,0.749023,0.674316
109046141686,0.0454102,0.765137,0.658691
109046155235,0.0478516,0.776367,0.662598
109046171718,0.0498047,0.76709,0.660645
109046194282,0.0537109,0.758789,0.665527
109046215477,0.050293,0.760254,0.667969
109046231715,0.0483398,0.76709,0.660645
109046254238,0.0444336,0.769531,0.661133
109046275501,0.0478516,0.766113,0.658203
109046292087,0.0424805,0.76416,0.664551
109046314379,0.043457,0.76416,0.660156
109046335232,0.0405273,0.765137,0.657715
109046352795,0.0415039,0.76123,0.663574
109046374233,0.0385742,0.757324,0.661621
109046395265,0.0405273,0.760254,0.66748
109046419264,0.0390625,0.763672,0.666504
109046434318,0.0410156,0.755859,0.665039
109046456715,0.0444336,0.756348,0.671875
109046471745,0.0405273,0.76416,0.664551
109046494660,0.043457,0.760254,0.65918
109046516745,0.0400391,0.754883,0.667969
109046531731,0.0449219,0.773926,0.656738
109046555060,0.0463867,0.765137,0.662109
109046576702,0.0498047,0.763184,0.658203
109046591054,0.0415039,0.771484,0.663086
109046614312,0.0473633,0.772949,0.662598
109046636744,0.0454102,0.748535,0.657227
109046651029,0.0429688,0.758301,0.664062
109046674323,0.046875,0.763672,0.659668
109046696702,0.0493164,0.768066,0.664062
109046711036,0.0483398,0.762695,0.672363
109046734215,0.0483398,0.759277,0.667969
109046756687,0.043457,0.761719,0.662598
109046771125,0.0410156,0.768066,0.665527
109046794241,0.0488281,0.770996,0.666016
109046824358,0.0395508,0.774414,0.655273
109046831104,0.0395508,0.773926,0.652832
109046855201,0.0507812,0.748047,0.666992
109046876769,0.0498047,0.732422,0.67627
109046891594,0.0512695,0.756348,0.65625
109046914261,0.0424805,0.772461,0.655762
109046937177,0.0458984,0.765625,0.666504
109046957808,0.0410156,0.770996,0.671875
109046974731,0.0473633,0.776855,0.65332
109046996718,0.046875,0.808594,0.671875
109047017879,0.0595703,0.787598,0.612305
109047034353,0.0405273,0.738281,0.64502
109047056771,0.0541992,0.757812,0.711426
109047077967,0.0639648,0.783691,0.680664
109047094321,0.0424805,0.76123,0.668945
109047116715,0.0283203,0.738281,0.671875
109047138026,0.0390625,0.774902,0.674316
109047154300,0.0644531,0.739746,0.68457
109047176765,0.101562,0.717285,0.633301
109047197796,0.0566406,0.811523,0.595703
109047214370,0.0322266,0.861328,0.600586
109047236825,0.0664062,0.813477,0.603027
109047257786,0.0595703,0.742188,0.650879
109047274288,0.078125,0.734863,0.683105
109047296770,0.0849609,0.758301,0.663086
109047317856,0.0522461,0.841309,0.622559
109047334443,0.0366211,0.82373,0.602051
109047356742,0.0458984,0.775391,0.637207
109047379316,0.0424805,0.724609,0.661621
109047394300,0.0664062,0.754395,0.677246
109047416721,0.0561523,0.794434,0.624512
109047439314,0.0527344,0.847168,0.597656
109047454286,0.0561523,0.77832,0.59668
109047476826,0.059082,0.736328,0.677246
109047499361,0.0722656,0.755371,0.67041
109047514288,0.0717773,0.786621,0.653809
109047538279,0.0844727,0.824707,0.583496
109047559290,0.0585938,0.810059,0.589844
109047580393,0.0576172,0.77002,0.664551
109047596855,0.0727539,0.797852,0.656738
109047619281,0.0869141,0.811035,0.633301
109047633637,0.0795898,0.827637,0.570312
109047656822,0.0615234,0.806641,0.567871
109047679306,0.0844727,0.780762,0.604004
109047693645,0.0703125,0.753906,0.631348
109047716784,0.103027,0.800781,0.624512
109047739298,0.065918,0.837891,0.59375
109047753612,0.0253906,0.82959,0.632812
109047776855,0.0483398,0.742188,0.668945
109047799425,0.0952148,0.724121,0.663574
109047813580,0.0556641,0.789062,0.625488
109047836813,0.0664062,0.842285,0.599121
109047859313,0.0742188,0.841309,0.564941
109047874384,0.0571289,0.79541,0.612305
109047896797,0.0820312,0.754395,0.630859
109047919313,0.074707,0.754883,0.658691
109047940363,0.090332,0.793945,0.663574
109047956842,0.065918,0.807129,0.659668
109047985375,0.0639648,0.791504,0.62793
109048000611,0.0693359,0.750977,0.618164
109048016818,0.0698242,0.745605,0.646484
109048039359,0.065918,0.793945,0.628906
109048060465,0.0527344,0.858887,0.640137
109048082845,0.0488281,0.804199,0.625488
109048099421,0.0410156,0.756348,0.626465
109048120313,0.0498047,0.777344,0.622559
109048136770,0.078125,0.796875,0.635742
109048166781,0.0585938,0.809082,0.650879
109048180366,0.0507812,0.794922,0.671387
109048196743,0.0522461,0.75293,0.652832
109048219297,0.0395508,0.742188,0.649902
109048240373,0.0400391,0.763184,0.652832
109048256816,0.0429688,0.782227,0.658203
109048279305,0.0483398,0.755859,0.670898
109048300352,0.0458984,0.73291,0.69043
109048316796,0.0473633,0.740234,0.693848
109048339336,0.0400391,0.752441,0.674805
109048361646,0.0288086,0.762207,0.646973
109048376797,0.050293,0.774902,0.647949
109048399420,0.0566406,0.779297,0.655762
109048421797,0.0507812,0.761719,0.662598
109048436806,0.0537109,0.76416,0.671387
109048459356,0.0541992,0.763672,0.666504
109048481810,0.0498047,0.759277,0.662598
109048496157,0.0517578,0.76123,0.658691
109048519323,0.0517578,0.766113,0.650391
109048541817,0.0429688,0.76709,0.646973
109048556198,0.0410156,0.771973,0.65625
109048579327,0.0424805,0.768066,0.662598
109048601766,0.0507812,0.76709,0.665039
109048616202,0.0493164,0.753906,0.670898
109048639311,0.0522461,0.755371,0.664551
109048669800,0.0473633,0.759766,0.670898
109048676118,0.0419922,0.768066,0.664062
109048699428,0.0375977,0.769043,0.668457
109048721790,0.0439453,0.765625,0.664551
109048736118,0.0439453,0.745117,0.662598
109048759374,0.0483398,0.75293,0.67334
109048781820,0.0454102,0.757324,0.66748
109048802903,0.0439453,0.769043,0.665039
109048819379,0.0419922,0.762695,0.670898
109048841838,0.0517578,0.766602,0.65918
109048862879,0.0532227,0.754395,0.65918
109048879316,0.0478516,0.759766,0.660645
109048901809,0.0522461,0.762695,0.656738
109048922838,0.0444336,0.766602,0.660645
109048939288,0.0517578,0.769043,0.661621
109048969320,0.0551758,0.771973,0.657715
109048982860,0.0546875,0.767578,0.666504
109048999359,0.0634766,0.793945,0.644043
109049021830,0.043457,0.787598,0.646973
109049042915,0.0390625,0.768066,0.651855
109049059374,0.0390625,0.737793,0.678223
109049081846,0.0732422,0.702148,0.692383
109049102893,0.0566406,0.756836,0.688965
109049119366,0.0449219,0.759277,0.653809
109049141833,0.0566406,0.761719,0.643555
109049163053,0.0371094,0.789551,0.651855
109049179370,0.0473633,0.789062,0.660645
109049202851,0.0478516,0.760742,0.675293
109049223013,0.0688477,0.75,0.672852
109049239298,0.0522461,0.752441,0.657715
109049262008,0.0566406,0.781738,0.666504
109049284387,0.0522461,0.765625,0.672852
109049299366,0.0649414,0.769043,0.666504
109049321876,0.0561523,0.768066,0.651367
109049344448,0.0458984,0.775879,0.674316
109049359462,0.0454102,0.788574,0.648438
109049381840,0.0244141,0.799805,0.67041
109049404362,0.0512695,0.734375,0.671387
109049419380,0.0766602,0.703613,0.673828
109049441857,0.0703125,0.767578,0.629395
109049464396,0.0478516,0.837402,0.589844
109049478746,0.0317383,0.807617,0.628418
109049501828,0.0571289,0.739258,0.688965
109049524413,0.0761719,0.708008,0.691406
109049538683,0.0854492,0.736816,0.692383
109049561868,0.10498,0.82959,0.598145
109049584407,0.0581055,0.85498,0.530273
109049605430,0.0395508,0.79541,0.612305
109049621848,0.0551758,0.759277,0.692383
109049644351,0.0771484,0.740234,0.698242
109049665583,0.0688477,0.759766,0.672363
109049681912,0.0644531,0.813965,0.605957
109049704384,0.0317383,0.787598,0.626465
109049718669,0.0585938,0.734863,0.665039
109049749345,0.0668945,0.776855,0.661621
109049764371,0.0732422,0.785156,0.629395
109049778767,0.0761719,0.815918,0.592773
109049801865,0.0693359,0.779297,0.623047
109049824417,0.0756836,0.751465,0.67041
109049845418,0.11377,0.76709,0.63916
109049861859,0.0683594,0.803711,0.616211
109049884494,0.0493164,0.82959,0.597656
109049905445,0.065918,0.754883,0.649414
109049928032,0.0844727,0.748047,0.672852
109049944441,0.074707,0.790527,0.625977
109049965369,0.0693359,0.816895,0.600098
109049981865,0.0537109,0.787598,0.602539
109050004379,0.0795898,0.776367,0.646484
109050025443,0.0800781,0.813477,0.627441
109050041887,0.0654297,0.818359,0.618164
109050064358,0.0556641,0.777832,0.645996
109050085571,0.0766602,0.745117,0.652344
109050101862,0.0664062,0.743164,0.646973
109050124115,0.0429688,0.746582,0.662598
109050145492,0.0463867,0.741211,0.696289
109050152296,0.09375,0.777344,0.650879
109050167228,0.12207,0.844727,0.575684
109050191325,0.0957031,0.856445,0.461426
109050212309,0.0742188,0.9375,0.478027
109050228895,0.0585938,0.934082,0.542969
109050249741,0.0869141,0.817871,0.672363
109050272334,0.0849609,0.702637,0.756348
109050287482,0.0664062,0.63623,0.745117
109050309773,0.0698242,0.683105,0.711914
109050332440,0.0317383,0.778809,0.635742
109050347361,0.0322266,0.833008,0.605469
109050369794,0.034668,0.779297,0.64502
109050392445,0.0361328,0.712891,0.675293
109050408815,0.0444336,0.665039,0.691406
109050429860,0.0639648,0.715332,0.730469
109050452314,0.0722656,0.808594,0.674316
109050467310,0.0458984,0.837402,0.617188
109050489843,0.0561523,0.821777,0.630859
109050512308,0.0791016,0.790527,0.609375
109050527330,0.0834961,0.759766,0.640625
109050549777,0.0664062,0.738281,0.676758
109050581120,0.0776367,0.750488,0.679688
109050587400,0.0561523,0.760254,0.669434
109050609797,0.0458984,0.760742,0.670898
109050633751,0.043457,0.751465,0.650879
109050647448,0.0410156,0.775879,0.654297
109050669783,0.0532227,0.778809,0.647949
109050692393,0.0527344,0.771484,0.655762
109050707305,0.0610352,0.761719,0.661133
109050729744,0.0649414,0.768066,0.666504
109050752349,0.0668945,0.762207,0.660645
109050770300,0.059082,0.765625,0.658203
109050789986,0.0615234,0.771973,0.653809
109050812308,0.0551758,0.769531,0.647949
109050828785,0.0537109,0.760254,0.655762
109050849947,0.0581055,0.762207,0.665039
109050872287,0.0600586,0.750977,0.651367
109050888918,0.0551758,0.769531,0.660156
109050909758,0.0551758,0.772461,0.657715
109050932501,0.0654297,0.787109,0.645996
109050948902,0.0405273,0.763672,0.648438
109050969798,0.0668945,0.768555,0.656738
109050992441,0.0551758,0.763672,0.648438
109051008801,0.0610352,0.756836,0.668945
109051029766,0.0581055,0.757324,0.668457
109051052397,0.0585938,0.756836,0.662598
109051068742,0.046875,0.761719,0.651367
109051089778,0.0498047,0.767578,0.657227
109051112341,0.0449219,0.758301,0.66748
109051136318,0.0556641,0.762695,0.663574
109051150018,0.059082,0.754883,0.662598
109051172306,0.0507812,0.756836,0.649902
109051190358,0.0571289,0.776855,0.645508
109051209974,0.059082,0.774414,0.648926
109051232338,0.0595703,0.765625,0.646484
109051250432,0.0517578,0.779785,0.665039
109051269796,0.0737305,0.785156,0.66748
109051292380,0.0581055,0.779785,0.641113
109051310343,0.0576172,0.779785,0.65625
109051329797,0.0561523,0.740234,0.674316
109051352343,0.0615234,0.742188,0.686035
109051370289,0.0541992,0.77832,0.706543
109051389869,0.0449219,0.816406,0.618652
109051415385,0.0522461,0.722168,0.606934
109051430255,0.043457,0.71582,0.727051
109051449863,0.0908203,0.782227,0.655762
109051472328,0.0942383,0.807129,0.591309
109051490179,0.0566406,0.766602,0.64209
109051509896,-0.00537109,0.777832,0.686035
109051532408,0.0366211,0.768555,0.713867
109051550312,0.0922852,0.75293,0.661621
109051569870,0.128418,0.740234,0.625488
109051592384,0.0532227,0.783203,0.571289
109051610348,0.0366211,0.822266,0.619629
109051639757,0.0859375,0.798828,0.635742
109051652335,0.0942383,0.769531,0.64502
109051670331,0.109863,0.748047,0.61377
109051689855,0.0844727,0.77002,0.628418
109051712524,0.0737305,0.800293,0.667969
109051730326,0.0581055,0.77832,0.666504
109051749785,0.0717773,0.783203,0.638184
109051772502,0.0737305,0.769043,0.611328
109051790288,0.0737305,0.772949,0.617676
109051811429,0.0576172,0.807617,0.662109
109051832335,0.0668945,0.818848,0.649902
109051852613,0.0834961,0.790527,0.621094
109051871361,0.0673828,0.72168,0.651367
109051892340,0.0888672,0.75,0.693848
109051910333,0.0908203,0.799316,0.612793
109051932793,0.0683594,0.809082,0.589844
109051952257,0.0756836,0.825684,0.599121
109051970767,0.0717773,0.756836,0.632324
109051992763,0.103027,0.747559,0.651367
109052012363,0.0996094,0.818359,0.612793
109052030341,0.0737305,0.805176,0.609375
109052051292,0.0917969,0.803223,0.616211
109052072510,0.0737305,0.763184,0.635254
109052090282,0.0869141,0.754883,0.649902
109052111350,0.0766602,0.765625,0.633789
109052132360,0.0668945,0.788574,0.67627
109052150316,0.0961914,0.78418,0.615234
109052172908,0.0639648,0.786133,0.617676
109052192331,0.0751953,0.76709,0.623535
109052210304,0.097168,0.765625,0.616211
109052232766,0.0805664,0.760742,0.645508
109052252345,0.113281,0.795898,0.637207
109052270457,0.0673828,0.838867,0.619141
109052292780,0.0478516,0.814941,0.608887
109052312397,0.0605469,0.792969,0.641113
109052330446,0.0703125,0.777832,0.64502
109052353372,0.0712891,0.734375,0.64209
109052372441,0.0620117,0.724121,0.69873
109052396294,0.0766602,0.774414,0.664062
109052412852,0.050293,0.829102,0.608887
109052433086,0.0473633,0.816406,0.601562
109052449480,0.0703125,0.791992,0.615234
109052472132,0.0913086,0.777344,0.603027
109052493030,0.0664062,0.766602,0.652832
109052509509,0.0742188,0.768066,0.683594
109052532025,0.0756836,0.777344,0.672852
109052553047,0.0507812,0.794434,0.640137
109052569494,0.0522461,0.782715,0.630859
109052592031,0.0527344,0.780273,0.618164
109052613090,0.0546875,0.77832,0.644531
109052629469,0.0664062,0.763184,0.672363
109052652440,0.0644531,0.751953,0.67334
109052673274,0.0571289,0.745605,0.671875
109052689578,0.059082,0.758789,0.660156
109052712023,0.0566406,0.798828,0.643555
109052733161,0.0527344,0.791504,0.625488
109052749477,0.0629883,0.769531,0.659668
109052772027,0.0649414,0.749512,0.665527
109052800564,0.0615234,0.750977,0.666016
109052809494,0.0507812,0.757812,0.668457
109052832450,0.0571289,0.78125,0.657227
109052853046,0.0507812,0.776855,0.644531
109052869488,0.0571289,0.760742,0.65918
109052892098,0.0620117,0.762695,0.660156
109052913060,0.0561523,0.78418,0.65625
109052929506,0.0473633,0.765625,0.650391
109052952430,0.0605469,0.768066,0.658203
109052973069,0.0600586,0.76709,0.648926
109052989520,0.0610352,0.762207,0.658691
109053011964,0.0541992,0.771484,0.663574
109053033247,0.0610352,0.768555,0.664551
109053049548,0.0556641,0.76123,0.65625
109053079568,0.0605469,0.757324,0.656738
109053094548,0.0600586,0.762695,0.65332
109053109478,0.0537109,0.780762,0.650391
109053131931,0.0561523,0.771973,0.662598
109053154499,0.0649414,0.768066,0.651367
109053170452,0.0649414,0.758789,0.658203
109053192104,0.0644531,0.765137,0.65918
109053214478,0.0605469,0.76709,0.649902
109053229027,0.0546875,0.77002,0.650879
109053251999,0.0610352,0.776367,0.652344
109053274471,0.0551758,0.775391,0.654785
109053288854,0.0571289,0.768066,0.663086
109053312494,0.0571289,0.76123,0.658691
109053334536,0.0561523,0.768066,0.653809
109053355553,0.0571289,0.76416,0.669922
109053373181,0.0595703,0.771484,0.65625
109053394546,0.0551758,0.759766,0.653809
109053408860,0.0576172,0.76416,0.657227
109053432103,0.0561523,0.769043,0.656738
109053454535,0.0537109,0.776367,0.655273
109053468906,0.0600586,0.766113,0.655273
109053492020,0.0566406,0.765137,0.655762
109053514534,0.0615234,0.758301,0.658203
109053528885,0.0620117,0.77002,0.654785
109053552027,0.0556641,0.773926,0.65332
109053575762,0.0595703,0.771973,0.65625
109053595719,0.059082,0.762695,0.666016
109053612018,0.065918,0.791992,0.668457
109053634544,0.0512695,0.800781,0.640625
109053655392,0.0498047,0.803223,0.625488
109053672039,0.0371094,0.731445,0.680664
109053694517,0.0722656,0.71875,0.687988
109053717030,0.0732422,0.733398,0.680176
109053732017,0.0761719,0.76709,0.678711
109053762115,0.0444336,0.814941,0.62207
109053775596,0.0463867,0.791504,0.61084
109053792094,0.0268555,0.764648,0.673828
109053814592,0.0488281,0.739258,0.680176
109053835627,0.0830078,0.74707,0.687988
109053852103,0.0883789,0.776855,0.632812
109053874603,0.0693359,0.820801,0.599609
109053896972,0.0595703,0.867676,0.593262
109053912540,0.0131836,0.858398,0.644043
109053934588,0.0561523,0.680176,0.676758
109053955756,0.125977,0.620605,0.700684
109053971363,0.0859375,0.808105,0.621094
109053994641,0.0454102,0.914062,0.550781
109054015821,0.0498047,0.77002,0.656738
109054031416,0.0517578,0.6875,0.692383
109054054609,0.0737305,0.695312,0.695312
109054077023,0.0864258,0.813477,0.603516
109054091421,0.0498047,0.884277,0.564941
109054116151,0.0512695,0.854492,0.552246
109054137072,0.0620117,0.719238,0.693848
109054151633,0.0913086,0.71875,0.687012
109054174576,0.046875,0.771484,0.650391
109054197140,0.0834961,0.84668,0.598633
109054211412,0.0473633,0.810547,0.561035
109054234540,0.0571289,0.76123,0.644043
109054257038,0.0712891,0.757324,0.676758
109054271442,0.106445,0.825195,0.614746
109054294528,0.0605469,0.849121,0.557129
109054317125,0.0458984,0.758789,0.648438
109054331420,0.074707,0.742676,0.680664
109054354731,0.0825195,0.748047,0.661133
109054377054,0.0878906,0.791992,0.621094
109054392365,0.0644531,0.827148,0.592773
109054414703,0.0532227,0.770996,0.629395
109054437055,0.0820312,0.750488,0.67334
109054451387,0.0834961,0.775879,0.660156
109054474562,0.0712891,0.797852,0.630371
109054497717,0.0644531,0.757812,0.632812
109054511535,0.0869141,0.735352,0.620605
109054534602,0.0976562,0.788574,0.609375
109054557131,0.0786133,0.84082,0.601562
109054578141,0.0678711,0.84082,0.60498
109054594535,0.0698242,0.824219,0.63623
109054617102,0.027832,0.762207,0.65625
109054638089,0.0761719,0.714355,0.653809
109054654526,0.0712891,0.746094,0.6875
109054677128,0.0395508,0.812988,0.601562
109054698129,0.0366211,0.827637,0.621094
109054714700,0.0581055,0.79248,0.647461
109054745992,0.065918,0.74707,0.632324
109054758128,0.0678711,0.742676,0.647461
109054774636,0.0703125,0.780762,0.654785
109054797120,0.0488281,0.805176,0.640137
109054818313,0.0537109,0.791016,0.650391
109054834634,0.0605469,0.762207,0.665527
109054857093,0.0585938,0.768066,0.643066
109054878261,0.0610352,0.743652,0.647461
109054895278,0.0615234,0.766602,0.662109
109054917115,0.0722656,0.810547,0.640137
109054939623,0.0375977,0.829102,0.601562
109054954533,0.0371094,0.796387,0.626465
109054977145,0.0600586,0.774902,0.63623
109054999557,0.0581055,0.777344,0.644043
109055020682,0.0522461,0.748047,0.672852
109055037140,0.0566406,0.746094,0.691895
109055059576,0.0493164,0.766602,0.666504
109055074635,0.0317383,0.760742,0.658691
109055097077,0.0449219,0.761719,0.668457
109055119784,0.0390625,0.760254,0.650879
109055133992,0.0371094,0.768066,0.653809
109055157105,0.034668,0.76123,0.666504
109055180045,0.046875,0.753418,0.671387
109055193997,0.0390625,0.752441,0.672852
109055217058,0.046875,0.767578,0.67041
109055239689,0.043457,0.758789,0.666504
109055253946,0.0483398,0.767578,0.660645
109055277271,0.0473633,0.768555,0.664062
109055300032,0.0546875,0.760254,0.654785
109055314074,0.0458984,0.766602,0.665039
109055337169,0.0483398,0.762695,0.660645
109055359558,0.0463867,0.762207,0.668945
109055374139,0.0488281,0.759766,0.666504
109055397172,0.0458984,0.76709,0.665039
109055425626,0.0410156,0.76416,0.663574
109055434132,0.0410156,0.767578,0.665039
109055457063,0.0473633,0.762207,0.65625
109055479665,0.0478516,0.76709,0.669434
109055500649,0.0366211,0.771484,0.664062
109055518570,0.046875,0.758301,0.666992
109055539623,0.0507812,0.752441,0.665039
109055560652,0.0458984,0.766113,0.665527
109055577635,0.050293,0.764648,0.656738
109055599618,0.0527344,0.765625,0.65918
109055620614,0.043457,0.761719,0.660156
109055637108,0.0488281,0.759277,0.666504
109055659602,0.0527344,0.772949,0.676758
109055680878,0.0375977,0.774902,0.640625
109055697121,0.046875,0.741211,0.674805
109055720467,0.0581055,0.753418,0.676758
109055740772,0.0610352,0.772461,0.655762
109055757094,0.043457,0.771484,0.658203
109055779794,0.0493164,0.757324,0.657715
109055802123,0.0512695,0.756836,0.660156
109055817083,0.046875,0.76416,0.652344
109055839765,0.0493164,0.771973,0.657715
109055860685,0.0488281,0.772949,0.653809
109055877143,0.0463867,0.769531,0.651367
109055899646,0.0541992,0.760254,0.661621
109055923648,0.0595703,0.780762,0.677246
109055937149,0.0620117,0.784668,0.659668
109055959601,0.0439453,0.77832,0.630859
109055982163,0.0581055,0.762695,0.65625
109055997190,0.0478516,0.745605,0.663574
109056019596,0.0527344,0.742676,0.687988
109056042221,0.0639648,0.757812,0.696289
109056057109,0.0444336,0.770996,0.650391
109056079708,0.0488281,0.771973,0.632324
109056102303,0.0424805,0.748535,0.620605
109056125439,0.0595703,0.747559,0.706055
109056139821,0.0620117,0.8125,0.676758
109056162155,0.0625,0.769043,0.633789
109056176443,0.0595703,0.719238,0.641113
109056199727,0.0463867,0.772461,0.686523
109056222126,0.0361328,0.809082,0.676758
109056236586,0.0703125,0.797363,0.654297
109056259699,0.0727539,0.726562,0.641602
109056282107,0.0927734,0.775391,0.602539
109056296495,0.0488281,0.817871,0.595215
109056319639,0.0605469,0.839844,0.677734
109056342141,0.0742188,0.777832,0.650879
109056356544,0.0952148,0.741699,0.643555
109056379637,0.0634766,0.778809,0.623535
109056401918,0.0649414,0.809082,0.635742
109056417956,0.050293,0.819336,0.638184
109056439682,0.0556641,0.769531,0.677246
109056462131,0.0957031,0.743164,0.638184
109056483180,0.0742188,0.770508,0.605957
109056499637,0.0556641,0.791016,0.629883
109056522135,0.0737305,0.793945,0.647461
109056543213,0.0703125,0.746094,0.666992
109056559698,0.0981445,0.741699,0.677246
109056583572,0.0566406,0.777344,0.648438
109056603347,0.081543,0.799316,0.637207
109056619674,0.0791016,0.799316,0.611328
109056642123,0.059082,0.749512,0.639648
109056663240,0.0952148,0.772949,0.669922
109056685713,0.0864258,0.811523,0.620605
109056702129,0.0673828,0.784668,0.640137
109056707552,0.0898438,0.751465,0.648438
109056730031,0.0942383,0.762695,0.633301
109056745034,0.0864258,0.800293,0.614746
109056767698,0.0703125,0.799316,0.627441
109056790086,0.0742188,0.796387,0.623047
109056805075,0.0854492,0.764648,0.653809
109056827563,0.09375,0.766113,0.64209
109056850061,0.0913086,0.779785,0.629883
109056865088,0.0898438,0.779785,0.648926
109056887551,0.0947266,0.787109,0.618652
109056910044,0.0800781,0.783691,0.638184
109056925076,0.0712891,0.786621,0.623535
109056947527,0.0761719,0.786621,0.655762
109056970306,0.0654297,0.73877,0.679688
109056985149,0.115234,0.731934,0.608398
109057007615,0.0698242,0.80127,0.644043
109057030062,0.0512695,0.843262,0.596191
109057045079,0.0512695,0.825195,0.625977
109057067814,0.0727539,0.757812,0.692871
109057090077,0.0771484,0.713867,0.686523
109057105059,0.090332,0.709961,0.657715
109057127602,0.0913086,0.768555,0.663086
109057150069,0.0654297,0.841797,0.603516
109057165067,0.0478516,0.832031,0.602539
109057187540,0.0629883,0.786133,0.638672
109057210249,0.0732422,0.753418,0.635254
109057225062,0.0908203,0.733398,0.64502
109057247535,0.109375,0.797852,0.623047
109057270216,0.065918,0.844238,0.589844
109057285074,0.0410156,0.838867,0.613281
109057307648,0.0581055,0.789062,0.640137
109057330125,0.0708008,0.756348,0.669434
109057345084,0.0742188,0.76709,0.647461
109057367833,0.0673828,0.777832,0.640137
109057390072,0.0507812,0.761719,0.65918
109057405038,0.046875,0.758789,0.680176
109057427608,0.043457,0.740723,0.687988
109057450204,0.0410156,0.729004,0.687012
109057466644,0.0429688,0.735352,0.679199
109057487572,0.0415039,0.772461,0.667969
109057518399,0.0415039,0.782715,0.663086
109057526539,0.0507812,0.775391,0.658203
109057547545,0.0537109,0.775391,0.651367
109057570167,0.0517578,0.776855,0.638184
109057586530,0.0527344,0.776855,0.636719
109057607657,0.0629883,0.771484,0.646484
109057630160,0.0615234,0.768555,0.659668
109057646534,0.0571289,0.772461,0.652832
109057667616,0.0527344,0.76123,0.657715
109057690087,0.0488281,0.77002,0.659668
109057706526,0.0439453,0.766113,0.65332
109057727664,0.0581055,0.772949,0.65332
109057750051,0.050293,0.772461,0.652344
109057766655,0.0522461,0.775879,0.646484
109057787642,0.0478516,0.769531,0.659668
109057810162,0.0522461,0.773438,0.652832
109057828034,0.0458984,0.766602,0.665527
109057847582,0.0551758,0.766113,0.658691
109057870220,0.0566406,0.762695,0.662598
109057888098,0.0576172,0.771484,0.655762
109057907618,0.0517578,0.779785,0.652344
109057930283,0.0541992,0.774902,0.647461
109057948017,0.0478516,0.768066,0.651367
109057967579,0.0556641,0.772949,0.650879
109057990274,0.0532227,0.778809,0.646484
109058007967,0.0488281,0.783691,0.654297
109058027646,0.0537109,0.767578,0.654297
109058050113,0.0600586,0.777344,0.649902
109058074000,0.0488281,0.773438,0.650391
109058087789,0.0561523,0.765625,0.655762
109058110129,0.0644531,0.762695,0.649902
109058128115,0.0605469,0.766113,0.650879
109058147662,0.0551758,0.77832,0.652832
109058170203,0.0683594,0.786133,0.645996
109058188017,0.0620117,0.784668,0.632324
109058207572,0.0522461,0.791016,0.627441
109058230171,0.0576172,0.760742,0.649902
109058248053,0.0761719,0.775391,0.694824
109058267600,0.0605469,0.838379,0.619629
109058290225,0.034668,0.77832,0.592773
109058308036,0.0454102,0.714844,0.689453
109058327625,0.0678711,0.791992,0.746582
109058351621,0.0957031,0.835938,0.675293
109058367986,0.0429688,0.797363,0.590332
109058387690,0.0131836,0.651855,0.617676
109058410091,0.0942383,0.665039,0.686523
109058427994,0.0874023,0.807129,0.650879
109058449124,0.0356445,0.856445,0.616699
109058470142,0.10791,0.79248,0.615234
109058488209,0.0595703,0.754883,0.596191
109058509047,0.0820312,0.755859,0.661621
109058530130,0.0664062,0.805176,0.662109
109058548210,0.0581055,0.837891,0.645508
109058569061,0.0708008,0.791992,0.611816
109058590148,0.0795898,0.762207,0.606445
109058608229,0.046875,0.757324,0.661621
109058629087,0.0541992,0.793945,0.660645
109058650338,0.059082,0.776367,0.66748
109058668053,0.0703125,0.790039,0.632812
109058690121,0.0668945,0.756348,0.607422
109058710187,0.0629883,0.76123,0.664551
109058728025,0.0712891,0.817383,0.654297
109058752096,0.0869141,0.799805,0.632812
109058770099,0.0888672,0.804688,0.566406
109058787990,0.0551758,0.788574,0.58252
109058810599,0.0751953,0.79834,0.626953
109058830193,0.0883789,0.791016,0.642578
109058848025,0.0898438,0.770996,0.648926
109058870623,0.108398,0.796387,0.599121
109058890174,0.0742188,0.804199,0.578613
109058908044,0.0810547,0.782715,0.623047
109058930537,0.09375,0.803223,0.644531
109058950335,0.0961914,0.79541,0.631348
109058968258,0.0917969,0.797852,0.598633
109058990543,0.0742188,0.794434,0.601562
109059010816,0.0830078,0.791016,0.624023
109059027348,0.0800781,0.778809,0.637695
109059049753,0.0922852,0.802734,0.631836
109059071037,0.0961914,0.827637,0.609863
109059087283,0.0942383,0.746582,0.581055
109059109921,0.0761719,0.731934,0.617188
109059130841,0.0717773,0.772461,0.629395
109059147264,0.0556641,0.782715,0.702148
109059169788,0.104004,0.836914,0.693359
109059190794,0.101562,0.838379,0.556641
109059207435,0.0991211,0.838379,0.485352
109059229759,0.0268555,0.806152,0.574219
109059250826,0.0585938,0.825195,0.647461
109059267371,0.0644531,0.745117,0.695312
109059289747,0.10498,0.753906,0.740234
109059310949,0.0688477,0.75293,0.67334
109059327341,0.0522461,0.796387,0.573242
109059349825,0.078125,0.812012,0.546875
109059370992,0.0756836,0.84668,0.596191
109059387313,0.0546875,0.829102,0.611328
109059409766,0.0507812,0.766602,0.654297
109059432417,0.0708008,0.713867,0.696289
109059447311,0.0849609,0.766113,0.677246
109059469842,0.0405273,0.811523,0.594727
109059490802,0.0551758,0.8125,0.618652
109059513386,0.0722656,0.810547,0.625488
109059543998,0.0654297,0.791504,0.632812
