timestamp,emg1,emg2,emg3,emg4,emg5,emg6,emg7,emg8
109000434096,-2,-2,-1,-4,2,-3,-3,-3
109000434096,-2,0,-3,-2,-5,0,-1,2
109000449045,0,0,-1,6,35,2,2,-12
109000449045,0,0,-2,-1,-12,-2,-3,0
109000450727,0,0,-1,-2,-21,-3,-1,0
109000450727,0,-1,-1,0,17,3,0,-1
109000471554,-2,-1,0,-6,-8,0,0,0
109000471554,0,-1,2,4,6,0,0,0
109000473060,-2,-3,-3,-1,17,-1,-2,-1
109000473060,-1,-2,1,9,12,-1,-2,-1
109000485962,1,1,-3,-9,-4,-4,-2,2
109000485962,1,0,1,8,0,0,0,1
109000492646,-1,0,0,0,3,-3,-1,1
109000492646,0,-2,-2,4,18,1,0,-3
109000509151,-1,-1,0,-3,-2,1,-1,2
109000509151,-2,-2,-1,-2,-3,0,1,0
109000510731,-2,-3,-3,-5,-19,-2,-3,0
109000510731,-1,0,-2,0,23,-1,-3,0
109000531608,-3,1,0,-8,-21,-2,-3,0
109000531608,0,1,0,12,9,2,1,0
109000533204,-1,0,0,-2,-13,-1,1,0
109000533204,1,-1,0,-20,-33,-8,-3,-1
109000545281,-1,-1,-3,-2,-1,-1,-1,1
109000545281,-1,-1,0,-1,5,-1,-2,-1
109000554100,0,1,0,5,10,2,0,-1
109000554100,0,1,-1,3,6,3,-1,0
109000568983,-2,-2,0,1,-5,0,-2,-2
109000568983,-1,-2,-2,-3,-2,1,-1,-1
109000570726,-2,-2,1,1,6,0,1,-2
109000570726,-2,0,-1,-3,1,-4,-2,-1
109000591553,-1,-1,1,5,20,8,1,1
109000591553,-1,0,-2,2,-7,-3,0,-1
109000593242,-2,-3,-5,-6,3,-3,-2,0
109000593242,2,1,2,-4,-31,-1,3,1
109000605308,1,-2,-2,0,15,-5,-1,-1
109000605308,-1,0,0,-1,-1,-3,-4,-2
109000614175,0,0,0,1,1,-1,-2,-2
109000614175,-1,-2,-1,3,9,1,-1,-2
109000629465,-1,1,-3,0,-6,-2,-2,2
109000629465,-1,1,-3,-3,8,1,0,-2
109000631034,1,1,0,0,1,-3,-1,0
109000631034,-1,1,1,5,11,7,2,0
109000651633,1,1,1,-6,-14,-3,0,-1
109000651633,0,-2,-1,-1,2,-2,-1,-2
109000653255,1,1,1,-10,-48,0,1,0
109000653255,-1,-3,-2,9,44,-2,-4,-3
109000665187,-1,0,0,6,13,1,1,0
109000665187,-2,-2,-2,-6,-9,-1,-2,-2
109000674164,-2,-1,-2,3,13,0,-1,0
109000674164,-2,-2,-3,-2,2,-1,0,-1
109000689001,-2,-3,-1,-8,-30,-7,-3,-1
109000689001,1,0,-1,6,49,4,0,0
109000690607,0,0,1,8,30,4,-1,2
109000690607,-1,-1,-1,-2,-8,-1,-1,-2
109000711651,-1,-2,-3,4,6,-2,-2,1
109000711651,0,-2,-2,-7,-16,-3,-2,-1
109000713188,-2,-1,2,-4,-9,-2,-2,-2
109000713188,0,0,0,3,4,0,0,0
109000725271,0,-2,-1,-2,-1,0,0,-1
109000725271,-3,-1,-2,-5,-22,-2,-1,-2
109000734203,0,1,-2,5,8,-3,0,-2
109000734203,0,-1,-1,-2,0,2,1,2
109000749097,0,-2,-1,-5,-20,-1,-2,-2
109000749097,1,0,-1,6,18,1,-1,-1
109000750707,1,1,-1,-7,-9,-2,0,0
109000750707,-2,-1,-2,-1,-2,-1,-1,-2
109000771608,-3,-2,-1,1,4,1,-1,0
109000771608,0,-1,2,-5,-32,-3,0,1
109000773184,0,-1,0,4,20,3,1,-1
109000773184,-2,-1,-1,-4,-10,-2,0,-1
109000785335,-2,-2,1,0,13,1,-2,0
109000785335,-1,1,-1,3,-12,-4,-2,0
109000794154,-2,-4,-4,-5,-17,0,-4,-1
109000794154,0,-1,-1,0,-1,-5,1,1
109000809189,-1,-1,2,-4,-14,-1,-1,-3
109000809189,-1,-1,-3,3,12,-5,0,-2
109000810673,-1,-1,-2,-7,-6,-12,-4,-2
109000810673,3,0,0,9,17,-8,3,0
109000831691,-2,0,-1,4,13,14,-1,-1
109000831691,-2,-2,0,-9,-29,-8,-3,-1
109000833257,0,-1,-2,-4,-1,-1,-1,-3
109000833257,-2,-1,-2,1,22,41,0,-1
109000845303,0,-1,-1,-2,-7,-21,0,-1
109000845303,1,-1,1,0,-11,12,-1,0
109000854122,-3,-3,-1,0,11,6,0,0
109000854122,-2,-1,-2,-6,-23,-13,-2,-3
109000869101,-1,0,-3,3,6,-2,-1,0
109000869101,1,-1,-1,1,-7,15,-2,-3
109000870594,-4,-1,-1,-1,-12,-7,0,1
109000870594,0,-1,-2,-3,-8,-17,-1,-1
109000892097,-2,0,-1,-5,5,3,1,-1
109000892097,1,-1,0,-4,0,-15,1,0
109000893757,1,0,0,6,15,6,1,-1
109000893757,-2,-2,0,0,-1,-5,-1,-1
109000905189,1,-1,-1,1,-12,5,-1,-1
109000905189,1,2,1,-13,-23,6,1,1
109000914173,0,0,0,12,38,-12,-2,-1
109000914173,-2,-2,0,1,4,10,-1,-1
109000929125,0,-2,-1,-8,-24,-8,-2,-2
109000929125,-1,-2,-1,10,18,1,-3,-1
109000930638,1,-2,0,-11,-10,-3,1,0
109000930638,-1,-2,-2,1,-2,-5,-2,-1
109000951623,0,1,1,3,4,0,-2,-2
109000951623,-2,0,0,-1,-3,1,0,-2
109000953146,0,1,1,-4,-27,1,1,0
109000953146,-1,1,0,2,10,-2,-2,-2
109000974183,-1,0,-2,-4,-9,0,0,0
109000974183,-1,-4,-2,6,14,-7,-1,1
109000975758,-1,-1,-2,-5,-17,0,-3,-1
109000975758,0,-1,0,2,18,-1,1,-1
109000989184,-1,-1,-2,0,-3,1,-1,-1
109000989184,-2,-2,1,-3,10,-7,-1,0
109000990766,-1,-2,-2,-2,2,3,0,-1
109000990766,0,-2,-1,-4,-17,-1,-4,0
109001011672,-3,2,2,7,35,0,0,-1
109001011672,-2,0,-1,1,-3,-3,-1,0
109001013281,0,0,-3,-3,-3,4,0,-1
109001013281,-2,-1,0,-2,-4,-3,1,-2
109001034136,-1,-2,-2,-3,-8,-5,-1,0
109001034136,-1,1,0,-4,-7,-3,-2,-2
109001035736,-1,-2,1,5,23,9,-2,-1
109001035736,0,0,-1,2,-9,-13,-2,0
109001048987,0,-3,-2,-3,-8,2,-1,-2
109001048987,-2,-1,-2,-3,-2,-8,-2,-1
109001050717,1,1,-2,-1,-2,18,1,0
109001050717,-2,-2,0,-2,-1,-6,-3,-2
109001071657,0,-1,-1,3,6,-1,-1,0
109001071657,1,-1,-2,-6,-18,2,-1,0
109001073285,-2,-2,0,3,-7,-7,-1,-1
109001073285,-1,1,-2,-11,-16,1,-3,-1
109001094163,0,-1,1,3,1,0,1,0
109001094163,-2,0,-2,-5,9,-3,-1,-3
109001095705,-1,-1,0,6,-13,-4,0,0
109001095705,3,-2,0,-3,-2,5,0,1
109001108508,-4,0,-1,3,34,-2,-1,0
109001108508,-1,1,0,0,-14,-2,0,-1
109001115229,-1,-1,0,-1,11,-4,-2,-1
109001115229,1,0,-1,1,-3,0,0,0
109001131747,4,-1,1,-4,-3,0,0,-1
109001131747,-3,0,-1,0,1,1,-1,0
109001133288,2,1,0,-4,4,-3,-3,-2
109001133288,-16,0,1,0,-26,0,-2,-6
109001154112,2,-1,-3,1,-7,-3,-2,0
109001154112,-1,-2,0,1,15,2,-6,-2
109001155748,15,-2,-2,-3,-9,-4,8,6
109001155748,-14,-2,0,1,12,0,-1,-8
109001168554,4,-2,-1,-4,-9,2,-2,0
109001168554,5,-1,1,1,5,3,1,0
109001175314,-8,-1,-2,2,4,-4,-3,-3
109001175314,9,1,-2,-1,-5,-2,0,5
109001191670,-2,-1,-1,-5,-17,-1,1,-5
109001191670,-2,0,0,4,-15,-2,2,1
109001193308,3,0,-1,-2,-12,0,-3,0
109001193308,4,-2,-2,-12,-28,-12,1,1
109001214120,-5,0,1,14,42,9,-1,-1
109001214120,-2,-2,-2,-1,-5,-2,-2,-1
109001215746,-3,-1,-1,-3,-7,-2,-1,-2
109001215746,1,-1,0,5,8,2,0,-1
109001228498,-2,1,-3,-15,-27,-1,-4,0
109001228498,2,0,0,6,3,-4,2,1
109001235349,-5,-1,-2,-2,2,-2,-3,-3
109001235349,-1,-3,-3,3,17,2,-2,0
109001259187,-1,-2,-3,-9,-25,-5,-3,1
109001259187,0,1,1,10,57,6,0,-2
109001260804,0,-1,3,2,-8,-5,-1,0
109001260804,1,-1,-2,-7,-2,-2,-2,0
109001274164,-1,-1,-2,-2,-20,-1,0,0
109001274164,-2,-2,-2,-5,4,-3,-1,-1
109001275799,4,-1,-1,1,-1,2,-1,0
109001275799,-4,-1,0,0,2,-2,-1,0
109001288567,-1,-2,-1,-1,8,-4,0,-3
109001288567,-2,0,-2,-4,-11,2,0,0
109001295332,-1,1,-2,-2,2,-5,-2,-2
109001295332,1,1,0,3,7,3,0,0
109001311614,-2,-1,-1,-4,-4,-5,-2,-1
109001311614,1,-1,0,-1,20,-1,-2,0
109001313338,-6,-2,-1,1,-3,0,-1,-2
109001313338,3,0,-1,4,2,-1,-1,1
109001334240,-1,-1,-1,1,2,-1,-2,0
109001334240,1,-2,-2,-9,-29,-2,1,-1
109001335799,-3,-1,1,-1,1,2,-1,-2
109001335799,1,0,1,4,17,8,0,-1
109001348548,1,-1,1,2,-6,-9,-1,-3
109001348548,-1,-2,-2,-2,-12,-1,-1,-1
109001355272,-4,-1,-2,-5,-20,-2,0,-3
109001355272,0,-2,-3,-3,8,-1,-1,1
109001371635,2,1,1,-1,-16,0,0,0
109001371635,0,1,1,4,6,1,0,0
109001373282,-2,-2,-1,-3,-9,-2,-2,-2
109001373282,0,0,1,2,8,-4,0,-1
109001394194,-6,0,-1,3,5,2,-2,-1
109001394194,-2,-3,0,-5,-4,-2,-3,-1
109001395773,0,1,-1,2,-2,1,0,2
109001395773,-1,0,2,7,38,6,1,0
109001408550,-1,0,0,-7,-31,-3,2,-2
109001408550,0,-1,-3,-1,-5,-1,-1,-1
109001415309,-7,0,1,-3,-3,-2,-2,-2
109001415309,-5,-2,-1,-4,-10,-1,-1,-3
109001431691,6,-2,-2,4,12,1,1,0
109001431691,6,2,0,4,8,-1,-1,0
109001433295,4,-1,-1,-1,27,2,0,-1
109001433295,-15,-8,-3,-11,-36,-3,-2,-5
109001454085,-1,1,-1,4,18,3,-2,-1
109001454085,18,5,5,-2,-27,1,5,5
109001455778,-7,-13,-5,-4,0,-4,-5,-2
109001455778,18,8,-1,0,-8,-2,-2,-1
109001467805,-32,-9,-2,-8,-14,-1,-2,-5
109001467805,5,2,-2,10,43,-3,-2,-1
109001476693,38,6,4,0,0,6,5,3
109001476693,-25,-16,-5,-9,-16,-4,-1,1
109001491515,-1,5,-1,-2,-9,-4,-2,-2
109001491515,-8,-1,-3,-6,-3,-3,-2,-1
109001493238,-2,9,1,15,57,5,1,0
109001493238,21,-3,1,5,-5,-1,1,-1
109001514048,-7,-1,-2,-11,-9,-4,1,0
109001514048,-9,-4,-3,1,13,-1,-4,-4
109001515669,-4,-1,-5,0,-14,-2,-1,-2
109001515669,12,2,3,1,-11,4,0,2
109001527912,11,3,4,7,3,-1,-1,0
109001527912,9,-3,-2,-4,18,2,0,0
109001536705,-42,-3,-2,-5,-17,-4,-2,0
109001536705,37,-5,-4,2,-6,-3,-3,0
109001551680,6,6,-1,-1,-13,4,2,3
109001551680,-9,-4,0,0,4,-1,-1,-4
109001553281,-26,-6,-3,0,-10,-6,-3,-4
109001553281,-9,3,2,-6,-9,0,-1,0
109001574146,9,-5,-1,5,43,0,0,3
109001574146,7,0,-1,-4,-21,-1,-1,-1
109001575801,0,-1,0,1,6,-1,-1,-3
109001575801,-15,5,-2,-7,-19,-2,0,-2
109001587751,8,3,-3,-6,-23,-5,-3,0
109001587751,-20,-6,0,4,-1,-1,-2,-2
109001596724,5,-6,1,-4,-29,1,1,-2
109001596724,-2,4,-1,-7,-7,-2,-3,0
109001611655,-12,-6,0,12,54,1,1,0
109001611655,23,7,0,-2,-41,0,1,2
109001613165,17,-5,0,-9,-11,-4,-1,3
109001613165,10,4,0,4,12,3,3,2
109001634222,-14,-3,-4,-6,-32,-4,-2,-3
109001634222,-1,6,0,1,6,-3,-1,2
109001635689,12,2,1,0,18,6,-2,-3
109001635689,-19,0,0,3,36,-5,-3,-1
109001647641,17,-4,0,-2,7,1,1,1
109001647641,-12,-1,-2,-4,1,-2,-2,-4
109001662782,5,0,0,4,-12,-2,0,1
109001662782,-21,1,0,0,10,1,0,-3
109001671691,-11,-11,-1,7,41,-1,-3,-4
109001671691,2,-7,-2,-3,3,-1,-2,-3
109001673277,14,11,0,-2,4,-1,0,2
109001673277,-9,-6,-1,1,-2,-1,0,-5
109001694134,1,8,1,0,-2,0,-1,1
109001694134,3,-4,0,-1,1,1,1,2
109001695746,-9,-4,-5,-7,-23,-2,-2,-2
109001695746,1,1,2,12,46,1,1,1
109001707746,-3,-1,-3,-1,-13,-2,-1,-4
109001707746,-6,1,2,-2,-16,-2,1,-3
109001716643,0,1,2,2,-7,-1,-2,0
109001716643,5,-1,-2,-5,-6,1,-3,-1
109001739157,4,0,-1,-1,4,1,-2,0
109001739157,-4,-2,0,-1,-6,1,0,0
109001740661,-4,-1,-3,-4,4,-5,-1,-2
109001740661,-6,2,1,7,8,2,1,-1
109001754222,8,-1,-1,6,25,3,0,0
109001754222,-19,-7,-4,-8,-28,-2,-2,-1
109001755727,1,7,2,12,53,4,2,1
109001755727,3,-10,-5,-11,-28,-4,-3,-2
109001767803,-1,-4,4,-2,10,1,1,2
109001767803,-7,5,0,4,0,0,-6,-3
109001776737,5,-1,-3,-5,-13,-1,-3,-2
109001776737,-4,2,-1,-6,-16,-2,0,1
109001791629,-7,1,-2,0,9,-6,1,1
109001791629,16,0,1,5,8,4,0,2
109001793221,-4,-9,1,-3,-6,-2,-2,-2
109001793221,16,9,-5,-4,-28,-3,-2,3
109001814185,-26,-11,-2,-6,-11,-1,-4,-20
109001814185,4,-2,-5,-3,-13,-6,-4,-3
109001815826,-8,-4,0,-3,-9,3,1,-1
109001815826,7,1,2,3,-4,-2,-1,3
109001827819,10,1,-1,-11,-20,-1,1,2
109001827819,-19,0,5,28,26,1,1,-2
109001836707,10,6,-2,-3,5,-3,-1,2
109001836707,-21,-11,0,0,-6,2,1,-4
109001851636,-10,-4,-7,-9,-18,-6,-6,-1
109001851636,28,3,-1,-15,-17,-1,2,2
109001853264,-27,-10,-1,9,-6,-1,-6,-4
109001853264,3,2,-1,-3,1,-4,-3,-3
109001874236,15,6,-1,-2,-6,0,-1,1
109001874236,-10,-4,-3,-8,4,-3,-1,0
109001875772,6,5,0,-4,-6,-4,-2,2
109001875772,-4,-3,2,6,16,9,4,-1
109001896604,-2,0,0,6,4,0,-1,-4
109001896604,1,-3,0,-11,2,-1,-3,-1
109001898297,0,0,1,11,33,-1,0,-4
109001898297,2,-3,0,-3,-20,-1,1,-1
109001911676,9,-1,-2,-11,-39,-2,-1,3
109001911676,-6,3,2,19,74,8,2,1
109001913161,1,-5,-3,-9,-19,-6,-3,1
109001913161,-3,0,0,2,29,1,-2,-1
109001934173,6,4,-1,-7,-12,0,1,1
109001934173,-22,-11,-3,7,16,-2,-1,-3
109001935711,6,-2,-4,-16,-34,-1,1,2
109001935711,0,-3,0,9,24,-1,1,1
109001956514,2,10,2,6,2,7,-2,-1
109001956514,0,-7,-1,-4,-9,-3,0,-1
109001958190,15,8,1,-4,-4,1,0,0
109001958190,-9,-6,-1,-1,-3,-5,-8,6
109001971573,-18,-6,-2,0,-10,-8,-3,-4
109001971573,6,8,1,0,-4,10,9,11
109001973303,-7,-14,-6,-4,20,1,-2,-9
109001973303,7,6,-2,-18,-2,-2,-3,-11
109001994180,5,-1,4,43,37,3,2,-1
109001994180,29,11,0,-11,-10,-3,-5,0
109001995849,-20,-9,-3,-7,-6,-3,2,-3
109001995849,-3,-2,-2,6,12,4,1,-4
109002016493,-3,-4,-3,-14,-22,-3,0,6
109002016493,-2,2,-2,-1,-8,-4,-1,-4
109002018099,3,2,0,2,6,4,-1,1
109002018099,4,-2,-3,-6,-3,-18,-1,-7
109002030827,0,-1,1,-6,5,0,-1,2
109002030827,-6,-4,-4,1,-42,-6,-7,-4
109002037615,-1,4,-1,-7,-11,-1,2,-2
109002037615,-5,0,1,15,23,4,0,3
109002053997,4,-2,-1,-11,-6,2,2,0
109002053997,-4,-4,-3,-18,-4,-1,-1,-4
109002055612,-1,2,1,20,24,0,-3,1
109002055612,2,2,3,-5,-17,0,0,2
109002076596,-1,-3,-5,3,-4,0,-1,1
109002076596,-3,-3,-3,-10,9,-4,-3,-6
109002078168,-3,1,3,17,-2,-3,0,1
109002078168,4,-2,-2,-9,-13,6,3,2
109002090974,1,0,-2,-7,-7,-5,-2,-3
109002090974,-7,-3,-3,5,4,-2,-2,-2
109002097823,1,0,1,-7,15,-4,0,2
109002097823,1,2,2,18,12,-3,1,-2
109002114095,1,-2,-2,-23,-30,-2,-1,-2
109002114095,-3,-1,0,19,15,-4,-3,-1
109002115823,0,0,-1,-11,-13,-3,-2,0
109002115823,-1,-4,-3,-8,-13,1,-3,-3
109002136792,-3,1,1,6,10,-1,0,-1
109002136792,-3,-1,1,-2,-7,0,0,1
109002138386,1,-2,-3,-6,-13,0,0,0
109002138386,-3,-5,-4,0,0,-3,-2,-1
109002150931,1,-1,1,2,13,0,0,0
109002150931,1,-2,0,-6,-2,-1,0,-1
109002157720,-6,-1,1,8,3,4,0,0
109002157720,2,1,-3,-7,6,-2,-1,-1
109002174277,1,-3,1,6,-1,1,-1,-2
109002174277,-1,-1,-1,-4,-12,0,0,-2
109002175824,1,-1,-1,-3,7,-3,0,-1
109002175824,-2,1,0,-4,0,-2,-2,-2
109002196655,0,3,1,7,9,2,0,-1
109002196655,15,0,0,-3,-1,1,0,3
109002198203,-6,0,-1,10,35,1,0,-2
109002198203,-4,-1,-3,-4,-1,1,-1,0
109002211072,-1,-4,-3,-6,-11,-2,-1,-1
109002211072,-8,2,-2,9,46,1,-1,-3
109002217833,7,3,4,-4,-54,3,1,1
109002217833,-2,-4,-4,-14,-18,-3,-1,-2
109002234262,-2,-1,-1,2,12,-2,-3,-1
109002234262,-6,0,-3,-6,-27,-4,-1,-3
109002235791,-1,-1,-2,0,27,3,-1,0
109002235791,-1,0,0,6,1,-4,0,1
109002256684,0,-2,0,0,-1,3,-1,0
109002256684,-3,-2,2,-4,-26,-2,0,-2
109002258219,-5,1,1,-1,0,-3,-2,-2
109002258219,3,-1,0,1,-1,0,0,-1
109002270880,3,1,-1,3,19,1,-1,0
109002270880,-2,-2,-1,-2,-13,1,-2,-2
109002277933,-2,0,-3,-9,-14,-3,-3,-1
109002277933,0,0,-2,-4,-23,-4,0,-1
109002294242,-1,0,3,17,30,5,1,0
109002294242,-4,0,-2,-8,-17,-1,-2,-1
109002295806,2,-1,-3,-8,4,-1,-2,0
109002295806,0,-1,-1,-2,-12,1,-3,-1
109002316742,-2,1,2,8,0,-1,-2,-1
109002316742,-4,-3,-3,-9,-23,-3,0,-3
109002318330,3,-1,5,13,13,2,3,1
109002318330,1,1,0,-9,-18,-3,-1,0
109002331025,-9,-5,-5,-11,-8,-5,-2,-1
109002331025,-3,2,0,2,-5,-1,-2,-1
109002337793,-2,-2,-3,-3,4,-3,-1,-1
109002337793,1,0,2,5,2,2,-1,-1
109002354127,1,-1,-2,-5,-8,-6,-3,-1
109002354127,0,-1,-2,1,-5,3,1,2
109002355716,-7,-1,-4,-4,-7,-4,-2,-3
109002355716,2,0,0,0,-6,-1,1,4
109002376674,-4,0,1,-1,4,1,-2,-3
109002376674,2,-2,0,1,16,4,0,-1
109002378333,-1,-2,-1,-3,-34,-5,-1,-1
109002378333,-2,-1,0,7,16,2,0,-3
109002390337,2,0,-2,-1,-2,-1,1,1
109002390337,2,1,2,-1,-6,-3,1,0
109002399264,1,0,-2,-2,20,0,0,0
109002399264,-3,-1,-3,-3,-11,-1,-3,-2
109002414238,1,-2,-2,0,2,-2,-2,-2
109002414238,-1,1,2,5,20,-2,0,-1
109002415802,1,-1,-1,-9,-28,1,-2,-1
109002415802,-1,1,2,14,6,-1,-1,-1
109002436656,-2,-1,-5,-9,-13,-3,-2,-1
109002436656,-2,-1,0,3,3,-1,0,1
109002438307,0,0,0,-5,-8,-1,-2,1
109002438307,-2,-3,-2,-5,1,0,0,-1
109002450407,-2,-1,-1,-3,-1,-1,0,0
109002450407,-2,0,-1,-4,-11,-5,-2,-1
109002459224,0,1,-1,9,15,1,0,-1
109002459224,-1,-2,-1,-8,-3,-1,0,0
109002474211,0,0,0,-1,-1,-1,-1,-1
109002474211,-5,-2,-2,0,8,0,-3,-1
109002475783,0,0,-2,2,10,3,-1,-2
109002475783,-1,-1,-2,-8,-11,-5,-2,-2
109002496683,0,-3,0,-1,-8,-2,1,-1
109002496683,0,-1,-1,-3,-1,2,-2,1
109002498324,0,-2,1,9,26,-3,-1,0
109002498324,-1,-2,-3,-6,-7,-2,-2,-1
109002510402,-1,1,3,12,16,3,2,-1
109002510402,5,-1,0,-5,-26,0,0,0
109002519229,-6,-2,-2,-10,-18,-4,-3,-3
109002519229,0,-2,-3,-5,4,-3,-2,2
109002534225,0,0,0,6,8,1,-2,-1
109002534225,-1,1,0,6,12,0,-1,-3
109002535848,2,1,-2,-5,-2,0,-1,-1
109002535848,0,0,-1,-6,-16,-2,-2,-1
109002556672,-1,-1,-2,2,19,-1,-2,1
109002556672,0,-1,0,5,27,1,0,0
109002558205,1,-1,0,-6,-47,0,0,0
109002558205,-3,0,1,11,57,7,1,-2
109002570247,0,-1,0,-5,-25,-2,-2,0
109002570247,-4,0,0,-2,3,-7,-1,-1
109002579311,9,1,2,3,28,4,1,0
109002579311,-2,-3,-1,1,-19,1,-1,-2
109002594101,-3,1,0,-10,-9,1,0,0
109002594101,-1,-3,-1,-2,-6,-1,-1,0
109002595820,-1,-1,-2,0,1,-4,-1,-1
109002595820,1,1,-1,1,17,-2,0,0
109002616672,-1,-2,-2,-2,-1,-2,-3,-2
109002616672,0,0,1,2,2,3,1,2
109002618360,-1,-1,-1,-2,-8,-1,0,-3
109002618360,1,-2,0,-5,-14,-3,-2,0
109002630288,-3,0,-3,1,8,-2,-2,-2
109002630288,-1,0,-1,0,1,-3,-2,-1
109002639205,-2,-2,1,-2,-12,-1,-2,-1
109002639205,-2,-2,0,3,-8,-2,1,-1
109002654209,1,-1,2,-8,-11,-1,0,1
109002654209,-2,-3,-4,2,4,0,0,-2
109002655823,-3,-2,-2,-3,3,1,0,-1
109002655823,-2,-1,-1,-2,-7,-1,-1,-1
109002676734,2,-1,1,-9,-4,-2,0,-1
109002676734,-1,-2,-2,-1,0,-1,-1,-2
109002678381,-1,1,-2,0,-5,-6,-2,0
109002678381,-2,3,2,10,30,3,1,0
109002690225,0,-1,-3,-5,-21,-3,-1,-1
109002690225,-1,-1,1,-1,-12,-2,-2,0
109002699218,-1,-2,-3,0,10,-2,-2,-3
109002699218,1,1,1,2,-5,1,1,2
109002714293,-2,2,0,4,3,1,0,-1
109002714293,0,0,0,-3,-14,-4,0,-1
109002715818,-1,0,-1,-3,-14,-1,1,0
109002715818,-2,-2,-2,1,10,-2,-3,-1
109002736688,-1,-2,-1,-4,-13,0,-2,-1
109002736688,0,0,-2,-2,-4,-1,-1,0
109002738331,0,-1,2,12,20,1,1,1
109002738331,-2,-3,-1,-2,-11,-3,0,-2
109002750346,-3,0,-3,-5,-9,-2,-1,-1
109002750346,0,0,-2,-1,9,0,0,0
109002759468,-1,1,0,2,31,0,0,-1
109002759468,-1,0,-1,4,-8,-1,-2,-2
109002774130,0,-2,-1,0,-3,-1,-1,1
109002774130,-2,1,0,0,-3,-3,-3,-1
109002775871,-2,-1,1,-6,2,0,-2,-1
109002775871,1,-1,-3,0,11,2,0,-1
109002796710,0,-1,-3,-1,10,-1,0,-2
109002796710,-2,-1,-1,-2,-7,-1,-1,-1
109002798368,-2,0,-1,-1,-15,-4,-2,-1
109002798368,-2,0,1,-4,15,-1,-3,-1
109002810386,-1,-2,-4,-7,-47,-2,0,0
109002810386,1,-2,2,5,19,2,0,-1
109002819186,-1,0,-2,-2,-3,-3,-1,0
109002819186,0,-2,-1,-10,-15,-1,-1,-1
109002833509,0,0,1,11,11,2,-1,-1
109002833509,0,-1,-3,-7,-24,-4,-1,1
109002840326,-1,-1,0,6,17,4,1,0
109002840326,0,0,1,-4,-6,-2,-2,0
109002856772,1,-2,1,-2,22,0,-1,-2
109002856772,0,1,2,1,-6,2,2,-1
109002858398,0,-1,0,-3,-14,-2,-1,0
109002858398,-1,0,-2,0,9,-1,-2,-1
109002879135,-1,0,-1,-3,-15,-1,0,-1
109002879135,-1,0,1,4,33,-2,-1,-1
109002880825,-3,-2,-4,-2,7,1,-2,0
109002880825,0,-3,1,0,-16,4,0,-1
109002894275,-1,0,-3,-6,-25,-3,-1,-2
109002894275,0,0,0,7,3,-2,-1,-1
109002895851,1,-2,-1,-12,16,2,-1,-1
109002895851,-1,0,0,6,32,0,1,1
109002916809,-2,-2,-2,7,25,-1,-1,0
109002916809,-3,-2,-4,-5,-21,0,-1,-2
109002918359,2,-1,0,1,-4,1,-1,1
109002918359,0,-2,-1,-5,-22,-5,0,0
109002939291,-1,0,2,0,10,1,0,1
109002939291,0,-2,-1,-4,-5,-3,0,-1
109002940847,-1,1,-2,1,-11,-3,-1,-1
109002940847,-4,0,0,-4,-5,1,-2,0
109002954262,-1,-1,-1,4,11,-1,-2,-1
109002954262,-2,-1,-3,-9,3,-3,-1,-2
109002955829,1,0,2,12,14,1,1,0
109002955829,1,-1,1,-2,-12,-3,-1,-1
109002976658,0,-1,1,2,1,1,0,0
109002976658,1,0,-1,-4,-7,-5,-2,1
109002978342,0,-2,-4,-2,8,-1,-2,-2
109002978342,-1,1,-2,1,0,-2,-1,-2
109002999204,-1,-1,2,3,12,1,1,0
109002999204,0,-1,-3,-4,3,0,0,-1
109003000672,-1,0,-1,-10,-29,-4,-2,-1
109003000672,0,0,1,16,36,6,1,0
109003013711,-3,-4,-3,-14,-35,-5,-2,-1
109003013711,0,-1,-1,-9,-22,-1,0,1
109003020283,-1,-1,1,15,55,4,0,1
109003020283,-2,-3,-3,-21,-44,-7,-2,-3
109003036770,0,2,1,16,38,3,-1,-1
109003036770,-2,-2,-1,-2,17,-1,-3,-1
109003038358,-1,-2,-1,-16,-62,-4,-1,-2
109003038358,-1,0,-1,-2,-24,-4,-1,0
109003059361,-2,-1,-1,5,19,2,-1,-1
109003059361,-3,-1,-1,0,-3,0,-1,2
109003060795,0,-1,-1,-3,2,-5,-3,0
109003060795,0,0,-1,0,13,2,1,-3
109003073559,4,2,1,-7,-11,-2,-2,2
109003073559,2,-1,-1,-1,-1,4,-1,0
109003080289,-4,-1,0,10,25,1,1,-4
109003080289,0,-2,-1,-5,-18,-5,-2,1
109003096753,-4,0,-1,-3,-7,-1,-1,-1
109003096753,-1,-2,0,2,-18,0,0,1
109003098334,-1,-1,-3,-7,-13,-6,-3,-1
109003098334,-2,0,-2,4,22,2,-1,-2
109003126803,1,0,-2,-3,-7,-4,-3,-1
109003126803,-2,-2,0,-1,-2,1,0,-3
109003128337,-1,2,1,4,26,1,0,2
109003128337,-1,-2,-1,-1,3,-2,0,-1
109003133646,0,-4,-3,-1,-16,1,-2,-2
109003133646,-2,0,0,5,0,1,-2,-2
109003140369,0,0,-1,-4,-21,-3,0,-3
109003140369,-1,0,-1,-8,-29,3,-1,0
109003156714,-3,-1,1,10,48,2,0,-2
109003156714,1,0,1,-4,-12,-6,0,0
109003158216,-1,-5,-5,0,-5,-1,-1,1
109003158216,3,-1,0,-3,-3,-2,1,-8
109003179332,-1,-1,-1,-2,-3,-4,-6,-6
109003179332,-1,0,-4,3,20,4,0,-3
109003180881,0,1,0,-8,-22,-1,0,2
109003180881,0,-2,0,14,37,3,-1,1
109003193652,-1,0,-2,-8,-5,-1,2,2
109003193652,-3,-2,-1,-7,-25,-6,-2,1
109003200337,1,0,3,4,0,0,-3,-4
109003200337,-1,-2,-1,5,39,6,-3,3
109003216727,-2,-1,0,2,1,0,3,0
109003216727,0,-2,-1,1,9,-2,-2,0
109003218378,-1,-2,-1,-5,2,-1,3,-1
109003218378,-1,-1,-1,-11,-40,-3,-2,0
109003239359,1,-1,0,1,10,-4,0,0
109003239359,0,-1,-1,6,18,2,-1,-1
109003240908,-2,0,-3,-12,-33,-3,-4,-3
109003240908,-1,-2,-1,16,37,3,3,2
109003261787,-4,-2,-4,-4,-6,-3,-5,0
109003261787,0,0,0,-8,-23,-3,0,-2
109003263356,0,0,2,3,8,-2,-1,0
109003263356,-1,0,0,-8,-23,-2,-1,-1
109003276723,2,-1,-1,-2,-2,-3,0,-1
109003276723,-3,-1,-2,2,10,3,-1,-1
109003278377,1,0,-1,-1,-13,-3,0,1
109003278377,-2,-2,1,-4,-5,-6,-3,1
109003299253,1,1,4,5,4,0,-1,-1
109003299253,1,-1,2,4,16,5,0,-1
109003300912,-3,-3,-6,-3,7,0,-1,-2
109003300912,-3,-1,-2,-10,-28,-3,-3,-2
109003312884,2,0,0,8,12,0,3,1
109003312884,1,0,-2,2,0,-4,-3,-3
109003321788,1,1,3,6,28,1,-1,1
109003321788,0,1,-2,-7,-15,-3,-2,-1
109003336732,-3,-3,-1,-3,-7,3,0,-1
109003336732,-1,-1,-2,-7,-12,-2,-1,-1
109003338407,-1,-1,-3,9,45,0,-3,-2
109003338407,2,2,2,7,27,3,2,1
109003359205,1,2,-1,-7,-14,-3,-2,-1
109003359205,-2,-2,-1,0,-12,0,0,-1
109003360766,1,-1,-1,-1,1,0,0,-1
109003360766,-2,0,0,-4,5,1,-1,-2
109003372923,0,-2,-3,2,-1,2,-2,0
109003372923,-1,0,-2,-4,2,-1,-3,-1
109003381808,-2,-1,2,-3,-19,-2,-1,-1
109003381808,-1,-3,-3,-4,-17,-3,0,-2
109003395863,-1,1,0,-4,-14,-1,-1,-2
109003395863,0,0,3,14,68,-2,-2,0
109003404357,-2,-2,-4,-6,-45,3,2,0
109003404357,-1,-3,-2,-1,-2,-5,-1,-1
109003419224,-2,-5,-3,-4,-21,-5,-3,0
109003419224,1,1,1,-4,-9,-4,-1,-2
109003420881,-1,1,1,4,12,3,1,-2
109003420881,-1,-3,-1,-2,-10,-2,-2,1
109003432938,0,0,-2,0,-2,-2,2,-1
109003432938,0,-1,-3,2,-6,-3,-2,-1
109003441734,1,-2,0,-2,-17,-4,0,1
109003441734,-1,-1,-1,-4,-3,-6,-3,-3
109003456723,0,1,1,-5,-20,0,-2,0
109003456723,2,2,2,14,53,10,4,5
109003458366,-3,-2,-4,-1,4,-1,1,-11
109003458366,1,-4,-2,-2,-3,-1,-1,2
109003479255,-3,-3,-2,-9,-28,-1,-2,-3
109003479255,-2,-3,-5,-7,-6,-1,-1,-1
109003480902,1,-1,0,0,-5,-1,-3,2
109003480902,-1,-1,-1,5,12,3,1,-1
109003492930,0,-1,-1,0,14,-3,-1,-2
109003492930,-3,-3,0,-3,-19,-1,-2,-1
109003501818,0,-1,0,-4,-3,-5,-2,-2
109003501818,-2,1,-1,6,49,2,-1,-1
109003516753,-3,1,0,-1,-21,-2,-2,1
109003516753,-2,-1,-2,-3,-19,-2,-4,0
109003518321,-2,-2,-1,0,-11,-2,-3,-2
109003518321,-1,-1,-1,-5,-9,-6,-1,-1
109003539142,0,-2,-2,1,35,0,-1,-2
109003539142,0,1,1,12,18,5,3,-2
109003540850,-2,-1,0,-10,-17,-2,-2,1
109003540850,0,0,-1,7,12,1,-2,-3
109003552879,-2,-4,-3,-7,-33,-3,-2,-4
109003552879,-1,-1,-3,-10,-10,-3,-2,-2
109003561814,-1,1,0,-1,13,-2,-1,0
109003561814,-1,-2,1,0,-16,0,2,2
109003576615,-1,1,2,4,8,-5,0,1
109003576615,0,-3,-1,1,4,1,-1,-3
109003578331,-1,-1,-2,-1,-6,1,1,3
109003578331,0,-2,-1,-4,-5,-2,-2,-1
109003599203,-2,0,-2,-1,-9,1,-2,-2
109003599203,-1,-1,-1,0,2,0,0,-2
109003600872,0,1,0,6,23,3,0,1
109003600872,-1,0,-3,-8,-31,-5,0,0
109003612820,-1,-1,-1,-2,18,3,-3,0
109003612820,0,0,1,2,7,-2,2,0
109003621758,0,0,1,0,9,-3,-2,-1
109003621758,0,0,-2,-1,-2,3,1,-1
109003636783,-2,-3,-3,3,36,0,0,-1
109003636783,-1,0,0,1,-7,1,-1,-1
109003638338,-2,0,1,8,45,2,-1,0
109003638338,1,1,2,-4,-4,0,-2,0
109003659256,1,-1,1,5,15,1,-1,0
109003659256,1,0,2,-4,-36,-5,-1,1
109003660872,1,2,0,3,15,1,1,2
109003660872,-3,-5,-7,2,2,1,-1,-1
109003681801,0,-3,0,0,14,3,1,-2
109003681801,-2,-2,0,0,-6,-4,-3,-1
109003683475,1,0,0,-6,-28,-1,-3,-1
109003683475,0,1,0,2,15,-3,-1,-2
109003696725,0,1,1,-3,-50,-2,-2,0
109003696725,-2,-2,-4,-6,-3,0,0,-3
109003698470,-4,-5,-3,-8,-14,-6,-3,-2
109003698470,-2,-1,-3,7,-2,5,0,-1
109003719236,0,1,-1,-7,-38,-5,-2,0
109003719236,3,3,5,2,19,2,0,0
109003720782,3,-2,-1,-5,-30,-2,1,3
109003720782,-4,-4,-3,-4,13,-7,-5,-4
109003732872,-1,1,1,7,10,2,-4,-1
109003732872,0,-1,-4,-6,-8,-4,1,-2
109003741792,-4,-1,-3,-5,-22,-1,0,-1
109003741792,1,2,5,0,11,7,-2,0
109003756725,-1,0,-1,-1,21,-3,-8,-2
109003756725,-1,-1,-1,-2,-3,2,24,-2
109003758218,-2,-3,1,4,26,-5,-20,-2
109003758218,0,0,-7,-8,-48,0,11,0
109003779222,2,3,8,2,-23,9,7,3
109003779222,-1,-2,-6,3,44,-5,-13,-1
109003780885,0,-2,-1,-7,-32,-13,1,-1
109003780885,-2,1,3,3,24,6,-12,0
109003801607,0,-1,-5,-7,-17,-4,11,1
109003801607,-1,-4,-4,-1,-22,-5,-10,-1
109003803238,2,1,2,4,6,-3,0,-2
109003803238,-4,-3,-6,-7,13,-4,9,-2
109003816142,-1,0,-1,-11,-33,-1,31,3
109003816142,-2,-2,2,-2,-2,2,5,-1
109003822929,-2,-2,-3,10,11,3,-3,-4
109003822929,0,0,1,-1,4,-6,20,-1
109003839220,-3,-2,-5,3,1,3,-11,-3
109003839220,1,0,1,-4,-16,3,-1,1
109003840906,-1,-1,-2,0,14,0,5,0
109003840906,-4,3,2,-1,-10,2,-14,-3
109003861677,0,-2,0,2,14,0,-12,-2
109003861677,0,-3,-3,3,1,-1,-3,-1
109003863353,0,2,-1,1,16,6,-2,2
109003863353,1,2,1,-7,-42,-5,-1,2
109003876091,-4,0,-1,2,22,-1,-5,0
109003876091,-1,-1,1,1,3,-1,-4,0
109003882897,-1,-2,-4,-5,-11,3,6,1
109003882897,1,-1,4,0,-5,-1,-4,0
109003899157,0,-1,0,7,30,-1,0,-1
109003899157,0,3,0,-3,-11,0,-5,-3
109003900773,0,0,0,4,2,1,1,-2
109003900773,-1,-3,-5,1,10,-6,-5,0
109003921741,-2,-4,-2,-5,0,4,-3,-1
109003921741,-4,0,-2,0,2,-1,-2,0
109003923473,-1,-2,-1,-2,0,-7,0,-3
109003923473,0,1,-1,4,-1,-3,-6,-4
109003936173,1,1,1,0,-9,-3,-3,6
109003936173,-1,-2,-4,-12,-15,4,-4,-2
109003942808,-3,-1,1,3,-14,-9,-4,0
109003942808,-2,0,0,-2,2,-8,-9,-1
109003959664,-1,-1,-3,6,23,-4,11,-4
109003959664,1,1,2,0,0,-3,-2,0
109003961326,0,-1,-1,-6,-11,5,-2,-2
109003961326,-1,-3,-1,-4,-13,2,-2,-1
109003981816,2,1,1,2,3,2,-8,1
109003981816,-1,-3,0,-3,-6,-40,-6,1
109003983472,-1,-1,0,-2,18,41,2,-1
109003983472,1,-1,0,2,7,29,6,2
109003996155,-2,-1,-3,0,1,7,0,-2
109003996155,-3,-4,0,-1,-12,-6,9,-2
109004002770,-2,-2,-2,2,-3,-7,-3,0
109004002770,-1,-1,1,-3,4,-10,1,1
109004019100,0,1,-1,-3,-1,-10,-15,-5
109004019100,0,0,-4,2,5,8,1,1
109004020877,-1,-1,-1,-2,11,-15,10,0
109004020877,1,1,1,1,-19,16,-17,-1
109004041739,0,-3,-3,-5,-4,-12,-4,-3
109004041739,-2,-1,0,3,17,14,-13,-3
109004043318,1,2,3,11,-17,-8,27,5
109004043318,-3,-2,0,-3,17,-4,-17,-5
109004055432,0,-1,1,10,1,3,22,0
109004055432,-2,-5,-6,-8,-23,-5,-12,-5
109004064341,0,1,-1,3,13,22,-1,-2
109004064341,2,0,0,-3,8,-15,2,1
109004079112,-5,-5,-8,-7,-8,-4,-23,-4
109004079112,-5,-4,1,1,-5,-3,45,1
109004080730,2,1,-1,-6,0,9,6,3
109004080730,-1,-2,0,0,2,-10,1,-2
109004101583,1,4,2,-1,9,-5,7,-1
109004101583,1,2,-1,1,9,5,-17,-1
109004103214,-3,-3,-4,-4,-10,-2,-11,-3
109004103214,-2,-3,-1,3,1,-7,-3,-1
109004115395,0,-2,-2,-3,-6,-3,-7,0
109004115395,-1,1,0,1,18,14,-1,1
109004124332,1,1,1,3,16,17,-6,-1
109004124332,1,-1,-3,-9,-31,-21,2,-1
109004139094,-1,0,1,-2,12,-4,1,-2
109004139094,3,3,5,-5,10,3,0,1
109004140711,-4,-4,-3,0,-18,-53,-12,-3
109004140711,-2,-6,-9,-9,-26,-14,3,-1
109004161724,-2,-3,-1,2,-6,17,-2,-1
109004161724,2,2,2,10,-7,-69,-4,2
109004163360,-3,-2,-1,-11,21,-17,-13,-4
109004163360,0,4,7,7,-8,31,7,0
109004175322,1,-3,-3,-5,-4,-8,-2,2
109004175322,-4,-5,-6,-3,-14,2,-18,-3
109004184292,-3,-2,-3,-7,-28,-11,14,-2
109004184292,3,4,9,13,41,3,9,4
109004198852,1,2,6,-4,1,16,-2,1
109004198852,0,-1,0,9,2,11,-5,-2
109004205283,0,-1,-2,4,0,7,-5,-1
109004205283,-2,0,-3,2,8,11,-5,-4
109004221601,-2,-1,2,-2,16,-6,0,-1
109004221601,2,-2,-1,-2,-36,3,5,2
109004223312,0,0,-1,-9,6,0,-4,-1
109004223312,-1,0,-1,5,-23,-9,2,-2
109004244129,1,2,-2,0,4,-5,-4,-2
109004244129,-1,-1,1,-5,4,7,-2,0
109004245771,3,2,2,3,19,18,1,2
109004245771,-3,-3,-4,-1,3,1,-2,-1
109004259149,-2,-1,-2,1,-10,1,-1,-2
109004259149,-1,-1,-2,-5,-22,16,3,1
109004260740,0,0,-3,0,14,16,-2,-1
109004260740,-2,-3,-1,-2,2,-7,-1,0
109004281655,-1,0,0,-2,-1,-2,-1,-1
109004281655,-3,-1,0,-2,12,4,-1,-1
109004283335,-1,0,1,3,-4,-8,-3,0
109004283335,1,0,1,-1,7,-1,0,-2
109004295304,2,1,-2,14,53,7,5,3
109004295304,-2,1,-1,-14,-38,-2,-2,-1
109004304260,-2,-1,-1,-3,-23,1,-1,-1
109004304260,-1,1,0,4,1,4,-12,-1
109004318392,1,3,2,1,-12,-8,0,1
109004318392,-1,-2,-3,1,11,-4,-2,-2
109004319160,0,-1,1,0,10,-9,-1,0
109004319160,-1,-3,-2,-1,6,36,3,1
109004341706,-1,-3,-1,-2,-2,-2,-2,-2
109004341706,1,1,-1,-4,16,8,-3,-1
109004342573,0,0,-1,-2,-26,-14,-3,-2
109004342573,-1,0,-2,-1,0,-9,2,1
109004363444,-1,-4,-4,-3,-10,0,-1,0
109004363444,-2,-3,-1,7,24,15,3,-1
109004364277,-1,-2,-1,1,8,10,0,-1
109004364277,2,1,1,-5,10,-13,2,0
109004378429,-3,0,-1,-4,-17,1,3,2
109004378429,-2,0,-1,-1,-2,-6,-3,-1
109004379313,-1,-2,-1,-1,4,-1,-3,-1
109004379313,-3,-2,-2,-1,-7,-7,2,1
109004400914,-2,-2,-2,-6,-13,-4,-3,-1
109004400914,-1,0,-1,3,4,-2,-1,0
109004401757,1,1,0,-3,-23,0,-1,-1
109004401757,-1,-1,-1,0,21,-2,0,-1
109004423460,0,-1,1,-1,4,0,-4,-3
109004423460,0,1,1,0,-11,3,23,1
109004424178,-1,-2,-7,-11,2,10,-1,-3
109004424178,-3,-2,0,14,39,2,-2,0
109004439994,1,-1,-1,-10,-40,-11,-2,0
109004439994,-1,-1,1,5,3,8,-4,-3
109004441715,0,1,3,6,28,-10,-2,0
109004441715,1,0,0,-12,-20,-3,2,-3
109004460925,-3,-3,-3,8,25,13,-2,-2
109004460925,-2,-2,-3,-6,-45,-7,-6,-3
109004461726,1,4,6,3,2,-1,2,2
109004461726,-2,-4,-7,-7,-1,-5,-6,0
109004483462,2,0,4,1,-9,3,1,-1
109004483462,-1,0,-1,-4,-1,-12,-8,-5
109004484315,-4,-5,-5,-2,-14,-5,-11,-3
109004484315,-2,-1,-3,3,-7,0,-1,0
109004498446,-1,0,0,-4,-2,-17,-4,-1
109004498446,0,-3,-1,4,19,11,0,0
109004499294,0,-1,0,0,-4,-5,-5,-3
109004499294,1,0,-1,-14,1,7,1,0
109004520992,-3,-2,-4,13,3,-17,4,0
109004520992,1,-1,-3,-5,7,-8,-8,0
109004521734,-1,-1,-1,3,7,5,7,1
109004521734,0,-1,0,-5,-29,0,-2,-3
109004543386,-2,-3,-4,-5,3,0,-2,-2
109004543386,1,0,-1,-1,8,4,1,0
109004544182,-2,-4,-2,-1,-13,12,-1,-2
109004544182,1,0,1,-4,-9,1,3,-1
109004558415,-1,-2,0,-1,-26,-7,-4,-1
109004558415,-1,0,-2,1,15,-1,0,0
109004559306,-4,-1,-3,-4,8,12,-1,-1
109004559306,0,1,-1,5,-20,2,11,2
109004581078,-1,-1,0,-6,9,0,-1,-1
109004581078,0,-3,-3,7,18,6,-3,-1
109004581772,-1,0,-3,1,5,-11,4,-1
109004581772,0,2,-2,1,-2,-8,-4,-1
109004595315,1,-1,0,-5,-10,4,3,1
109004595315,0,1,0,-2,-6,-3,2,-1
109004602778,0,0,0,-2,4,-2,-3,0
109004602778,-1,0,-2,-1,-6,-7,-5,-3
109004618432,-1,0,0,-5,-3,10,0,0
109004618432,1,-1,-1,2,-2,-5,-5,0
109004619380,-1,-2,-1,2,2,-2,6,-3
109004619380,-2,-4,-1,-2,-35,-6,-1,-2
109004641179,0,-1,-1,-7,6,3,-3,-2
109004641179,-1,0,3,4,7,12,3,-1
109004643356,-1,-1,-3,-5,7,-2,-4,1
109004643356,-3,-3,-3,3,-9,-8,-7,-3
109004663494,-1,2,0,6,20,5,6,0
109004663494,0,2,4,0,-20,-4,1,1
109004664176,-1,0,-3,-3,-17,2,0,0
109004664176,-1,-2,1,-2,12,4,-1,0
109004678625,-1,-2,-3,1,-3,-2,-4,-1
109004678625,0,1,0,-9,-28,-6,-2,-1
109004679384,2,1,0,8,15,-4,1,0
109004679384,1,-2,-4,-4,4,-3,-2,0
109004700892,0,2,3,0,-4,3,-1,0
109004700892,1,-2,-4,-1,9,0,0,-2
109004701730,-1,-3,-3,-2,-6,-1,-4,-1
109004701730,-3,-2,-2,-1,18,1,-1,-3
109004723596,-1,-3,-1,7,-3,1,1,-1
109004723596,-2,-1,2,0,14,-3,-2,1
109004724435,-1,0,0,-1,-11,-4,-2,0
109004724435,-2,-5,-10,-18,-24,-5,-2,-2
109004738496,-2,3,2,7,13,3,0,-1
109004738496,-2,-2,0,-2,1,-2,-3,-2
109004739203,-2,-4,-4,3,-8,-2,-1,-1
109004739203,-1,2,6,2,7,3,0,0
109004760955,-1,-2,-5,-16,-9,-1,-3,-2
109004760955,-3,-1,-2,10,11,-8,-2,-2
109004761743,0,1,1,-5,-2,-2,1,0
109004761743,0,1,2,4,20,3,-1,-2
109004783274,0,0,-2,-4,-8,-5,-3,-1
109004783274,-1,0,-2,-7,-1,0,-2,1
109004791055,-3,-5,-6,-4,-4,0,0,-1
109004791055,0,2,4,2,9,0,0,0
109004798458,-3,-1,1,8,4,-4,0,-1
109004798458,1,-1,0,-2,-19,2,0,-1
109004799293,1,1,1,-11,7,-2,-1,1
109004799293,1,-1,1,7,16,2,-1,0
109004820965,1,-3,-2,-15,-36,-3,-1,0
109004820965,-2,-3,-6,9,71,4,1,-1
109004821729,-1,2,4,4,-10,-4,-3,0
109004821729,0,0,2,5,3,1,-1,0
109004844279,-2,-3,-3,1,12,-1,-2,-3
109004844279,1,2,2,-6,-24,-8,-1,0
109004845142,0,-2,-1,-3,11,7,0,1
109004845142,-2,0,-2,3,-8,-2,-1,-1
109004858447,-1,0,-2,2,41,0,-2,-2
109004858447,-2,-3,-3,-1,-16,-1,-4,-3
109004859272,0,1,0,0,-15,-6,-2,1
109004859272,-3,-4,-4,-12,-44,-4,-2,-1
109004881048,0,0,2,7,36,8,2,-1
109004881048,1,1,0,-12,-19,0,0,0
109004881763,-4,-2,-4,12,24,-1,0,-3
109004881763,0,-1,1,-2,15,-2,-1,-2
109004903455,1,1,1,-7,-51,-1,1,1
109004903455,0,0,-3,-6,3,0,0,-1
109004904293,0,1,1,-13,-23,-3,-3,0
109004904293,-2,-4,0,17,32,-1,-1,-1
109004918508,0,1,-1,-1,-2,-4,-2,1
109004918508,-2,-2,0,1,-9,3,1,-1
109004919320,-2,-1,-1,-9,19,6,-1,-4
109004919320,2,2,2,6,-21,-7,0,0
109004949101,-1,-1,-1,-2,11,2,-4,-1
109004949101,-1,-3,-3,1,-31,8,1,-1
109004949916,-2,-3,0,0,-19,-4,0,0
109004949916,0,4,2,-6,9,-3,-1,5
109004963466,-1,-2,-3,-5,-21,-8,-3,-19
109004963466,-2,1,-1,14,7,6,3,6
109004964302,-3,-5,-6,-7,-15,-2,-3,-12
109004964302,6,-1,-3,1,40,21,4,3
109004978698,-6,1,-1,-6,-7,-3,1,5
109004978698,-4,0,2,2,59,-18,-4,-2
109004979322,4,1,4,10,5,0,-1,0
109004979322,-10,0,-4,-13,-15,-7,-4,-2
109005000988,2,-3,-2,8,29,-1,-4,2
109005000988,4,1,0,-3,2,3,-1,-1
109005001764,-11,-3,-5,-6,-13,-10,-3,2
109005001764,14,1,-1,-4,-8,2,-1,-4
109005023533,-10,0,0,5,34,6,1,3
109005023533,12,-4,-1,-9,-21,-5,-4,4
109005024448,-8,-2,0,-1,-39,-3,-1,-8
109005024448,-3,-1,0,11,25,-2,0,-1
109005038481,-4,-4,-2,2,19,-2,-1,-3
109005038481,2,3,-1,-10,-50,1,-1,5
109005039342,19,4,8,35,62,12,1,-9
109005039342,-20,-9,-4,-9,-13,-3,-5,-15
109005060935,9,0,0,0,-16,-1,5,24
109005060935,-8,-1,0,-7,-3,-9,-6,-5
109005061743,1,0,-1,-4,14,0,-4,5
109005061743,1,0,-1,-9,-25,-5,1,2
109005083500,6,-3,-2,-4,-29,-6,-2,-1
109005083500,-2,-2,-1,3,17,6,2,-8
109005084340,-11,1,2,-1,-3,-5,0,4
109005084340,5,-2,3,6,-24,15,4,0
109005098498,-2,-1,-1,-1,39,1,-5,1
109005098498,-1,1,0,-3,-16,-7,-3,0
109005099284,5,2,0,-2,7,-2,-7,2
109005099284,-11,-2,-2,-14,-59,-8,5,-5
109005121034,4,-2,-2,-2,-7,-4,-7,-4
109005121034,-3,-2,1,14,0,6,6,-7
109005121772,-6,-1,-1,-13,-22,6,8,11
109005121772,6,-3,-4,-4,-3,-7,-7,-2
109005143554,-2,-3,-2,-6,-37,-3,-4,-6
109005143554,0,4,0,12,76,-8,-5,-2
109005144356,-7,-5,-4,-7,-7,10,3,6
109005144356,1,-2,-1,3,1,-6,1,16
109005158460,-9,-1,1,1,-2,-2,1,-28
109005158460,0,0,-1,-4,-9,-4,-9,4
109005159291,8,0,-1,1,-7,0,2,-9
109005159291,-3,1,0,1,82,3,-4,9
109005181128,3,2,-1,-2,-44,-7,-1,-2
109005181128,-9,-3,3,0,22,7,3,-2
109005181797,15,-2,-3,-7,-11,-1,-3,9
109005181797,-10,-2,1,9,-1,-7,-5,-22
109005203480,-7,-1,0,-7,-59,4,3,4
109005203480,8,0,0,3,27,6,5,3
109005204281,1,1,-2,-3,-1,-9,-3,4
109005204281,-2,-1,-5,-8,-3,-5,-5,-5
109005218670,3,3,2,7,34,7,0,2
109005218670,-5,0,-2,-1,-17,-2,-4,4
109005219415,5,-7,-4,-2,-1,-4,-2,-5
109005219415,9,5,1,6,15,1,3,1
109005241204,-16,-6,0,-5,-18,3,-1,5
109005241204,1,-3,0,-1,-20,-3,-1,-3
109005241751,-3,5,-1,-4,-1,-6,-1,1
109005241751,0,2,0,-5,5,4,0,0
109005263427,3,2,3,9,32,5,3,3
109005263427,-7,-13,-3,-6,-18,0,-1,-4
109005264275,-2,-2,-2,-2,-6,-7,-2,-7
109005264275,-5,3,1,3,19,15,0,5
109005278518,-35,10,0,-5,-22,-4,-2,-4
109005278518,72,0,2,-1,-13,0,3,8
109005279351,-52,-26,-10,0,3,1,-4,-12
109005279351,-2,-1,0,-3,-11,-9,-2,2
109005300988,10,-17,-3,1,-1,16,0,1
109005300988,-18,17,1,3,50,-5,2,1
109005301743,16,11,3,-9,-22,-3,0,-21
109005301743,19,0,2,11,6,-4,-1,0
109005323500,-7,3,-3,-4,-8,-34,-10,-5
109005323500,-11,-11,-5,0,0,12,9,2
109005324307,2,-1,0,-10,7,-2,0,4
109005324307,-17,10,-7,-12,-7,-5,0,3
109005337968,50,6,7,28,24,2,3,0
109005337968,-23,-25,-10,-10,-8,-10,-13,-15
109005346117,-20,13,3,1,48,-23,-5,6
109005346117,-35,-2,20,-11,-29,16,6,4
109005360976,21,-14,-19,20,26,-4,-4,4
109005360976,-31,1,-18,-7,-9,5,1,0
109005361754,98,0,2,-7,10,19,8,4
109005361754,-75,-17,9,38,-20,-12,-15,-13
109005383515,24,6,4,-48,19,-4,7,1
109005383515,26,29,23,38,7,12,-2,-6
109005384296,-52,-14,-26,-11,-39,-5,-4,6
109005384296,14,-14,-9,5,26,10,2,-38
109005397948,-37,10,4,14,11,2,-9,-15
109005397948,73,-4,8,-25,-45,2,12,95
109005406032,31,34,14,4,3,3,0,-17
109005406032,32,-15,11,0,-9,-7,5,3
109005421007,-34,-35,-50,-7,6,15,-13,-81
109005421007,-29,7,4,-3,32,-46,-17,15
109005421832,-35,-2,7,4,12,8,4,-29
109005421832,62,34,23,55,85,10,12,93
109005443512,30,14,11,-24,-107,-34,3,-40
109005443512,-34,-17,-7,6,-39,23,4,-4
109005444440,-6,-29,-17,-5,-60,-49,-4,60
109005444440,-14,-16,-25,-38,3,-10,-18,-58
109005457751,-6,19,0,-8,-29,21,15,-4
109005457751,6,-1,7,17,82,4,-14,-71
109005465998,-28,23,-32,-18,-80,-9,-3,6
109005465998,-36,5,35,4,-66,28,10,20
109005481139,61,-41,-19,-3,-14,-5,1,45
109005481139,-8,12,-2,-49,-80,-2,3,-27
109005481775,-4,-2,3,29,65,5,-14,-38
109005481775,-17,2,-24,-22,-37,-11,-2,-7
109005503438,2,11,20,17,29,16,6,64
109005503438,-46,9,8,17,-28,-5,-2,-13
109005504384,43,-4,11,1,0,-3,5,28
109005504384,36,15,-8,-15,0,32,15,-25
109005517781,-61,-18,14,3,77,-8,-9,-18
109005517781,0,-2,-11,-20,-31,6,3,-11
109005526011,0,3,8,18,-21,-3,-6,3
109005526011,9,-11,-12,-17,6,-13,-10,-8
109005540950,13,0,1,-4,-72,0,-12,43
109005540950,-32,-11,-7,7,20,15,13,-12
109005541802,18,1,8,-16,-54,16,9,-6
109005541802,2,0,3,21,18,-9,-6,-13
109005563460,6,7,-2,-22,-67,1,-3,2
109005563460,10,-9,-13,2,67,-26,-21,6
109005564280,-22,-8,15,18,13,31,12,-5
109005564280,-5,-2,-7,4,8,-3,-6,20
109005586830,3,21,13,9,-17,0,18,12
109005586830,-1,1,5,-7,-49,-7,-6,4
109005587519,2,-30,-26,-22,37,-9,-3,-12
109005587519,-40,-18,-18,-14,1,0,-5,-4
109005601017,6,11,2,16,52,4,7,4
109005601017,-51,-8,8,2,-19,5,3,18
109005601788,38,15,13,7,50,14,-16,-11
109005601788,-15,-3,-16,-20,-42,-47,-13,0
109005623955,-56,-21,2,-13,13,41,-18,-82
109005623955,1,0,4,10,3,3,33,39
109005624704,46,9,3,-7,3,-6,3,92
109005624704,24,3,-5,-12,-19,-2,8,-9
109005646819,34,2,5,19,-5,12,2,12
109005646819,-1,-10,-13,-14,-1,-7,-6,-55
109005647483,-25,-4,4,28,67,29,-7,-11
109005647483,19,9,5,-8,-27,-2,-2,-2
109005661019,12,21,2,8,44,-13,-10,25
109005661019,-17,-13,19,17,9,-6,-15,-7
109005661777,1,-8,-3,-24,-120,-41,-8,-9
109005661777,15,8,-4,-3,48,2,-2,13
109005683480,-10,-16,-9,-1,32,8,2,8
109005683480,105,29,35,17,-15,-19,-3,14
109005684284,-47,-12,10,3,44,-4,0,-17
109005684284,7,-10,5,9,60,-18,-13,4
109005706852,24,6,-10,-28,-58,11,16,0
109005706852,4,2,-24,6,-24,5,-12,-22
109005707501,-10,7,10,-4,30,16,-1,11
109005707501,27,11,2,0,-12,27,0,0
109005720938,-49,-8,-11,0,-3,-24,-42,-18
109005720938,21,-10,6,17,54,2,40,9
109005721757,4,-9,-5,-22,-21,-30,9,-11
109005721757,-7,-18,-14,-16,-57,19,-1,12
109005743597,-24,15,3,38,54,15,-8,-7
109005743597,-23,-10,-19,-31,-55,-2,-15,-20
109005744369,-32,-8,5,1,18,-3,-9,-9
109005744369,8,7,8,11,9,29,10,10
109005766689,16,5,-2,-9,-40,-1,17,8
109005766689,-4,-1,-7,-6,-42,-48,-19,-2
109005767439,26,-13,-12,-1,-1,24,25,-30
109005767439,-37,2,0,1,33,-11,-14,5
109005780990,8,-11,8,7,-7,4,16,7
109005780990,-10,-2,2,5,112,24,3,0
109005781796,-2,8,-6,-8,-57,-25,-17,-10
109005781796,-9,13,0,17,-7,-12,5,-11
109005803555,-2,-16,6,-4,-9,-19,-4,-21
109005803555,42,8,2,3,28,14,-6,39
109005804310,-41,1,-12,-3,-51,13,17,-4
109005804310,12,0,9,-4,-50,4,-1,32
109005826671,14,18,5,-7,59,-10,14,7
109005826671,-71,-21,-12,1,-61,-2,-9,-27
109005827475,16,2,-1,10,65,5,-14,-19
109005827475,-9,-12,-5,-9,10,-36,7,5
109005841145,-13,0,-1,-8,-45,-18,-17,-22
109005841145,18,9,-2,-1,61,37,13,24
109005841774,9,26,31,1,-65,0,3,13
109005841774,-39,-40,-17,12,90,2,-4,-41
109005864975,16,-5,1,-3,-10,-10,3,10
109005864975,14,10,-5,11,31,9,-3,-5
109005867051,-41,7,-2,-5,20,15,3,0
109005867051,11,-4,-3,-7,-20,3,3,-18
109005880316,-6,-2,1,17,22,-9,9,6
109005880316,14,-2,4,-6,-22,-5,5,11
109005881972,1,-19,-13,1,23,-10,-9,0
109005881972,13,14,0,-17,-39,0,3,6
109005894466,1,-9,-8,3,-20,-14,-2,-3
109005894466,1,10,5,-10,6,-7,-3,19
109005900314,26,9,2,11,12,1,1,-1
109005900314,7,-7,9,9,-24,-6,3,-6
109005915317,-10,-4,-5,-10,-29,7,-1,8
109005915317,-3,0,-12,-19,-49,-2,-1,-16
109005922805,6,-6,-5,8,60,-8,-23,3
109005922805,8,13,8,-1,-53,5,-1,6
109005938548,39,11,9,5,6,-1,1,7
109005938548,-46,-18,14,-9,-55,0,12,-18
109005939447,2,-10,-13,-7,-4,-10,-9,4
109005939447,2,7,4,1,22,-5,-2,8
109005953007,2,7,8,12,60,16,2,-1
109005953007,-6,6,-27,-20,-42,-9,-13,-5
109005960470,30,-3,11,-1,-15,-5,7,7
109005960470,-2,-8,1,5,5,14,-3,-8
109005975349,-39,12,-1,-11,44,2,3,1
109005975349,20,2,0,9,0,-1,-6,9
109005982847,11,-3,-1,-5,-29,10,13,8
109005982847,33,11,-8,-1,34,-4,4,20
109005998666,-63,-19,-3,9,-52,17,-5,-16
109005998666,13,8,2,-2,22,-24,-3,2
109005999340,-7,4,-6,-1,-11,49,8,-11
109005999340,-9,-20,-3,17,64,3,-2,10
109006013038,23,8,1,-32,-94,-16,-5,12
109006013038,6,2,10,20,68,3,-4,-3
109006020357,-28,-5,-4,-9,-55,-7,0,-14
109006020357,9,3,-6,1,61,9,9,-3
109006035354,17,-3,1,9,26,0,-4,3
109006035354,-36,-3,-8,-30,-28,0,-5,-18
109006042954,2,-14,-15,0,-54,-8,-1,20
109006042954,-11,13,37,24,38,1,-9,-21
109006060173,13,-3,0,10,7,-5,4,-2
109006060173,4,0,1,-13,-27,1,1,1
109006060877,-14,-2,-4,-3,19,-20,0,-19
109006060877,-19,-14,-13,-3,1,-4,-3,-11
109006072876,14,7,5,-10,-48,3,10,31
109006072876,32,5,-11,17,79,-18,-6,-1
109006080365,-27,5,11,6,-40,12,-2,-8
109006080365,-1,-5,-2,14,2,-9,3,1
109006095430,8,-8,-5,-11,54,7,5,14
109006095430,-7,2,-11,-5,-55,-5,-7,-6
109006102807,4,1,4,4,22,-3,1,2
109006102807,-24,-5,-8,-19,-39,10,-9,3
109006118535,-4,0,-7,1,-9,13,7,-5
109006118535,-10,-5,4,7,-13,4,3,10
109006119334,-24,-4,-5,-7,3,-5,-2,-32
109006119334,28,-6,1,-15,-35,-2,5,40
109006132831,-9,-7,-9,9,-2,-16,-20,-22
109006132831,7,11,-1,-10,-24,26,11,-9
109006140415,32,-23,4,5,49,-21,-18,-4
109006140415,-2,6,-6,-8,-73,-1,0,-13
109006155495,-28,6,2,-7,40,-12,-5,3
109006155495,17,4,6,14,53,5,1,6
109006162883,7,15,-3,6,26,-6,2,7
109006162883,-2,0,-5,-20,-54,-3,-5,-14
109006178492,14,-8,-2,-8,-5,-6,-6,5
109006178492,-12,-5,0,12,14,13,2,-30
109006179274,-5,8,-3,0,17,1,7,26
109006179274,-7,-2,0,1,-37,9,-3,-8
109006192847,-10,2,0,-13,-62,-38,-2,1
109006192847,0,-9,-3,7,33,10,-2,-4
109006200356,0,1,2,4,11,0,4,-15
109006200356,2,4,-2,-5,-4,-9,-7,-9
109006215559,14,0,-1,-3,-18,1,-1,9
109006215559,8,3,3,6,3,4,9,5
109006223581,-43,-20,-10,-18,-22,-4,-7,-6
109006223581,26,15,2,5,11,-5,-4,-10
109006238521,-7,-12,-2,5,5,11,3,-4
109006238521,-12,-5,-3,-3,-33,-11,-3,13
109006239320,3,3,1,5,9,6,2,8
109006239320,16,2,-3,-14,-16,-3,5,-9
109006254323,-19,3,2,3,12,-4,-4,-9
109006254323,15,-1,4,13,72,6,0,4
109006260620,-2,0,-2,-5,-25,-11,-3,10
109006260620,-14,-3,-1,14,26,12,2,1
109006275368,15,4,1,-17,-11,-10,1,1
109006275368,-5,-8,1,25,56,-8,-7,-9
109006283545,-3,4,-2,6,26,9,0,3
109006283545,-3,3,2,-4,-2,-19,-4,-17
109006298567,-3,-6,-2,-5,-18,10,-3,-3
109006298567,8,4,-3,-1,-2,-4,8,18
109006299304,17,-4,1,4,-13,45,13,2
109006299304,3,0,-3,4,28,-15,-5,-6
109006312976,-3,1,3,9,-4,0,-2,2
109006312976,-3,-8,1,-24,-68,0,-5,-9
109006320427,27,5,-2,9,-19,-8,4,1
109006320427,-28,-5,-6,-4,3,-17,-12,-9
109006335361,14,-1,1,8,28,2,5,5
109006335361,16,9,2,-15,-56,-8,-1,11
109006343521,-10,6,1,10,43,4,4,1
109006343521,-15,-16,-6,-10,-61,-7,-4,6
109006358526,-5,1,-5,0,20,-8,-3,-4
109006358526,-24,3,1,-6,-34,-11,-3,-7
109006359421,-1,-7,-1,-5,5,-6,-5,3
109006359421,4,5,0,-1,-5,13,4,5
109006372864,-9,1,1,13,32,8,-1,9
109006372864,14,-4,-4,-9,-17,3,-4,-13
109006380346,-11,-4,-5,-18,-23,-6,-5,19
109006380346,9,-3,0,3,-13,-8,5,-19
109006395396,6,0,0,-9,-5,1,-7,0
109006395396,-18,-1,4,16,69,15,11,-29
109006403555,4,10,0,-1,-26,6,5,27
109006403555,7,-5,-2,-16,-26,5,4,4
109006418603,4,1,2,6,7,10,2,-9
109006418603,-3,-7,-3,-4,-35,-18,-2,9
109006419361,-8,4,2,-2,22,11,-3,-25
109006419361,8,6,4,2,25,-5,0,3
109006432832,13,0,1,2,4,1,3,11
109006432832,-19,-4,-2,5,32,-2,-7,-3
109006440363,19,1,0,-7,-40,-5,-1,-9
109006440363,-9,1,-4,-6,-31,4,1,3
109006455566,4,1,3,13,14,8,6,5
109006455566,5,2,1,-16,-61,1,0,3
109006463723,5,6,4,9,26,-27,-13,-24
109006463723,-31,-8,-2,3,14,12,2,2
109006477923,47,4,-3,-12,-51,11,-1,-2
109006477923,-41,-13,-6,-6,9,-1,-4,2
109006486027,7,2,-2,0,26,-15,-3,-4
109006486027,2,4,1,9,3,-1,-5,-10
109006492834,-13,-5,-7,-5,4,3,4,24
109006492834,13,1,0,8,43,-7,-5,0
109006500348,-11,-4,1,-7,14,-1,-4,-14
109006500348,-4,-1,-2,1,-27,-8,0,14
109006515605,-8,-8,-4,-1,11,-2,-6,-12
109006515605,19,0,-4,-15,-58,-1,-3,-14
109006523603,-3,-5,0,-2,9,-2,4,29
109006523603,-3,5,-2,9,79,17,1,6
109006537858,-1,1,4,4,0,-14,8,-34
109006537858,12,4,1,-2,-10,17,10,27
109006546106,18,7,4,2,-36,-5,1,-5
109006546106,-41,-24,-12,-22,-25,-7,3,10
109006552893,-15,-2,-4,4,24,-3,-10,-27
109006552893,-19,-3,0,4,13,-5,3,0
109006560415,8,1,-2,-2,0,2,1,0
109006560415,27,7,4,6,6,-1,-1,10
109006575534,-16,0,-7,-8,-36,2,2,-9
109006575534,-4,-10,-4,2,60,0,-8,8
109006583602,5,-3,2,4,-14,3,4,-4
109006583602,8,7,4,7,13,6,7,4
109006597850,-3,-2,-1,-2,2,-1,-3,0
109006597850,10,13,5,4,-5,-19,-18,-7
109006606143,-13,-7,-8,-6,10,1,-2,11
109006606143,17,1,-3,2,46,-9,1,3
109006621104,-12,5,0,-4,1,5,6,-26
109006621104,2,-1,1,11,26,-7,-6,10
109006622017,-8,1,3,-9,-45,16,1,0
109006622017,12,3,4,-2,4,-1,-3,-6
109006635401,-16,0,-1,4,9,-15,-9,18
109006635401,-4,-6,-5,-12,-20,20,9,-4
109006643567,-8,-3,-3,8,20,1,-5,-19
109006643567,2,1,0,-8,-39,4,-3,6
109006657861,16,0,-1,7,49,14,13,6
109006657861,-9,-6,-4,-9,-46,-8,-4,-14
109006666016,16,13,2,2,-23,-6,0,2
109006666016,-17,-22,-3,-7,-9,-4,-5,-5
109006681102,-13,-5,-3,1,10,-5,-5,1
109006681102,-1,4,2,-1,-16,-4,-2,3
109006681829,-14,2,-3,-10,17,-1,-4,4
109006681829,46,2,3,15,3,-10,-3,-10
109006695409,-1,3,2,0,-16,-1,-2,29
109006695409,0,0,-5,-7,-20,-1,6,-7
109006703546,-12,-8,-4,-8,-8,12,9,5
109006703546,-2,7,0,-5,-27,6,0,-10
109006717896,2,-3,0,0,-37,0,-4,1
109006717896,7,0,-4,-6,-18,-9,4,6
109006733558,-11,1,4,8,19,8,3,-12
109006733558,-15,-2,-6,-10,-26,-2,-2,10
109006740996,14,-3,-3,-11,-11,-4,-6,-26
109006740996,-6,0,4,2,8,7,-1,5
109006741821,-1,-4,-4,-1,1,-1,-7,-6
109006741821,-9,6,6,11,3,0,2,2
109006764898,4,-1,-5,8,9,-2,-6,4
109006764898,-4,-2,0,8,14,8,4,-13
109006770446,3,-6,-1,-4,21,-10,-1,0
109006770446,2,2,0,-9,-12,-4,0,0
109006786748,2,-4,-1,-2,-9,-3,-5,9
109006786748,3,0,0,-2,-5,1,-7,-16
109006788320,-10,0,-3,1,-2,-8,-3,13
109006788320,5,6,1,-9,-39,0,3,-9
109006809295,-2,0,5,7,25,8,-4,-4
109006809295,-32,-6,-5,-11,-38,-4,-4,-3
109006810853,5,5,0,3,15,-1,1,-2
109006810853,6,-10,-7,-7,-9,-18,-14,10
109006823708,-9,-2,0,5,32,-4,4,-13
109006823708,8,4,3,-8,-8,-3,5,11
109006830467,-18,-9,-6,5,34,-16,-8,-30
109006830467,-1,0,-4,-1,-19,0,2,22
109006846715,5,-1,0,-8,-12,-16,4,18
109006846715,1,4,1,6,25,-4,11,-2
109006848331,-12,-9,-1,2,14,4,-5,-7
109006848331,-6,-3,3,5,1,1,-5,-8
109006869265,-6,-2,2,-1,-7,1,1,6
109006869265,11,0,-4,-1,-1,3,-6,9
109006870879,7,0,1,-14,-59,-14,-1,3
109006870879,0,-1,6,13,84,18,7,-8
109006883610,-18,-1,-4,-16,-43,-2,-4,-5
109006883610,17,0,-1,8,-1,-3,-4,2
109006890406,10,-3,0,11,25,7,-9,-3
109006890406,-2,1,-1,-3,-1,1,0,-4
109006906729,-2,4,4,7,13,-11,-6,0
109006906729,16,-5,-3,-7,-12,1,-1,-2
109006908337,-8,0,-3,1,-3,-4,-2,0
109006908337,-12,-1,2,-2,-12,13,2,-3
109006929358,7,3,-2,2,33,4,0,5
109006929358,-9,-2,-4,-7,-41,-6,-9,3
109006930905,12,4,-4,-16,-25,-10,1,4
109006930905,-30,-15,1,15,44,-2,0,-14
109006943633,-9,-3,-4,-1,-17,11,3,-7
109006943633,8,-3,-1,-3,8,-11,-7,1
109006950389,9,7,6,-6,-36,17,2,10
109006950389,14,2,-3,12,9,-7,3,-4
109006966710,-26,-3,-7,-4,16,-11,-13,-1
109006966710,27,3,4,-4,-14,3,-4,-2
109006968378,-16,-9,-2,4,1,-3,-2,-10
109006968378,6,3,-1,-7,-7,-7,1,9
109006989308,6,-1,0,-1,-4,-1,2,-14
109006989308,1,1,-2,-2,18,20,1,18
109006990905,-9,-4,1,8,15,1,11,-2
109006990905,5,3,0,-3,-15,-7,-5,-3
109007003305,13,5,3,1,0,-1,2,4
109007003305,-27,-6,-5,-4,0,-4,1,-3
109007011882,13,-3,-1,-5,17,4,-2,-14
109007011882,-17,-5,-5,-5,-17,-2,-3,-2
109007026745,19,3,2,4,-32,6,7,4
109007026745,6,1,2,-1,9,-5,-3,-1
109007028349,-7,2,0,-1,2,3,0,7
109007028349,-17,3,-2,2,-12,-12,-5,-1
109007049266,11,-5,-3,-20,-27,5,-3,-5
109007049266,-15,-3,0,20,34,4,6,-3
109007050852,1,-1,-4,-7,-32,4,-2,0
109007050852,3,0,-2,-7,-14,-5,-1,-4
109007063567,-10,-3,2,9,16,2,1,-2
109007063567,19,4,0,-11,-28,1,0,3
109007070424,-10,-5,0,10,55,-13,-3,-2
109007070424,-14,1,3,7,22,0,3,11
109007086825,12,2,1,-2,-10,-2,-1,-4
109007086825,7,1,-2,-5,-2,-1,-1,-2
109007088429,-8,3,0,-6,-35,-7,-2,4
109007088429,6,-4,-2,13,9,4,-3,4
109007109250,-5,-1,-3,-2,5,-4,-3,-8
109007109250,-13,-5,-1,-1,-12,-1,9,1
109007110827,7,-1,0,13,75,-3,-5,9
109007110827,0,-1,-2,-7,-52,3,1,-3
109007122945,-1,0,0,6,44,8,5,4
109007122945,-6,-5,-2,0,-3,-10,-9,-8
109007131971,9,2,0,-2,-24,2,0,-1
109007131971,-2,0,3,-2,-9,1,11,-3
109007146707,15,-3,-4,-7,-11,-1,-3,-3
109007146707,-15,-5,-2,1,3,2,-8,0
109007148311,7,4,1,-4,-8,3,-1,2
109007148311,-3,3,1,-6,9,-6,-3,-1
109007169242,0,-1,1,-3,-50,-13,6,-1
109007169242,-6,-5,-9,-1,8,1,-3,-6
109007170826,13,0,-2,-2,-17,2,-1,-3
109007170826,-10,1,0,7,18,11,-3,-3
109007182980,-13,-1,2,-8,19,-7,-8,6
109007182980,-7,3,3,2,-33,3,4,8
109007191938,5,-9,-4,-4,-28,0,2,1
109007191938,-1,-4,-2,3,36,-1,11,-5
109007206705,-4,-2,-2,0,29,-3,-4,-3
109007206705,-2,0,-1,3,-6,1,1,-1
109007208326,-3,2,0,-13,-8,-4,-1,1
109007208326,2,0,-1,2,-1,3,-3,0
109007229444,-13,-3,-2,1,-8,0,0,2
109007229444,8,-2,-2,-2,9,-4,5,8
109007231050,-11,-2,-2,-1,-4,-5,-1,-21
109007231050,9,3,2,11,30,3,-2,-1
109007243069,-3,1,-2,-12,-46,-4,-2,-3
109007243069,-2,1,2,2,26,4,-2,-4
109007251928,1,-3,-1,12,19,-1,-2,-4
109007251928,-7,-6,-4,4,9,3,-2,16
109007267702,3,1,-1,-12,-48,-4,-3,-12
109007267702,8,3,1,3,6,-5,-1,1
109007269450,-8,-2,-1,-2,0,-5,-2,0
109007269450,4,6,2,-2,-21,-8,6,-8
109007289286,12,-3,2,16,54,11,3,10
109007289286,-1,-3,-3,-10,-16,-5,-9,-3
109007291039,-4,-1,-2,6,-6,4,1,3
109007291039,5,2,1,-9,-23,0,-5,-1
109007311714,-2,0,-3,1,10,0,7,6
109007311714,19,0,4,2,32,-2,-6,-6
109007313322,-10,-4,-3,4,-2,3,2,7
109007313322,7,1,-3,-9,-23,-2,-3,-3
109007326867,0,-5,1,-3,-26,-3,-3,3
109007326867,-14,-2,0,2,-11,2,2,-25
109007328509,0,3,1,2,-4,-1,1,5
109007328509,8,-1,-2,-15,7,-1,-4,2
109007349372,-3,-2,-3,3,-2,1,4,-5
109007349372,-13,0,-3,-8,-18,-6,-3,1
109007350922,4,-5,-1,-2,11,-2,0,-4
109007350922,-8,2,-1,4,11,-1,-5,-6
109007362949,17,1,-2,-3,16,-6,-7,1
109007362949,-21,-10,-2,6,12,17,8,3
109007371909,10,3,1,-13,-74,-13,0,-3
109007371909,15,-1,0,0,10,4,-2,4
109007386936,-17,-1,1,0,12,-5,-3,2
109007386936,4,2,-1,1,-5,0,2,-4
109007388447,-8,-5,-1,-1,13,-4,-7,5
109007388447,2,-5,-6,-4,-20,5,1,-4
109007409354,-1,3,2,5,-1,-12,-8,-4
109007409354,3,0,2,-2,1,-5,5,6
109007410843,-8,0,1,-5,12,7,1,-16
109007410843,2,1,6,7,8,-2,1,-4
109007422983,-3,-2,-5,-2,-13,5,-2,2
109007422983,-2,-3,-2,-3,-4,-7,-4,0
109007431915,9,-1,0,2,12,5,1,2
109007431915,-7,0,0,1,8,-1,-2,-1
109007446786,-5,1,2,2,-5,5,-1,-5
109007446786,1,2,1,-2,0,-5,0,2
109007448457,-1,1,-1,0,3,-3,-3,4
109007448457,-7,-2,-5,-2,-6,-1,-2,-8
109007469327,0,-4,-2,-4,-3,9,1,0
109007469327,-5,-3,-3,-1,0,-3,-2,1
109007470971,2,2,3,1,3,-15,0,2
109007470971,-1,0,0,1,-12,13,5,2
109007482915,-3,-1,1,5,22,4,-2,-2
109007482915,7,-3,-2,-4,-4,-5,-5,-2
109007492019,4,-1,0,-3,-10,6,-3,0
109007492019,3,-5,-3,-2,0,-9,-2,1
109007506717,-12,-2,-4,-1,-1,-4,-8,-5
109007506717,1,3,0,-2,8,4,23,0
109007508338,-10,0,-1,0,-8,-5,-5,3
109007508338,-2,-2,0,2,34,-4,-3,-1
109007529321,10,-2,1,0,3,6,-3,-3
109007529321,-1,0,-1,9,19,1,-10,1
109007530867,-3,-3,-4,-5,-15,2,0,0
109007530867,1,0,-2,-2,-5,-6,0,-2
109007551764,-5,2,1,-1,-4,-1,1,-1
109007551764,1,0,-1,-4,-7,0,-7,-2
109007553351,2,0,1,3,15,-2,5,1
109007553351,-6,-1,-2,2,-8,3,-5,-2
109007566705,1,0,-1,-1,3,-1,4,0
109007566705,-1,-2,-3,-4,-39,-2,-2,-2
109007568345,-4,-1,-1,1,11,4,0,0
109007568345,-2,-2,-3,-4,-5,-5,-4,-2
109007589354,0,-2,-4,-1,0,-1,0,-2
109007589354,-1,1,0,5,13,-1,-2,1
109007590879,-3,-3,-2,-3,0,0,0,0
109007590879,2,0,2,0,-14,-3,0,1
109007611743,3,2,2,2,6,-1,1,1
109007611743,-2,-2,0,-3,-9,-5,-5,-3
109007613363,-2,-2,-2,0,-5,4,-2,1
109007613363,0,-2,-2,-2,2,-4,-3,-2
109007626110,-4,-1,-3,1,-4,-3,3,0
109007626110,9,-1,1,-3,5,1,-4,-1
109007632862,-7,0,0,0,-1,-2,-3,-3
109007632862,3,1,1,12,40,-1,4,0
109007649537,-2,-2,-1,-13,-45,-1,-3,-2
109007649537,-7,-2,-3,-4,-5,-3,0,-2
109007650941,4,2,-1,3,6,-1,1,0
109007650941,2,-1,-1,-4,2,1,-4,-4
109007671801,-9,-5,-1,-1,-3,-6,-1,-3
109007671801,-9,-2,-1,-7,-23,-1,-1,-2
109007673433,38,4,0,8,23,5,0,1
109007673433,-23,-6,0,-3,-12,-4,-2,-2
109007686819,7,6,0,0,12,3,-1,-1
109007686819,-14,-5,-4,-2,-5,-3,-2,-1
109007688373,4,-4,-5,-4,1,-2,1,1
109007688373,6,3,0,-1,-5,0,0,1
109007709272,1,0,1,0,3,3,1,-1
109007709272,1,1,1,0,16,-5,-2,-1
109007710901,-11,-4,-1,-2,-9,4,0,-1
109007710901,4,2,2,-1,-3,-3,0,0
109007731765,-4,0,-1,2,11,-2,-2,0
109007731765,1,-2,-3,-3,1,11,2,0
109007733373,-7,-1,-2,-2,-15,3,1,-1
109007733373,-3,-3,-3,1,32,-4,-2,0
109007746280,3,-2,0,1,-7,-3,-4,-1
109007746280,6,1,1,1,16,-1,0,-1
109007752946,-7,-2,-2,1,-8,2,-2,-2
109007752946,-3,3,0,-10,-15,11,1,-1
109007769771,5,-3,-2,-5,-15,-11,0,0
109007769771,-4,-3,-2,1,0,3,0,-3
109007771315,-9,-1,1,1,3,-8,-1,0
109007771315,3,-1,-2,-3,-14,7,-2,-1
109007791939,6,-1,2,1,9,-11,0,0
109007791939,-10,-1,-1,1,-17,-4,-4,-2
109007793856,-2,-2,-1,-3,-5,-4,-4,0
109007793856,-1,4,1,1,0,2,0,-1
109007806157,1,-1,-3,-4,4,3,-1,-1
109007806157,3,-3,-4,-2,-7,9,0,-2
109007812888,-3,0,0,-5,-12,-5,2,-2
109007812888,-5,0,-1,0,-6,-5,-2,0
109007829298,-3,0,2,2,13,6,-1,-1
109007829298,3,1,-1,-5,0,-2,-1,-1
109007830862,-5,-3,-1,3,15,4,-1,-3
109007830862,1,-2,-3,-2,-10,-5,1,-1
109007851808,9,0,-1,1,-6,-2,-1,3
109007851808,-3,2,3,-2,-2,-9,-2,-2
109007853449,-1,-5,0,-1,-3,1,1,2
109007853449,0,1,-4,-1,15,-6,0,0
109007866143,6,1,0,4,2,1,0,1
109007866143,-5,-1,0,-2,-9,-5,-1,4
109007872882,-1,2,1,0,-4,-2,0,1
109007872882,2,-3,1,0,-9,0,0,-2
109007889370,-6,-3,-4,-1,8,5,-1,-2
109007889370,2,-1,0,2,13,0,0,2
109007890880,0,0,0,-2,-1,-5,-1,-3
109007890880,1,-2,-1,-1,-7,-1,-3,-1
109007912042,-8,-2,-1,0,0,0,-1,0
109007912042,7,3,2,2,14,0,1,-1
109007913411,-6,-2,-2,1,7,-2,-1,-1
109007913411,0,-1,-4,-8,-6,-2,1,0
109007926112,6,1,1,0,21,-1,1,-1
109007926112,-9,-2,-3,-3,8,-2,1,-1
109007932963,-2,0,1,4,-5,-1,-2,-3
109007932963,-1,-2,0,-2,-16,-2,-3,0
109007949397,2,-1,1,1,10,3,0,-2
109007949397,3,-2,-3,-4,6,-3,-2,-1
109007950991,1,0,-2,-8,-7,1,0,2
109007950991,-1,-1,1,11,9,2,0,0
109007971786,-4,0,1,-6,-10,-10,-3,-1
109007971786,0,-2,-4,2,5,0,-4,-2
109007973408,1,0,0,-2,5,1,0,-1
109007973408,0,0,-2,-6,-13,-4,-3,0
109007986087,-7,-5,-3,2,27,13,-1,-2
109007986087,2,0,0,0,-26,-4,0,0
109007992923,1,-1,-2,1,11,0,0,-2
109007992923,-5,-2,-1,0,2,-2,-2,-2
109008009353,0,2,-1,-1,-25,-2,-1,2
109008009353,0,-1,1,2,27,-1,-1,0
109008011028,-2,-1,-1,-1,-1,2,-1,0
109008011028,-2,0,2,4,18,2,2,-2
109008031798,-5,-4,-4,-5,-28,-1,0,-2
109008031798,1,-2,-3,-2,-3,1,2,0
109008033445,7,1,-2,-2,-13,-5,-1,0
109008033445,-7,-1,1,3,31,-3,0,1
109008046370,-3,0,1,-4,-15,1,-1,0
109008046370,2,-2,-1,0,0,2,-2,1
109008053091,-2,-1,1,0,-8,-11,0,-1
109008053091,4,-1,-1,-2,-5,1,0,-1
109008069334,-2,0,-3,-1,-6,-1,-1,-4
109008069334,-3,-1,1,-1,-9,-1,-3,2
109008070887,-1,0,2,3,6,2,0,-10
109008070887,2,-2,-2,-7,-18,1,-2,-2
109008091814,-5,0,0,2,9,-4,-2,0
109008091814,0,-1,-1,-1,-13,2,-1,-1
109008093405,2,-1,0,-6,2,-6,3,9
109008093405,1,2,0,3,-9,-3,1,-15
109008105530,-1,0,0,2,-5,4,-2,1
109008105530,0,-1,-2,0,9,-1,-1,-2
109008122868,-2,-3,-1,2,9,4,-3,-1
109008122868,1,-1,0,-3,-9,-6,-1,1
109008129310,-2,-2,-2,-4,2,-1,2,0
109008129310,-1,1,3,7,13,0,1,-2
109008130872,-3,2,0,-1,-5,2,-3,-1
109008130872,2,-2,-4,-4,-10,-3,-2,2
109008151737,-3,-2,-1,-2,-1,0,-2,-3
109008151737,-1,-2,-3,-2,-11,-2,-1,-1
109008153511,-1,-1,-1,1,-2,1,0,0
109008153511,0,0,0,-1,6,3,0,1
109008166011,2,0,-1,-3,-10,-2,1,0
109008166011,-1,-2,-2,-3,-16,-4,0,0
109008174450,-2,0,-1,1,3,1,0,-1
109008174450,-2,-2,-4,-1,1,0,-1,1
109008190078,-2,-2,-2,0,12,0,-1,3
109008190078,0,-2,-1,-4,-2,-1,0,-6
109008192641,0,1,-4,3,3,-2,0,-1
109008192641,10,-2,1,-4,-19,-6,-3,1
109008211985,-9,0,-1,0,-9,1,0,7
109008211985,-5,0,-3,-1,10,0,1,-10
109008213432,0,-3,0,-2,-12,-3,-2,-2
109008213432,-8,2,0,-2,-15,5,0,-1
109008225412,6,-3,-2,2,22,-5,-1,1
109008225412,-2,-2,-1,-3,4,1,-1,2
109008234443,-3,-1,1,1,-31,0,0,-3
109008234443,0,0,1,4,11,-2,0,2
109008249404,-1,1,-2,-5,-18,-1,0,-7
109008249404,-2,-1,0,-2,17,-3,-1,3
109008250926,0,-2,-3,-1,15,2,-1,-2
109008250926,0,1,2,2,1,0,0,2
109008271793,0,2,2,1,1,-1,-1,-5
109008271793,1,-2,0,-1,4,-2,-1,0
109008273435,-4,-6,-4,-7,-11,-5,0,1
109008273435,-1,-3,-3,0,9,3,-8,5
109008285425,-3,-1,0,0,-4,-4,-2,-24
109008285425,0,0,3,3,-5,1,2,-6
109008300442,2,3,3,4,15,3,-1,2
109008300442,-4,-4,-3,-5,-2,-11,-3,1
109008309538,1,-1,-3,0,-5,4,-3,2
109008309538,-1,-1,-3,-2,-3,1,-2,-2
109008310975,-3,-1,0,2,13,1,-3,-2
109008310975,3,3,1,5,-5,4,4,-4
109008331788,0,-3,0,2,25,-1,0,4
109008331788,0,-3,0,-2,-14,-5,0,0
109008333377,-2,0,-3,-3,-2,2,-1,1
109008333377,0,0,0,-2,1,-2,-2,-4
109008345451,-3,-3,-3,-4,-33,1,4,-1
109008345451,0,-1,-3,6,23,4,1,5
109008354509,0,-1,-1,-17,-62,-7,-4,-2
109008354509,0,1,3,12,37,6,-7,-8
109008369838,0,-3,-6,-8,-43,-4,3,3
109008369838,2,1,0,-4,-41,-4,-5,7
109008371436,-2,-2,-2,4,30,3,1,-6
109008371436,-3,-1,-1,0,9,-3,-1,-2
109008393024,0,-2,0,-13,-28,-1,-2,4
109008393024,-1,1,-2,-4,-24,0,-3,-2
109008395628,4,4,4,25,110,6,8,0
109008395628,-3,-3,-3,-12,-39,-2,-1,2
109008405586,-2,-2,0,7,39,-4,-1,-2
109008405586,0,-2,-4,-4,-13,1,0,-3
109008414485,-3,1,0,-4,-23,-3,-7,6
109008414485,4,-2,-1,4,2,-2,5,-6
109008429308,2,3,4,7,26,3,2,4
109008429308,-2,-2,0,-4,2,-2,-2,-4
109008430872,-2,-3,-5,-6,-11,2,1,5
109008430872,-1,-2,-2,-4,-17,0,-3,-3
109008451932,2,0,3,7,23,1,9,0
109008451932,-1,-1,-1,-7,-22,-1,1,2
109008453555,0,-5,-3,-1,-12,-3,-5,-10
109008453555,-1,0,1,1,33,2,0,1
109008465543,0,-1,-1,-4,-13,-1,-5,-2
109008465543,-1,-1,1,6,12,2,2,5
109008474482,-3,-1,-3,-5,-24,-3,2,5
109008474482,-1,-2,-2,-5,-14,-6,-2,4
109008488399,-1,2,3,6,16,7,0,7
109008488399,-2,-1,1,9,47,-14,1,-4
109008496883,-1,-1,-2,-3,7,9,-3,3
109008496883,-2,-1,-3,-9,-27,-5,1,-6
109008512064,3,-3,-5,-9,50,0,-7,15
109008512064,2,5,10,25,-17,11,1,-11
109008513613,3,0,-1,-8,1,-5,-1,-4
109008513613,-4,-4,-4,1,-19,-8,2,15
109008534310,1,0,-2,-8,6,7,-24,-38
109008534310,2,1,0,8,-28,-5,29,25
109008535905,-2,-1,0,7,25,-1,3,2
109008535905,-3,-2,-4,-12,-57,0,-6,-12
109008549406,-2,-1,-1,8,-18,2,8,8
109008549406,-3,-3,-3,-6,11,-8,-13,-20
109008550894,1,3,4,-6,-47,1,3,10
109008550894,-2,-1,-2,-1,29,5,2,5
109008571868,-1,0,-1,0,2,-1,1,2
109008571868,-3,-1,-9,-12,-18,-4,-7,-1
109008573434,-4,-5,-4,4,30,-5,0,-1
109008573434,2,2,3,7,3,3,-2,-5
109008595353,-1,1,0,2,-17,0,0,4
109008595353,-2,-2,-2,-11,-10,-3,-7,-2
109008597078,0,-1,-2,2,4,0,-3,-7
109008597078,1,0,-3,-3,-31,3,6,3
109008609485,-3,-4,0,-11,11,-11,0,-2
109008609485,0,-2,-4,4,-31,-3,-5,20
109008610966,-1,0,0,-24,-40,-1,-4,-18
109008610966,-4,-3,-4,5,-26,-11,-18,-25
109008631779,2,4,9,20,3,12,6,13
109008631779,-4,-4,-2,-8,-1,0,9,-20
109008633406,-1,-6,-8,-15,-33,-13,-52,11
109008633406,6,6,10,7,37,17,61,15
109008654374,-6,-7,-6,-10,-24,-5,-10,-21
109008654374,-2,-1,-1,1,37,7,0,17
109008655893,-2,-1,-1,-5,-20,-14,1,-29
109008655893,1,-1,-2,-3,27,0,-4,21
109008668376,0,0,-3,2,8,0,2,10
109008668376,1,-1,1,-7,-3,7,0,-4
109008676966,2,1,-1,9,13,3,12,3
109008676966,-2,-1,-1,-1,4,-6,-13,-7
109008691847,-2,-1,-2,0,14,10,10,0
109008691847,0,2,-1,-2,-15,-6,-14,-4
109008693431,0,0,-1,9,22,-2,8,4
109008693431,-4,-6,-3,-2,-27,4,-11,-6
109008714539,-1,-1,-6,-21,-18,-10,-9,-9
109008714539,2,1,7,23,81,1,6,5
109008716142,-1,-1,-1,0,-6,11,7,1
109008716142,1,1,-3,-36,-41,-5,-11,7
109008728641,-9,-12,-19,1,30,-20,5,9
109008728641,1,26,29,69,-60,32,5,-27
109008735428,19,-8,1,3,16,-16,21,36
109008735428,-27,-11,-13,3,97,6,-25,-17
109008751874,5,9,16,42,66,-13,-28,-46
109008751874,44,7,-2,-10,-84,43,68,32
109008753435,-33,-19,4,41,68,17,30,77
109008753435,-35,-16,-2,-37,-24,-35,-13,-68
109008774475,6,-13,-10,5,46,-16,-111,-8
109008774475,-43,2,-1,-2,4,-7,59,11
109008775908,5,-4,-8,-30,-11,-8,-41,-57
109008775908,29,4,-2,2,-15,0,-47,-15
109008788674,-20,6,-3,-14,-41,1,-5,-39
109008788674,-25,-5,-8,-62,104,-21,-30,37
109008795456,43,9,6,39,-40,11,29,-14
109008795456,2,2,4,39,13,13,-8,39
109008811963,27,15,10,-31,-61,-3,32,5
109008811963,-29,2,-10,9,49,-8,-9,19
109008813469,-4,-19,-6,18,89,-17,6,-51
109008813469,8,-4,-7,-2,-19,0,25,-8
109008834348,23,20,24,22,-34,24,38,36
109008834348,-23,-26,-26,-35,31,-16,3,-7
109008835893,10,11,7,-40,-80,-25,-15,8
109008835893,-5,5,18,94,35,35,8,-26
109008849429,3,-7,-25,-65,-68,-18,2,56
109008849429,67,6,14,32,55,16,9,-24
109008857228,-69,-12,-4,-23,-72,-5,18,-49
109008857228,-11,8,-10,-74,-85,-13,22,-7
109008871884,49,1,-6,19,75,27,32,17
109008871884,14,-14,-16,-58,-81,-32,-121,44
109008873524,42,9,-1,-21,4,-5,-44,44
109008873524,-64,-21,-6,14,37,8,17,-76
109008894333,-10,-3,-16,-17,48,-10,5,18
109008894333,2,-1,-4,-31,-17,-28,-19,-54
109008895902,26,24,16,-45,-64,39,78,38
109008895902,12,0,-13,-47,-56,-41,2,60
109008907996,-5,-5,12,76,47,19,5,-2
109008907996,-9,-12,-12,13,5,-6,-31,-59
109008916994,-45,8,7,-9,-69,-19,-15,-70
109008916994,33,5,4,10,67,10,14,69
109008931827,-33,4,4,-33,-128,9,29,-11
109008931827,-24,-9,3,43,71,-1,22,20
109008933416,29,4,3,23,57,17,-27,-3
109008933416,-6,-2,-7,18,34,1,-35,-12
109008954371,-35,-13,-1,-34,-29,-22,20,-1
109008954371,-12,7,-3,-3,7,4,-32,-38
109008955944,27,-8,4,37,0,1,-3,-12
109008955944,19,14,-1,-55,-5,-13,-27,15
109008968002,2,-2,4,66,12,23,-11,-6
109008968002,-29,6,7,2,-71,5,52,5
109008977103,-19,0,-7,-3,15,-6,1,63
109008977103,47,-6,2,44,53,2,-5,4
109008991798,-12,1,-1,-32,-69,-17,-14,-16
109008991798,21,-2,4,-15,34,2,-39,-12
109008993519,-8,-3,-11,-13,-35,-9,-36,-32
109008993519,-29,5,8,-4,26,4,13,-17
109009014340,9,-10,-15,-32,12,-13,1,-19
109009014340,25,1,3,14,33,-7,17,68
109009016051,-43,10,10,30,-65,10,35,31
109009016051,38,-11,2,-11,11,-11,-28,-49
109009028155,-5,-11,-8,-9,-8,-12,2,-18
109009028155,3,-1,-5,-16,-27,25,-3,-5
109009036960,30,-3,-8,31,79,17,15,-36
109009036960,-26,13,12,10,-38,2,33,38
109009051816,-9,1,4,25,32,4,57,-26
109009051816,-8,-6,2,38,56,-4,51,25
109009053467,27,7,-5,-61,-71,-12,-15,29
109009053467,-34,-8,-3,0,62,12,11,8
109009081798,13,1,2,-6,-96,9,-10,12
109009081798,12,5,5,24,32,-16,-35,-24
109009083415,-50,-7,-5,-13,38,6,15,-14
109009083415,20,1,-3,-20,-51,-12,1,-4
109009088001,-2,0,4,32,74,9,-21,18
109009088001,5,4,5,-9,-65,8,4,-7
109009096949,5,-6,-2,-8,-62,5,-13,0
109009096949,-8,-2,-1,6,-24,-32,-16,-15
109009111975,3,1,-1,-2,20,5,-11,11
109009111975,5,-1,-2,-9,-8,-3,7,-19
109009113476,-24,-2,3,25,29,0,-12,-13
109009113476,29,7,2,0,-24,-4,-20,18
109009134335,-6,-4,5,14,-9,-11,1,-3
109009134335,-2,0,-1,-22,-56,-8,-6,-3
109009135951,-11,-6,-5,2,40,0,-2,7
109009135951,-2,-4,-6,8,-7,7,9,12
109009148025,-2,1,2,-9,13,-4,-13,-4
109009148025,-7,-3,-1,-1,-25,3,-6,-2
109009157013,5,-2,0,-2,8,-13,-8,3
109009157013,3,1,1,7,-23,15,12,-7
109009171894,-3,-3,-1,0,21,2,-6,-2
109009171894,-8,-1,-1,-15,-38,1,6,-2
109009173464,9,0,2,21,29,0,-1,-1
109009173464,-1,2,1,8,-16,-2,6,3
109009194740,-8,0,0,-14,-42,-1,-2,2
109009194740,0,-2,-2,-5,21,-4,-4,1
109009200444,4,-1,1,-12,36,-3,-10,-4
109009200444,-7,-6,-4,15,-54,21,-2,0
109009207919,-2,0,1,-18,-10,-26,-12,1
109009207919,5,-4,-3,3,-9,-11,16,-1
109009217000,0,-1,-8,-23,10,16,-2,-2
109009217000,-3,3,11,30,15,1,0,-1
109009231972,-1,-3,-5,-25,2,-8,0,-3
109009231972,-4,-9,-14,7,27,6,2,-2
109009233494,1,0,-9,20,4,-1,1,4
109009233494,0,0,-1,-23,-30,1,17,6
109009254362,-2,0,0,2,22,-1,-14,-5
109009254362,-2,0,6,-1,-13,-5,-16,-3
109009255961,-1,0,5,-1,28,4,13,-1
109009255961,2,1,-3,-3,14,1,-22,2
109009277010,4,-2,-2,11,3,3,10,5
109009277010,-4,-2,-1,-10,-3,14,2,-2
109009278622,0,-2,-3,-1,-8,-26,-11,0
109009278622,-1,2,3,-1,12,5,4,0
109009291815,-3,-3,-4,2,-4,2,-5,-1
109009291815,-2,0,-4,0,-1,-2,-9,-2
109009293452,0,-1,-1,-2,-4,-8,-16,-5
109009293452,-2,-1,-1,1,10,0,7,1
109009314464,-1,-1,-1,-1,9,4,2,1
109009314464,-1,-1,-2,-6,-7,4,0,-2
109009316149,2,-1,3,5,2,5,4,1
109009316149,-4,-4,-3,-9,-5,0,5,-1
109009338271,-1,1,0,1,18,6,3,0
109009338271,0,1,3,-1,-17,-5,0,-1
109009339849,-3,-2,-4,1,-3,0,-1,0
109009339849,-2,-1,-2,-10,7,-5,0,-1
109009351119,1,0,-1,4,4,0,-4,0
109009351119,-2,-4,-2,-4,-8,-1,1,-1
109009358039,3,1,1,1,12,3,1,0
109009358039,0,0,-3,-5,-6,-1,-3,-3
109009374513,-2,1,-1,-2,3,0,1,0
109009374513,-1,0,1,-2,1,2,1,0
109009376148,-2,-3,-1,4,-12,1,-1,-1
109009376148,-2,-1,0,-5,5,-4,1,0
109009387996,-1,1,0,2,-3,3,1,0
109009387996,-2,-3,-3,1,-1,-5,-2,0
109009404470,-1,-1,-1,-3,2,-1,-3,-1
109009404470,-3,-1,0,5,4,-2,3,-1
109009411117,0,-1,-1,-3,-12,-1,-1,0
109009411117,-1,-2,-1,-4,9,1,0,-2
109009417958,1,0,-1,2,9,4,-1,0
109009417958,1,4,-1,-1,-5,2,1,0
109009434354,0,-5,2,2,11,2,0,1
109009434354,-2,-2,-5,0,-5,-1,-1,-2
109009435958,-1,-1,-1,0,13,-4,-2,-2
109009435958,-1,-2,0,1,8,-2,-1,-1
109009456867,1,1,2,-1,-15,-1,-2,-1
109009456867,0,1,0,1,16,-1,0,0
109009458476,-1,-1,-1,1,0,2,0,-1
109009458476,-2,-3,-4,-3,-9,-2,0,-1
109009471599,-1,-1,0,0,-9,-1,0,-3
109009471599,-1,-2,-1,-4,-7,-2,-1,1
109009479587,-1,0,-1,0,-8,-4,0,-1
109009479587,0,1,1,1,12,0,-1,-1
109009494360,-3,1,-2,-4,2,0,-1,-1
109009494360,-1,-1,-3,-2,-9,-2,-3,-1
109009495965,1,-1,1,0,-1,1,0,0
109009495965,-2,-6,-2,-2,-1,-3,-1,-1
109009516848,0,-2,-2,1,1,-1,-1,-1
109009516848,1,3,6,4,-7,2,0,1
109009518482,-1,-2,-4,-9,-11,-5,-2,-1
109009518482,-1,-3,-1,-2,7,4,0,0
109009530542,0,0,-3,-1,18,3,-1,-3
109009530542,0,-1,2,4,1,-1,0,-1
109009539575,-2,0,-1,-3,-12,-6,-3,-1
109009539575,1,1,4,0,-16,2,4,1
109009554342,-3,-5,-7,-5,-1,-2,-2,-1
109009554342,0,-1,1,1,6,0,-1,0
109009555929,0,3,5,2,7,-2,-1,-1
109009555929,0,0,-2,-1,6,-3,-3,-2
109009575953,-3,-1,-1,-2,2,-1,1,1
109009575953,1,0,1,3,-6,-1,1,0
109009584542,0,-1,-2,3,-1,0,-1,-1
109009584542,-2,0,0,-1,5,-2,-2,0
109009591366,-2,-2,-5,0,-5,-2,-1,1
109009591366,-1,-2,1,-7,-5,-1,-3,-1
109009598022,-2,-2,1,5,-1,4,-1,0
109009598022,-1,0,1,2,-2,-9,-1,-1
109009614675,-1,-1,0,-3,-7,0,0,-2
109009614675,-2,1,1,0,13,-3,-2,-2
109009616336,1,0,-1,-6,-10,4,1,0
109009616336,-1,-4,-4,4,21,1,-1,-1
109009636976,-2,-3,-5,-6,-25,-4,-1,-3
109009636976,0,3,2,3,1,-1,0,0
109009638627,0,1,1,-4,-13,-3,-1,1
109009638627,0,1,0,2,-2,-1,0,-1
109009651161,0,0,1,-3,-4,-2,-1,-2
109009651161,-2,-2,-5,-4,-3,1,0,-1
109009658009,-3,-4,-3,-2,9,-2,-2,-2
109009658009,0,-1,0,-2,-8,-3,-1,-2
109009674534,0,1,3,1,3,0,-2,2
109009674534,0,-1,-1,-1,-5,-1,0,-3
109009676034,1,0,-1,0,1,-2,0,-1
109009676034,-3,-3,-2,0,2,0,0,0
109009696837,-1,-1,0,-1,11,0,0,-1
109009696837,-1,-1,-1,-3,-17,2,0,-1
109009698465,-1,-2,0,1,4,-5,-3,-1
109009698465,0,1,0,1,-4,-3,-1,0
109009711203,-3,-2,-4,-4,4,2,-3,-1
109009711203,-1,-1,-2,-1,-10,-4,0,1
109009718060,-1,0,1,2,-4,2,1,-1
109009718060,-2,-1,-1,-5,-10,-1,-1,-1
109009734395,-1,-1,-1,8,28,-3,-2,0
109009734395,0,-2,-3,-8,2,2,-2,-2
109009736037,-1,-1,-2,-4,7,-1,1,-2
109009736037,0,2,2,12,-1,2,1,-1
109009756858,-1,2,-1,-7,-14,-5,-2,0
109009756858,-3,0,2,2,8,-5,-2,1
109009758466,2,1,1,5,7,10,1,1
109009758466,-1,-4,-7,-4,5,0,-1,0
109009770624,-4,-5,-4,0,3,2,0,-2
109009770624,-1,3,1,2,-5,-3,0,-2
109009785510,-1,-1,1,-1,-5,-6,-2,-2
109009785510,2,1,-3,-9,2,-1,-2,-2
109009794379,-1,0,2,3,-2,-1,1,-1
109009794379,-2,-3,-4,-4,-5,-2,-2,-1
109009795998,-3,-2,-1,3,8,-1,1,-1
109009795998,-2,2,0,-1,1,-1,-3,-2
109009817053,0,-2,-1,-1,-1,2,0,-3
109009817053,-1,-3,-1,3,-1,-3,-3,0
109009818752,-2,-1,-4,-8,-18,-4,0,-1
109009818752,-2,-4,-3,-1,1,0,0,-1
109009830656,2,2,2,-2,-16,2,2,0
109009830656,1,0,-1,0,6,6,-1,-3
109009839555,-2,-1,0,-1,-5,-6,-2,1
109009839555,-3,0,2,2,-12,-1,-2,0
109009854468,1,1,2,5,-3,-3,-2,-2
109009854468,-1,-6,-4,-4,5,3,0,-1
109009855960,-3,-4,-4,-5,-7,0,1,-2
109009855960,1,-1,4,-2,3,0,0,0
109009877112,1,0,0,0,-3,-1,-1,1
109009877112,0,1,1,2,8,-1,0,-1
109009878662,0,-3,-4,-3,-3,0,-1,-1
109009878662,-1,-1,0,-2,0,-1,-1,0
109009890658,-1,0,3,-4,-10,1,-2,-1
109009890658,-1,-1,-5,-2,-3,-1,-1,-2
109009899516,1,2,0,2,10,-1,0,-2
109009899516,0,-3,-1,-5,0,-1,-1,-2
109009914394,-1,-2,-1,-3,3,0,0,0
109009914394,-2,-2,-1,0,-12,-4,-1,0
109009916939,-1,2,2,4,13,7,-1,-2
109009916939,-1,-3,-4,-3,-4,0,-2,-2
109009936955,0,0,-3,-4,-20,-3,1,1
109009936955,-1,-1,0,1,11,0,-2,-1
109009938536,-1,-1,1,-1,-3,0,-2,0
109009938536,-1,-1,2,-6,14,2,0,-1
109009950521,0,1,-1,3,5,3,1,-1
109009950521,-1,-1,-2,-4,-13,-3,-1,0
109009959518,1,-1,1,2,-1,-2,-1,0
109009959518,1,1,-3,-2,-2,1,-1,-1
109009974400,-2,-3,0,-2,2,-4,-1,-1
109009974400,1,0,2,-1,19,0,-1,0
109009976087,0,-3,-1,3,-27,0,1,1
109009976087,-1,2,-2,-3,0,-6,0,-1
109009996998,-2,0,-1,-2,-6,-2,0,-1
109009996998,-2,-1,-3,-1,5,0,-1,-1
109009998584,-2,-2,-1,0,11,-2,-2,-2
109009998584,1,1,0,-6,-5,-1,0,0
109010019358,-1,-3,0,6,-4,1,0,1
109010019358,0,2,0,-2,4,-1,-2,-1
109010020933,-3,-1,-2,-3,-5,3,0,0
109010020933,-2,-4,-3,6,6,-7,-1,-2
109010034368,0,2,0,0,9,4,-3,-1
109010034368,-1,0,3,2,-8,-3,0,1
109010035984,1,1,-1,-4,0,-5,-2,-1
109010035984,-2,-2,0,-4,-16,-2,-4,-1
109010064354,-3,-4,-4,3,56,3,-2,-1
109010064354,1,-1,0,-1,-21,-2,-1,-1
109010065968,3,2,1,5,5,1,2,0
109010065968,-2,-1,-1,0,-5,-1,-3,-1
109010070520,-1,0,2,-2,-5,-3,-1,-3
109010070520,-2,-1,-1,0,3,2,-2,-1
109010079636,-1,-3,-2,-2,6,-3,-1,1
109010079636,-1,1,1,-1,-1,0,0,0
109010094591,-1,-2,-1,1,-8,0,1,0
109010094591,0,-1,-3,0,-3,0,0,-3
109010096131,0,-1,-2,-4,-12,-4,-1,-2
109010096131,-6,-2,1,-2,-7,4,0,0
109010116859,1,1,-1,-1,10,-1,-3,-1
109010116859,-2,0,0,-1,-14,-1,1,0
109010118426,-1,-3,-5,-5,-10,-2,-3,-3
109010118426,2,2,0,4,9,2,2,0
109010130500,-2,0,0,-4,-25,-4,-3,-3
109010130500,-3,-2,-1,-1,7,-1,1,0
109010139597,-4,-3,-3,0,11,-1,-2,-2
109010139597,-2,1,-1,-3,-4,0,-1,-1
109010154414,-2,1,2,-1,-7,0,-1,0
109010154414,-2,-1,2,3,12,-1,0,0
109010155987,2,2,1,-1,-6,0,0,-1
109010155987,-1,-2,2,-1,7,0,1,0
109010176856,0,-4,1,0,-5,-2,2,-1
109010176856,-3,-4,-6,-2,0,-1,-2,-2
109010178456,-3,0,3,-1,6,-2,0,-1
109010178456,3,-1,-2,0,18,-3,0,-1
109010190580,0,1,0,-2,-15,-2,0,0
109010190580,0,2,2,-3,13,0,-1,1
109010199627,-1,0,-1,7,-7,2,-1,-1
109010199627,-1,-1,-5,0,44,0,-1,-3
109010214355,-3,-3,-2,-5,-10,1,-1,-2
109010214355,0,0,1,5,11,-1,0,0
109010215987,1,2,0,-3,-24,1,-2,0
109010215987,0,-1,-1,1,-11,-5,-1,0
109010237021,-1,-1,-2,0,6,0,1,0
109010237021,0,2,-2,-2,-4,1,1,0
109010238606,-2,0,0,2,17,-1,0,0
109010238606,-2,-4,-2,-2,-17,-1,-1,-3
109010250562,1,0,-1,-4,-1,-2,-2,-1
109010250562,1,1,1,0,-6,-3,-1,-2
109010259571,-1,-1,-1,-1,7,-2,1,-3
109010259571,0,-1,0,0,-5,7,-2,-1
109010274447,0,-3,-1,-7,-9,-10,-2,-1
109010274447,-1,0,0,-1,-15,0,-1,0
109010275980,-2,-1,-2,8,13,-4,0,0
109010275980,0,0,1,1,-11,2,2,-1
109010296990,-1,-2,-4,-2,8,1,0,-2
109010296990,0,0,-2,-6,-17,-1,0,-2
109010298641,1,-1,0,-4,7,-1,-3,0
109010298641,2,0,0,0,-13,-3,-2,-1
109010310541,-2,0,-1,-1,-9,0,-2,-1
109010310541,0,-1,0,-1,0,-2,-2,0
109010319512,0,-1,0,-2,1,1,-1,-1
109010319512,-3,-2,-5,-2,3,-1,0,-1
109010342019,0,-1,-2,-2,0,-2,0,0
109010342019,0,2,3,7,24,1,0,0
109010343655,1,2,2,-7,-4,0,-2,0
109010343655,-1,-3,-4,2,-10,1,1,1
109010356881,-4,0,-2,3,5,0,0,-1
109010356881,0,-1,-1,1,-1,-2,-1,-2
109010358489,0,1,3,-1,0,-2,0,-1
109010358489,2,1,3,1,6,0,-1,-2
109010370532,1,-3,-2,-5,-3,1,-1,-1
109010370532,-4,-4,-4,3,-5,1,-1,-1
109010379544,-1,-1,-6,-3,-1,-2,-1,0
109010379544,-2,-4,-1,-6,-3,-1,-1,-2
109010393905,0,1,1,4,2,-1,-2,1
109010393905,2,1,2,-4,-1,-2,-1,-3
109010400600,-3,0,-1,2,2,1,-1,-1
109010400600,-6,0,-1,-1,-1,-4,-3,-1
109010416885,-1,1,-1,-1,1,1,-1,0
109010416885,-3,-2,-2,-3,1,-1,-2,1
109010418479,3,-3,-4,0,-8,-1,1,-1
109010418479,-1,-1,-2,1,-4,-2,-2,2
109010439683,0,0,1,1,0,0,-1,-1
109010439683,-1,-1,-2,-1,-3,0,1,0
109010441197,-1,0,3,2,1,-1,0,-1
109010441197,1,0,-1,-3,-2,-3,-1,0
109010453792,-1,-1,-3,0,0,3,1,0
109010453792,1,0,-1,-4,-2,0,0,0
109010460516,-1,-1,-2,4,0,-1,-2,-1
109010460516,1,2,1,-2,1,-1,-1,-2
109010476923,0,0,-1,-4,-1,-3,-1,-1
109010476923,0,-2,-5,-2,0,-5,-2,-3
109010478487,-3,-1,-1,-2,-3,1,-1,-1
109010478487,-3,-3,-3,-2,-1,-1,-1,-1
109010499508,0,1,0,2,1,-1,1,-2
109010499508,-1,1,2,3,-2,-3,-1,-1
109010501002,0,-1,-1,-3,-4,1,-1,1
109010501002,0,-1,-3,-1,11,3,0,0
109010514348,-1,-4,-1,-2,0,-3,-2,-1
109010514348,-1,-2,1,-1,2,0,1,-1
109010515973,0,2,2,0,-5,-2,-2,-2
109010515973,1,2,1,-1,-1,3,1,0
109010537059,-2,-2,-2,-2,-3,2,0,1
109010537059,-2,0,-2,0,0,2,-1,-2
109010538494,-1,-2,-1,-3,2,-1,-1,-1
109010538494,0,-2,-2,-1,-7,-3,-1,-1
109010559433,0,-2,3,-2,3,1,0,-2
109010559433,-1,-1,-1,3,1,1,-1,-1
109010561062,-1,-1,1,-3,-3,-1,0,-2
109010561062,-1,-2,-2,3,0,-1,-1,0
109010573761,-1,0,-1,-3,0,1,1,-1
109010573761,-1,-2,-2,0,-3,-1,0,0
109010580572,0,0,-1,-1,2,1,1,0
109010580572,1,0,1,-1,-4,1,-1,-1
109010597116,-1,-3,-1,0,-3,-4,-3,0
109010597116,0,-1,1,-3,-1,-1,-1,-2
109010598672,1,1,4,-2,2,1,0,0
109010598672,0,1,-1,0,-1,-1,1,-1
109010619355,1,2,-3,0,1,-2,-2,-1
109010619355,-2,-3,-1,-3,-1,-1,-1,1
109010620965,-1,0,-1,-2,3,-1,1,0
109010620965,-1,-3,-1,-3,-4,-2,-1,-3
109010633712,-4,-2,-3,-2,-3,0,-1,0
109010633712,0,0,-1,0,1,0,-2,4
109010648276,-1,0,1,2,7,0,-1,-9
109010648276,0,0,1,3,0,0,-2,0
109010657048,1,0,2,1,-2,1,0,-3
109010657048,-1,-3,-3,-7,0,-6,-3,0
109010658574,-5,-4,-5,-5,-7,-2,-1,-1
109010658574,4,-1,-2,-3,-6,-3,0,3
109010679367,0,-2,0,0,-2,-4,0,-5
109010679367,0,2,2,0,0,0,0,-3
109010680979,-1,2,-1,3,5,-1,-2,0
109010680979,3,-3,-5,-11,-16,3,-2,1
109010693907,-6,0,-1,6,37,-1,-2,13
109010693907,1,1,2,-4,-23,0,7,-24
109010700573,-2,-1,-1,1,-9,-4,-2,14
109010700573,-2,-3,1,11,51,-1,-1,-2
109010716924,0,-2,-4,-10,-26,-3,-2,-1
109010716924,3,4,3,3,16,10,5,17
109010718519,0,1,-2,-7,-24,-7,-7,-32
109010718519,-8,-1,-3,0,3,3,1,9
109010739527,0,-2,-4,-4,36,1,-1,-3
109010739527,-7,-3,-3,-5,-20,-5,-5,-1
109010741110,9,4,3,9,-20,0,6,18
109010741110,-2,-5,-4,-7,-10,-7,-4,-1
109010753880,-2,-1,-1,5,0,-3,0,-4
109010753880,1,-2,-5,-8,12,-3,-7,-4
109010760543,-6,2,-2,-16,-8,-4,-1,-4
109010760543,36,7,7,24,41,7,17,18
109010776868,-19,-22,-4,-3,-6,4,-12,-17
109010776868,-15,-8,-1,5,7,-2,-4,6
109010778536,1,-5,-8,-14,7,-6,-15,-15
109010778536,5,19,17,10,-4,21,10,10
109010799647,1,0,2,14,33,-5,-11,-10
109010799647,1,-3,-8,-11,23,-5,15,16
109010801014,-13,-10,-4,-13,-84,-1,-11,-11
109010801014,-16,-6,-4,-5,7,-5,-1,-26
109010813779,10,7,-3,-8,5,7,7,5
109010813779,4,-2,-2,-3,-79,-14,-11,0
109010820570,-2,4,-2,13,14,18,26,3
109010820570,-5,-4,-1,-14,2,0,10,-16
109010836896,-1,-4,1,-2,-55,-20,-32,-22
109010836896,-5,11,5,1,43,10,26,7
109010838460,-8,-7,0,7,-19,-11,-18,8
109010838460,6,1,-8,-16,-55,-2,-19,-12
109010859425,-10,1,7,11,1,14,43,10
109010859425,1,-2,-9,-26,-20,-12,-15,-21
109010860993,6,-3,3,14,39,5,8,36
109010860993,-13,2,3,9,-4,-9,10,-61
109010873041,10,2,-6,-5,-12,-3,-6,19
109010873041,1,-2,-5,-12,-59,-1,-11,-2
109010880606,2,1,2,-5,-1,2,-6,-12
109010880606,7,-1,-4,3,35,1,16,26
109010897704,-5,-1,-6,-30,-49,-6,13,-9
109010897704,-12,-4,4,29,-6,-4,-43,-5
109010898670,-4,-9,1,18,29,9,63,19
109010898670,-2,3,-1,-27,-74,-13,-12,-8
109010918726,4,-2,1,-4,-32,5,8,5
109010918726,4,7,-2,12,68,-7,-39,-11
109010919532,-20,-9,0,-7,7,3,-4,7
109010919532,-9,-3,-3,4,-54,-2,-38,29
109010933112,19,8,3,4,20,3,22,25
109010933112,4,-8,1,9,22,10,8,-42
109010940539,12,8,-3,-15,-13,1,11,19
109010940539,-20,-7,-3,4,38,-4,-27,-23
109010956290,2,6,1,-21,1,-11,-16,28
109010956290,12,5,2,19,-11,14,21,18
109010957051,-6,-7,-4,-25,10,-2,-34,-24
109010957051,5,-4,-6,8,43,7,10,14
109010978736,-9,-7,-5,-6,-1,-6,-13,-13
109010978736,9,0,2,16,16,-11,-26,13
109010979556,-10,-5,-7,-37,-97,-24,15,-27
109010979556,3,-7,-8,-13,58,1,25,1
109010993232,-14,2,6,57,23,6,-32,20
109010993232,6,-2,0,-67,-114,-7,51,33
109011000611,23,12,8,29,35,-4,-60,-36
109011000611,-5,-1,4,24,76,49,5,-24
109011024419,-7,-13,-13,-14,-13,-11,5,-21
109011024419,7,4,0,-31,-58,-10,-14,-2
109011025165,-12,-5,1,18,47,13,19,28
109011025165,-9,0,-3,-23,-37,-16,5,-2
109011038695,43,15,3,-4,29,-4,-17,10
109011038695,-32,-19,-4,-15,-34,28,-51,-26
109011039450,21,1,-4,27,80,-20,17,-70
109011039450,-26,-8,-6,-13,-13,22,-18,8
109011053067,32,4,-3,-17,-84,-17,54,31
109011053067,-47,-2,-7,-46,10,-10,17,-54
109011060743,26,15,20,92,37,-1,-83,13
109011060743,-5,-11,-6,11,47,1,34,13
109011076218,-22,1,-1,-54,-101,3,-15,14
109011076218,26,8,7,22,-40,-4,36,17
109011076999,-20,-6,-3,-7,12,20,-30,42
109011076999,14,6,3,-9,-128,-43,6,-25
109011098940,-9,-5,3,25,8,26,19,-22
109011098940,3,0,2,39,77,-16,7,4
109011099516,-8,-1,-9,-34,-19,-15,30,6
109011099516,13,5,1,1,15,6,-70,18
109011113244,15,-5,6,4,6,20,0,-56
109011113244,-24,-3,1,28,58,-9,0,22
109011120569,13,2,-9,-33,-38,3,-1,-5
109011120569,20,4,4,-19,9,-22,-16,19
109011136838,-56,-19,1,51,89,-10,9,-45
109011136838,11,0,-4,2,25,11,8,9
109011137635,2,1,1,9,30,13,3,5
109011137635,-1,0,-7,-44,-62,-12,9,13
109011158847,33,2,-8,-38,-72,-16,-6,18
109011158847,-39,-8,6,82,89,4,1,-3
109011159574,-5,2,4,-51,-113,5,25,-15
109011159574,1,-3,5,37,43,17,11,-4
109011173070,-3,0,-3,0,32,9,-20,2
109011173070,10,-4,-8,-14,-25,-26,-15,9
109011181269,1,4,6,19,53,57,41,11
109011181269,-1,-3,1,18,46,-17,11,20
109011196389,-6,0,0,15,27,-2,-18,-1
109011196389,14,5,-1,-23,-13,-6,13,4
109011197073,-10,-7,-6,10,51,-12,-5,7
109011197073,1,1,5,-19,-90,-6,-29,-42
109011218775,-14,1,-5,-12,38,0,94,60
109011218775,-6,-9,-7,-15,8,5,-18,-18
109011219531,-1,-6,-6,-23,-57,-14,-5,1
109011219531,-3,1,-1,9,27,-4,12,-3
109011233087,1,5,0,-1,-17,-14,-40,-22
109011233087,16,2,4,-13,-62,7,0,8
109011241334,-4,2,2,25,35,0,11,3
109011241334,-8,-1,-4,-14,-21,1,-3,16
109011258148,4,-3,-1,0,37,4,-13,-4
109011258148,15,3,5,-2,-24,2,20,9
109011258967,-3,1,-2,-1,-48,-9,-17,-16
109011258967,6,2,4,19,49,0,2,-3
109011278686,-1,1,2,11,-10,2,-19,-12
109011278686,-2,-2,-7,-3,9,16,3,-10
109011279465,0,-1,-2,-9,-17,-11,-4,4
109011279465,-8,-5,-5,-5,-32,-9,-4,11
109011293062,-2,2,6,-4,-20,8,1,-27
109011293062,0,2,3,15,24,10,-6,11
109011301318,-1,0,0,-1,11,-13,3,5
109011301318,3,-2,0,2,-18,8,-2,3
109011316384,1,-2,-4,3,12,-3,-10,9
109011316384,-2,0,-2,-15,-21,-5,-4,-13
109011317017,-4,-1,-1,-5,11,-2,-3,-3
109011317017,0,-2,0,-2,5,2,8,2
109011338779,-3,2,3,-3,-23,-2,-8,-1
109011338779,6,1,-1,-7,11,-1,-2,-1
109011339551,-6,-6,-4,13,14,-2,0,3
109011339551,-6,-1,-6,-28,-67,-2,-2,-4
109011362069,0,-1,-1,2,6,-8,-2,2
109011362069,1,-3,0,10,25,5,-3,3
109011362940,-2,-1,-1,-6,18,3,0,-7
109011362940,-1,-2,-1,3,-19,-5,-2,-2
109011376208,-2,-2,-1,7,18,3,-5,-4
109011376208,0,-3,-3,-9,6,-1,1,4
109011377003,2,-2,-2,-4,-15,-13,0,-14
109011377003,2,1,3,11,18,10,6,6
109011398670,-8,-4,-4,-2,6,-5,-1,3
109011398670,-1,0,1,-6,0,-4,-1,-10
109011399527,4,1,0,-6,-10,-1,-2,7
109011399527,-2,-4,-1,1,15,-4,-1,0
109011429402,-8,-7,-8,8,5,0,-7,-5
109011429402,5,3,3,-3,-17,-1,2,5
109011430211,2,1,4,-3,7,4,-2,4
109011430211,0,-7,-17,-12,-23,-9,6,1
109011436242,-12,6,11,-13,0,8,0,15
109011436242,5,4,7,31,-11,-1,0,-1
109011437040,-6,-10,-12,9,3,-9,-17,2
109011437040,-1,2,11,7,12,2,-2,-6
109011458966,0,-5,-23,2,-19,-4,-9,-7
109011458966,0,0,0,-16,9,5,7,0
109011459574,-1,0,-1,3,-11,-2,-7,3
109011459574,2,6,12,0,-6,-6,-4,3
109011481223,2,-2,5,3,12,2,3,-3
109011481223,0,2,5,3,9,-1,-11,-2
109011481953,3,0,-2,-8,-7,0,7,-1
109011481953,-4,-4,-8,6,7,-1,0,0
109011496209,3,2,5,-4,-1,-1,-1,-1
109011496209,-2,-5,-7,-4,-7,-1,2,-3
109011497041,-2,-1,1,0,-5,-1,4,2
109011497041,-1,-1,-2,-2,8,4,1,-2
109011518717,-1,-2,-3,5,-3,0,-4,-1
109011518717,-2,-1,-3,-2,-2,-3,1,1
109011519533,0,-3,-1,-5,0,-1,2,0
109011519533,-1,1,-2,5,4,1,-3,-1
109011541208,1,1,2,-3,-7,-3,2,-1
109011541208,-3,0,-4,1,10,0,-3,-1
109011541981,1,0,0,-6,-16,-2,6,1
109011541981,-4,-6,-6,-1,3,-1,-2,-4
109011556259,1,-1,-3,-5,-5,2,-1,-4
109011556259,0,2,4,5,1,-1,-1,-2
109011557133,0,1,-2,-18,-3,3,-1,2
109011557133,-3,-4,0,6,0,0,1,1
109011580193,1,1,-3,-9,1,-1,0,-3
109011580193,0,-3,1,7,1,1,-1,-1
109011580971,-2,-2,-6,7,4,-1,1,-2
109011580971,1,0,-1,1,-1,2,-2,0
109011601938,-1,-1,1,-4,0,1,1,-1
109011601938,0,-1,0,-5,-6,-3,-1,-4
109011602742,-1,2,2,2,-4,-2,0,-1
109011602742,0,0,1,0,0,1,-3,-2
109011616380,0,1,1,1,-6,-1,-2,0
109011616380,-1,-3,-4,-2,16,3,3,2
109011617116,0,-1,-1,0,12,2,-1,-1
109011617116,0,3,0,-6,-30,-2,0,1
109011638770,-2,-3,-1,0,3,1,0,-1
109011638770,0,2,-1,2,2,1,-1,0
109011639520,-1,-1,-1,-2,4,1,-1,-1
109011639520,-3,-3,-1,0,7,0,1,-1
109011662040,-2,-1,-7,-4,-3,-1,-2,-2
109011662040,0,0,1,1,-4,1,1,2
109011662927,-2,-3,-7,-10,3,-1,-2,-1
109011662927,1,1,3,-3,-1,-5,-1,1
109011676381,-1,-1,-3,7,-10,0,-1,-2
109011676381,-2,-1,-3,-9,3,1,-3,-3
109011677009,-2,-1,1,-2,-16,-2,-1,-1
109011677009,-2,-2,-1,0,16,0,-1,-1
109011698481,-2,-1,-2,0,6,1,-1,0
109011698481,1,-1,1,-1,-8,-2,0,0
109011706336,0,-1,2,-3,-4,-2,-1,0
109011706336,0,0,1,7,3,0,-1,-1
109011722105,-2,0,3,0,-2,0,-1,0
109011722105,1,-1,-4,-1,-6,0,0,0
109011722735,-1,-1,0,2,-2,-3,-1,-2
109011722735,-1,0,-1,-4,0,0,-2,-1
109011736250,-1,-5,0,2,1,0,0,1
109011736250,-3,0,-1,-5,-4,-2,0,0
109011737126,-1,-1,-1,-2,1,-4,-4,-1
109011737126,1,4,0,8,7,2,1,0
109011758726,-1,-3,-1,-5,-7,-2,-1,-1
109011758726,-2,-2,-3,-3,-5,-1,-3,-2
109011759499,-3,0,0,2,1,0,-1,1
109011759499,0,-1,-2,-6,-3,-2,-1,-2
109011782010,-1,0,0,-6,6,2,-1,-1
109011782010,-2,-2,-3,7,-5,-1,-1,0
109011782785,-1,-1,-2,-2,-1,-3,1,-1
109011782785,-1,-2,-1,-1,0,-1,-2,-1
109011796302,1,3,4,-3,-1,0,-1,-2
109011796302,-1,-1,-1,3,4,-1,-1,-2
109011797040,-2,-3,-2,3,1,6,0,-1
109011797040,0,0,1,0,-10,-2,1,0
109011818816,-1,0,-1,-3,0,-3,-2,-2
109011818816,0,0,-2,-1,-1,-3,0,0
109011819639,-2,-1,1,2,-2,1,1,-1
109011819639,-2,-4,-2,-4,-6,-2,0,-1
109011841962,0,-1,0,-1,2,-2,0,-1
109011841962,1,-1,0,2,-1,0,-3,-1
109011842758,0,-1,-4,-6,1,1,-1,1
109011842758,-1,1,-3,4,2,0,-2,-1
109011856303,1,0,0,-8,-2,0,-1,-1
109011856303,-2,-4,-4,3,-5,-2,-1,0
109011857138,-1,-1,4,1,-1,-5,-3,-1
109011857138,-1,-1,-3,-4,0,3,1,0
109011879319,-1,-2,-2,-1,-3,-4,-1,0
109011879319,-1,-1,2,2,1,-4,0,-1
109011886416,0,2,-2,-10,-3,0,-1,2
109011886416,-1,-2,-5,0,5,0,-1,-2
109011901928,-2,-1,-2,3,7,2,-1,1
109011901928,1,-1,1,-6,-8,0,0,-2
109011902700,-1,0,3,10,4,-1,0,1
109011902700,-2,-3,-7,-13,-4,0,-2,-1
109011916362,0,0,1,0,0,0,-1,-1
109011916362,-2,-2,-3,-5,0,-3,-1,-3
109011917025,0,0,0,1,-1,-1,0,-6
109011917025,0,0,3,2,2,-2,-3,2
109011938813,0,0,-1,-3,5,-1,-1,0
109011938813,-2,0,-3,7,-8,-1,0,0
109011939571,0,-1,2,-7,2,-1,-2,-4
109011939571,-1,-2,-2,2,2,1,0,-2
109011961897,-1,-2,-3,0,-8,-5,-3,-1
109011961897,1,1,0,-7,8,1,-1,0
109011962714,0,-1,-3,-2,2,-1,-1,1
109011962714,0,1,3,1,-7,0,1,1
109011975878,-3,-2,-3,7,2,0,0,-1
109011975878,-1,1,1,-8,4,-2,-2,0
109011983971,-1,-2,-2,5,-10,0,1,2
109011983971,-1,-1,1,0,1,-3,-2,-2
109012006975,0,2,0,2,0,1,1,-3
109012006975,1,-2,1,-2,-2,0,0,0
109012007765,-1,-1,-1,2,1,-1,-2,0
109012007765,0,1,2,0,1,-2,-1,-1
109012022142,-1,0,-1,-1,-3,-1,-1,0
109012022142,-2,-2,-2,-2,-7,-2,-1,-2
109012022764,0,0,0,-2,-2,-2,0,2
109012022764,0,-2,-4,0,-2,1,0,-3
109012035613,1,0,2,0,1,-1,-2,-1
109012035613,0,0,-3,1,5,1,1,0
109012043796,-2,-3,-1,-3,-2,0,6,0
109012043796,1,0,3,1,1,0,-1,-6
109012058872,1,-3,2,2,0,1,-1,10
109012058872,-1,-1,-3,-1,-1,0,-2,0
109012060493,0,0,-1,-2,0,-1,-1,0
109012060493,-3,-1,-5,-1,-2,-2,-1,-3
109012081997,-1,1,1,-5,-4,1,0,-4
109012081997,0,-1,-1,4,1,-1,-1,0
109012082715,-1,0,-1,-1,-1,-3,-3,-1
109012082715,0,-1,2,-2,1,0,1,1
109012095614,0,0,1,1,-1,-3,-4,-3
109012095614,-2,-3,-6,-5,0,0,-2,0
109012103818,0,0,0,1,0,2,-1,-5
109012103818,0,-2,1,2,1,-1,-2,2
109012118757,-2,-1,-3,-1,1,-1,1,0
109012118757,0,-2,-1,-3,-6,-1,-1,-3
109012119566,1,4,2,1,2,-1,-2,-1
109012119566,0,-5,-2,-2,-2,-1,0,1
109012141996,-1,-4,-5,-2,0,0,-2,-2
109012141996,-1,2,1,-2,-1,-2,1,0
109012142797,-1,-1,-1,3,1,2,-2,-1
109012142797,-1,0,2,1,1,-1,-1,0
109012155621,-2,-1,-4,-3,-3,-3,0,-2
109012155621,-1,0,2,-1,-3,-1,-2,-1
109012163706,-2,-4,-4,-2,-5,-2,-3,0
109012163706,-2,0,-1,-3,0,-3,-2,-1
109012178898,0,0,-2,0,0,-1,-1,-1
109012178898,-2,-1,-2,-1,0,-2,0,-1
109012179618,2,1,2,-1,0,-2,0,-1
109012179618,-2,0,-1,4,-2,1,-2,0
109012202003,-2,-1,-1,-6,-2,-2,-1,-2
109012202003,0,-2,1,9,2,-1,0,1
109012202767,-3,-3,-2,1,-2,-2,-4,-1
109012202767,-1,1,-2,-4,0,1,2,1
109012215642,0,1,-1,-2,-4,0,0,-2
109012215642,0,-1,1,-2,-1,1,0,-1
109012223787,-1,-1,-2,-1,2,0,1,-1
109012223787,0,1,0,1,-4,-1,-2,0
109012238787,1,-3,2,3,-1,-1,-1,0
109012238787,0,0,-2,-9,-2,0,7,-2
109012239618,-2,-1,2,6,5,0,1,0
109012239618,-1,-1,4,14,3,-1,-3,-3
109012261992,-1,-3,-4,-6,-1,0,2,-1
109012261992,-1,-2,-3,0,-3,0,3,0
109012263700,0,-2,-3,-6,-4,-3,-6,4
109012263700,-1,-1,-1,-4,-3,-1,0,-28
109012275742,0,1,1,4,2,0,-2,-3
109012275742,3,-1,0,1,2,0,-3,13
109012283818,-7,-1,-2,-2,0,-3,2,0
109012283818,0,0,-1,-6,0,1,-4,6
109012298802,-2,-1,-2,2,-2,-2,-3,-1
109012298802,-1,-2,1,-2,0,-3,-1,-7
109012299554,5,-1,1,2,-2,1,-1,-2
109012299554,-1,-2,-3,-5,-3,-4,-1,5
109012321971,0,0,1,-3,0,1,3,-4
109012321971,1,1,-2,4,2,-1,-3,2
109012322779,-1,-3,-1,0,-1,-1,-1,-2
109012322779,-2,-4,-5,-6,-3,0,2,0
109012344646,-1,2,-1,2,1,1,0,3
109012344646,-2,0,-1,-2,-5,-4,0,0
109012345372,1,1,0,1,6,0,-2,-2
109012345372,-1,0,-2,-2,-1,1,2,2
109012366965,0,-1,0,0,-1,-3,-4,-2
109012366965,-4,0,-1,-1,0,1,-3,-1
109012367729,-3,0,0,-3,-4,-3,-1,-4
109012367729,0,-2,-1,-2,-4,-1,5,10
109012382145,-3,-1,-3,-1,7,-2,-3,-3
109012382145,0,0,-1,1,-1,0,-3,-6
109012382742,-1,-1,-1,-2,-2,1,0,1
109012382742,-1,0,0,-1,-1,0,-3,-4
109012404442,1,-1,1,0,-3,0,1,1
109012404442,-2,-2,-1,0,-1,-1,-1,-3
109012405305,1,0,1,-3,-3,0,-2,-4
109012405305,-2,-3,-3,-1,-1,1,-1,2
109012418776,-3,-1,-1,1,-1,-1,0,2
109012418776,-2,-1,-1,0,2,-1,-2,0
109012419537,-1,0,1,1,-2,-1,1,0
109012419537,1,3,1,0,0,-4,-4,-2
109012442125,3,3,3,2,-5,-2,-3,0
109012442125,0,-4,-4,-4,5,4,2,1
109012442848,-6,-7,-6,-2,-2,-1,-1,-2
109012442848,-2,0,1,0,0,-1,-3,0
109012464982,0,-2,-2,-1,-2,-1,-1,0
109012464982,1,3,2,1,-3,-2,-2,-2
109012465854,-1,0,-3,-2,0,0,-1,-1
109012465854,-2,-1,-2,-1,1,-1,0,0
109012478960,0,1,1,2,3,3,0,1
109012478960,-4,-6,-4,-4,-6,0,1,-2
109012479571,2,-2,0,-1,-2,-1,0,0
109012479571,-2,-2,-1,-3,-3,-2,-2,-2
109012501953,0,0,0,-2,0,-2,-2,0
109012501953,-1,1,0,-1,1,-3,-2,-1
109012502713,-1,1,-3,0,1,0,0,-1
109012502713,0,-2,-2,1,0,0,-2,0
109012524690,-2,-1,-2,-4,-3,0,0,-1
109012524690,-3,-4,-2,-2,-1,-2,-2,-2
109012525295,-3,-1,-3,-1,-2,0,0,-2
109012525295,0,-1,2,0,0,-1,1,0
109012538854,-2,-1,-1,0,0,-2,0,0
109012538854,0,3,3,3,-1,-2,0,-2
109012539580,0,0,1,-1,-1,-1,-2,-1
109012539580,1,1,-2,-1,-1,-1,-2,0
109012562002,-1,-5,-6,-4,1,0,-1,-1
109012562002,-2,-1,2,0,-2,-1,1,-1
109012562739,1,1,1,0,-1,-1,-1,1
109012562739,0,-1,-1,0,1,-1,0,0
109012584488,0,1,1,2,1,-3,0,-1
109012584488,1,-1,-1,0,2,4,-2,-2
109012585370,-3,-2,0,-1,0,-1,-1,-1
109012585370,-3,0,-4,-3,-4,-1,-2,-2
109012598996,-3,-2,-1,-2,-2,-3,-1,-1
109012598996,-1,-1,-1,0,1,-1,0,-1
109012599607,0,1,0,-2,-2,-2,0,-1
109012599607,0,-1,0,1,-2,1,-1,-1
109012621954,-1,-1,0,0,-1,-1,-1,-2
109012621954,0,-2,-2,0,-1,-2,-2,-1
109012622737,0,-1,-2,1,1,0,-2,0
109012622737,-2,-2,-3,-4,-2,-1,2,-1
109012644663,-2,1,-1,-1,-2,0,-2,-1
109012644663,-1,-1,-2,-2,1,2,-1,0
109012645372,-2,-1,0,-1,-1,1,-1,0
109012645372,0,-2,0,-2,2,0,-1,-1
109012658761,0,-1,0,-2,-1,-1,0,-3
109012658761,0,1,2,-2,-4,-3,-2,0
109012659547,-1,0,-1,1,0,0,-1,-2
109012659547,-1,-1,0,2,0,1,-1,0
109012682122,-2,-1,-3,0,-2,-1,0,-1
109012682122,-1,0,-1,0,0,-3,-3,-1
109012682800,-2,-3,0,-3,-1,0,0,1
109012682800,-1,-2,-1,-1,0,0,1,-1
109012704541,-2,-2,-1,1,-1,1,2,-1
109012704541,-1,0,0,-1,-2,-1,0,0
109012705315,1,1,0,-2,-1,-4,-3,0
109012705315,1,1,0,-2,1,-1,-2,-1
109012718807,0,-3,-1,-3,-1,-2,-1,1
109012718807,0,-1,0,1,0,-1,0,-2
109012719530,-2,-2,-3,-5,-1,1,-2,-1
109012719530,0,0,-2,-1,-2,0,-1,-2
109012742216,0,0,0,1,0,-1,-1,0
109012742216,0,-2,-1,-1,0,0,-1,-1
109012742809,-1,-1,-1,-1,0,0,2,0
109012742809,-2,-1,0,-2,-1,0,0,0
109012764451,-1,-1,-2,-3,1,0,-2,-1
109012764451,1,0,1,0,1,-2,0,1
109012765292,-1,-1,-1,-2,-3,2,0,-1
109012765292,-2,-2,-2,-1,-2,-2,-2,0
109012787012,1,0,0,1,1,0,-2,0
109012787012,-2,-1,-4,-4,-1,0,-1,-2
109012787770,0,-1,-2,1,-2,-1,0,-1
109012787770,-1,0,0,-1,-1,0,-1,0
109012802059,-1,0,1,-1,-2,-1,-1,-1
109012802059,-1,-1,-1,1,0,-2,-1,-1
109012802804,0,0,-2,-2,-1,0,-1,0
109012802804,-1,-1,2,1,1,-1,-1,-1
109012824504,-2,-4,-4,-3,-3,-1,-1,-1
109012824504,-1,1,2,1,-1,1,-3,0
109012825327,0,-3,-2,-1,2,-2,-2,1
109012825327,0,0,-3,0,0,1,-1,1
109012838920,0,2,0,-1,-1,-2,-3,0
109012838920,0,1,0,1,-4,-1,-2,-2
109012839618,-1,-2,0,1,-2,-1,1,0
109012839618,0,-2,0,0,0,-3,0,1
109012861065,-1,-2,0,-1,0,-2,-1,-2
109012861065,1,1,-1,-2,-1,-2,-1,0
109012868843,-2,-3,-1,1,-2,-4,-2,-3
109012868843,-2,-1,-1,-3,0,1,-1,-2
109012884448,-1,-2,-1,-1,0,-1,-2,-2
109012884448,0,0,-2,-1,0,0,1,-2
109012885508,1,0,-1,0,-3,-3,-2,-1
109012885508,-1,-1,-1,0,0,-2,-1,-1
109012898360,-2,-3,-4,-2,-4,0,0,2
109012898360,-2,-3,0,-2,-1,-1,-1,-1
109012906355,1,-2,0,1,-1,-2,0,0
109012906355,0,-1,0,-2,-1,-2,0,0
109012922065,2,2,3,0,0,0,-1,0
109012922065,0,-2,-2,-3,-2,0,0,0
109012922788,-5,-6,-4,-3,-2,1,0,-1
109012922788,1,1,0,0,0,-1,-2,-2
109012944690,-1,1,0,-1,-1,0,0,0
109012944690,-1,1,0,-1,1,-1,-1,0
109012945309,2,2,1,0,-1,-1,-2,-2
109012945309,0,0,-2,0,1,1,0,0
109012958162,-1,-3,0,1,-1,1,0,-1
109012958162,-3,1,-3,1,-2,-3,1,-1
109012966314,0,-4,-2,-1,0,-1,-2,0
109012966314,-3,-2,-4,-3,0,-2,-2,-3
109012981937,2,3,1,2,-2,0,-1,-2
109012981937,0,0,2,0,3,3,-4,0
109012982800,1,2,-2,-2,-5,-1,-1,0
109012982800,-1,-3,-2,-3,-6,0,0,0
109013004493,0,-3,-2,2,5,-1,0,1
109013004493,0,-2,-3,-2,-2,-2,0,-1
109013005349,-1,0,0,1,13,1,0,-2
109013005349,-1,2,2,0,1,2,-1,-5
109013018154,0,0,-1,-1,-19,-3,1,12
109013018154,-1,-2,-1,-4,2,-6,-3,8
109013026297,-3,-1,2,0,-3,-1,-2,-14
109013026297,1,-2,-3,-7,-18,-3,1,4
109013042155,-4,-2,-2,3,29,-2,-5,-9
109013042155,5,2,3,4,7,-2,4,18
109013042796,2,2,0,0,29,2,2,0
109013042796,0,0,0,-7,-16,0,-2,-6
109013064483,-3,-3,-3,-2,44,3,0,-5
109013064483,-1,-3,-3,2,-14,1,-2,-1
109013065313,-1,1,-3,-3,2,-3,-3,4
109013065313,3,-2,1,3,1,3,-2,-9
109013078204,-1,-4,-5,-5,-13,-3,3,6
109013078204,-2,-2,-4,-5,-10,-5,-2,-36
109013086360,-4,-2,-3,-3,7,0,-1,-2
109013086360,3,3,1,4,-1,-2,-3,1
109013101999,7,2,-2,-10,-47,-8,-6,6
109013101999,-4,0,2,5,-7,0,0,-20
109013102815,1,-4,1,6,49,4,1,3
109013102815,1,4,-3,1,7,4,6,34
109013124493,9,5,7,21,-33,-1,-7,-20
109013124493,-16,-13,-5,-7,-14,-7,2,-6
109013126105,3,3,1,3,25,9,-5,3
109013126105,-8,-4,-5,-6,-7,-3,-8,-32
109013138314,10,6,1,3,26,-3,2,79
109013138314,-5,-1,2,-7,-15,-3,10,-15
109013147181,2,-1,5,10,-10,8,1,-9
109013147181,-4,-7,-4,-2,13,-9,-5,9
109013161962,-7,4,-3,-6,-30,6,-1,-30
109013161962,4,-5,-4,-4,13,-11,-5,-1
109013163603,-2,0,-3,-9,7,4,-2,6
109013163603,-3,2,0,3,-28,-9,0,11
109013184266,-4,-1,4,1,14,4,4,-13
109013184266,0,-2,-3,-11,2,11,-6,4
109013190818,7,3,1,15,-7,-7,9,10
109013190818,1,0,3,3,-12,17,-5,10
109013198347,-9,-12,-12,-29,-5,-12,6,-38
109013198347,1,7,11,40,34,11,12,42
109013207193,-8,-5,-7,-16,-4,0,-21,-21
109013207193,5,-2,1,-7,-37,-4,-29,-15
109013221973,27,10,5,7,76,4,55,43
109013221973,3,0,-2,0,-30,18,-12,-16
109013223592,-23,-8,3,39,34,-7,-36,27
109013223592,-36,-1,0,-15,-62,12,83,-26
109013244504,-11,-9,-6,-13,-26,0,-22,8
109013244504,12,1,-6,-22,-26,-33,3,3
109013246070,29,3,-1,-7,-52,-8,28,8
109013246070,-4,4,3,-5,-18,0,-72,-53
109013266990,-9,-5,-1,12,45,32,1,14
109013266990,15,4,-2,-10,-34,-12,27,9
109013268643,-17,0,-1,-10,20,-23,7,-13
109013268643,31,-1,-2,-6,3,-6,-6,41
109013282086,-21,-12,0,10,-59,-14,-28,-47
109013282086,1,-5,-6,16,-4,-16,-13,11
109013288187,12,15,16,4,4,43,-44,-32
109013288187,34,13,1,3,40,-27,40,26
109013304556,-27,-22,-2,-5,-15,10,-13,-10
109013304556,-11,5,5,-1,10,-8,-14,-18
109013306210,-30,-13,-4,36,60,-22,2,-10
109013306210,32,3,-7,-15,9,10,-15,39
109013327000,-3,7,0,19,24,6,14,-56
109013327000,-28,-10,-2,-65,-84,-4,6,22
109013328610,30,-5,-7,-9,-93,-6,13,28
109013328610,11,0,-4,0,19,-7,29,44
109013341383,-35,-16,-1,11,21,-12,-7,-78
109013341383,11,18,5,26,8,49,-70,-25
109013348131,-14,6,4,-23,-100,14,105,42
109013348131,23,-9,-9,-7,-20,-39,-54,3
109013364523,-7,14,1,-22,-29,24,47,46
109013364523,16,-3,3,6,-24,-11,15,-19
109013366103,-13,-1,-12,-25,-39,-14,-39,-10
109013366103,-25,-6,3,48,32,9,-10,-26
109013386069,6,6,-9,-81,-101,-6,0,-36
109013386069,10,-4,5,21,33,12,-41,27
109013394665,-18,9,-5,-27,-64,-1,58,-6
109013394665,6,-16,-9,-35,-6,-12,-8,56
109013402037,-18,-8,-10,-17,-10,-16,-43,-37
109013402037,24,6,-3,-32,-13,-1,57,36
109013403686,8,6,2,18,-29,-6,2,-13
109013403686,-58,-34,-2,43,76,26,58,-19
109013424490,34,19,9,-40,-114,-31,-39,29
109013424490,-3,1,-3,17,118,11,-3,9
109013426087,-5,0,10,58,-52,9,60,19
109013426087,-3,15,6,-23,-82,-11,30,-3
109013447101,33,-9,-9,-18,40,15,9,70
109013447101,-18,-6,-8,6,3,-47,-9,-22
109013448826,-12,11,-4,-49,-37,5,-16,-58
109013448826,-6,-9,9,77,104,10,-16,-31
109013461378,0,2,0,-5,11,-32,-21,15
109013461378,-17,-5,-6,-48,-53,-18,-12,-45
109013468137,57,-5,4,25,122,13,-56,-7
109013468137,-58,3,1,-25,-59,-2,-1,-33
109013492036,42,18,-1,17,-45,-6,-30,3
109013492036,-54,-32,2,46,127,27,32,3
109013493788,7,-7,-5,-2,6,-26,-54,-6
109013493788,30,14,-2,7,-85,-10,73,71
109013507062,15,2,11,18,102,8,-7,21
109013507062,-11,-2,-1,6,-71,1,-9,-37
109013508679,68,-9,-4,4,36,-3,-14,28
109013508679,-59,4,-4,-35,9,6,-30,-66
109013521312,-13,6,-4,21,-37,-12,-51,18
109013521312,20,7,1,-14,-65,-15,5,21
109013528130,-2,-8,-1,-15,-6,29,-2,-3
109013528130,23,12,8,-14,37,11,20,-9
109013544612,-33,-9,9,80,26,1,44,-10
109013544612,6,3,-4,-21,-38,20,-13,-7
109013546261,-21,-1,-10,-36,18,-12,-8,4
109013546261,32,-4,-1,-23,-86,-8,-30,-7
109013567041,-2,-7,-5,-22,-46,-1,48,-10
109013567041,5,1,1,17,2,1,9,19
109013568639,-21,1,4,22,-7,-4,-10,1
109013568639,4,2,0,20,92,20,-14,-39
109013581439,5,2,-4,-52,-6,14,10,43
109013581439,23,2,2,52,48,12,8,38
109013588116,-33,-12,-8,-31,-55,-18,-5,-25
109013588116,-2,6,1,-1,-28,16,-39,3
109013604603,-16,-9,-5,-6,-1,-5,-2,-12
109013604603,38,15,-3,-30,-26,-12,-4,27
109013606136,-61,-33,-8,24,21,-1,-64,-30
109013606136,-18,-4,0,7,8,-4,-7,-6
109013627073,3,-4,-1,21,52,6,13,-1
109013627073,0,7,-3,-31,-71,-20,6,-10
109013628630,17,10,3,-10,11,-4,-16,6
109013628630,5,-5,-3,3,1,17,-1,2
109013641389,4,1,-5,12,64,-40,-18,-25
109013641389,-5,4,10,-10,61,49,1,-16
109013648196,-1,1,-5,-20,-97,-19,9,8
109013648196,4,-5,-2,-1,15,-13,5,9
109013671980,1,-1,0,19,-16,-9,17,35
109013671980,-10,-5,-3,-2,-16,7,-7,-9
109013674747,1,1,0,-20,50,-3,21,6
109013674747,2,2,2,9,-36,-11,0,8
109013687717,-2,-1,-1,-15,-14,3,-15,-21
109013687717,2,-3,4,19,39,5,-23,-4
109013689275,-7,7,2,6,14,-8,12,9
109013689275,7,-5,-4,-1,7,15,-10,-6
109013701381,30,2,3,-3,-20,0,4,-7
109013701381,-43,-1,-2,12,1,-7,4,-11
109013708324,7,-4,1,2,34,9,9,-3
109013708324,8,1,0,-7,-6,-23,-5,1
109013725957,-8,-2,2,9,-9,39,-1,-6
109013725957,9,-1,-4,-7,6,-20,1,1
109013727608,9,2,1,5,-11,4,1,7
109013727608,-7,-3,-4,-12,8,-19,2,-6
109013746197,0,2,1,7,-10,-4,0,0
109013746197,0,-1,1,8,0,32,1,-9
109013754768,-3,1,-1,-6,9,-21,11,1
109013754768,5,-1,0,-2,-26,-18,-4,3
109013760877,0,2,1,3,-10,7,8,14
109013760877,11,-7,-5,3,10,-11,-13,-11
109013769672,-28,4,-3,-5,-22,6,-2,-28
109013769672,0,0,1,0,37,4,2,11
109013784489,8,-3,6,14,-1,-9,-4,0
109013784489,-25,-6,-6,-9,-21,-15,0,-6
109013786187,12,6,-2,5,12,46,9,10
109013786187,-1,0,0,-6,-3,1,-3,-9
109013807089,-9,0,-1,15,-4,1,-2,-11
109013807089,3,0,-3,-3,-4,-9,5,6
109013808798,7,1,5,6,21,-9,-2,3
109013808798,-3,0,-3,-9,-11,6,1,-3
109013820718,0,-1,3,2,9,5,1,-1
109013820718,2,0,-1,-2,-1,-12,2,-2
109013829646,6,0,2,-1,-11,-11,-1,7
109013829646,7,-1,-2,2,11,20,-2,-1
109013844612,-7,-1,-4,-4,5,8,0,-8
109013844612,1,2,1,6,6,-9,-1,-3
109013846208,0,2,-2,-5,-8,1,0,5
109013846208,1,-5,-1,0,6,2,-2,2
109013867250,-6,-2,-2,-3,6,-1,-5,-7
109013867250,-3,0,-1,-8,-29,-17,-2,-6
109013868700,11,-2,0,3,-18,2,7,-3
109013868700,-2,0,-3,-3,3,-5,-6,-12
109013880672,9,0,0,0,-8,-5,2,4
109013880672,-15,-3,0,-1,-11,14,0,-9
109013889706,-10,-3,-2,-4,14,-9,4,3
109013889706,4,2,1,1,-7,-5,1,0
109013905977,-10,-1,-3,-7,-5,3,-1,-1
109013905977,14,1,1,1,-7,-11,-2,1
109013907563,6,-2,-2,5,43,0,-1,-1
109013907563,-4,0,0,-1,-2,9,2,2
109013927060,8,0,3,3,12,7,0,4
109013927060,1,1,-1,-1,-3,10,3,0
109013928630,-5,-2,-2,-2,-6,-4,-6,4
109013928630,0,-2,-2,1,5,18,-3,-3
109013940699,-2,0,0,0,6,-12,-1,-2
109013940699,2,-2,0,0,6,0,2,1
109013949696,-1,-4,-2,-2,-15,-22,-8,-4
109013949696,-3,-2,-4,-3,1,33,8,3
109013964681,-8,0,1,-1,-5,-13,-2,-4
109013964681,0,2,-3,1,12,12,4,1
109013966295,7,3,2,-1,-7,-1,-1,3
109013966295,-4,-3,-3,-5,-4,-12,-5,0
109013987676,-6,-5,-5,-2,5,2,-4,-4
109013987676,1,-2,3,2,8,-8,2,-1
109013989306,5,0,-1,-2,-20,7,-1,3
109013989306,-2,-1,-2,-3,-10,-18,0,0
109014000703,6,0,-1,0,7,11,2,-2
109014000703,-8,-2,-3,-3,-1,-18,-8,-8
109014009761,-1,0,0,2,10,10,1,11
109014009761,-1,0,-1,-1,-9,-5,-2,7
109014024654,7,1,-1,-3,-19,-6,1,-5
109014024654,2,0,1,2,22,4,-9,21
109014026315,2,-9,-5,-4,0,0,-1,-4
109014026315,-23,-1,0,-1,-9,-2,0,-4
109014047057,-4,-1,0,-1,-1,-3,-3,-2
109014047057,7,1,-3,-1,-10,2,1,0
109014048669,7,1,3,0,0,6,0,2
109014048669,4,-1,-1,2,7,-10,-2,-1
109014060929,-2,-2,-2,-2,-1,5,3,-2
109014060929,-2,-2,1,-2,3,1,2,-4
109014069670,-6,1,-1,1,-3,-7,0,-1
109014069670,3,-2,0,1,0,-7,0,-7
109014084523,-6,1,1,1,2,1,0,-1
109014084523,2,-2,0,-2,-4,5,0,0
109014086133,-5,1,0,-1,8,11,2,-2
109014086133,5,2,0,2,3,-4,-4,1
109014107076,-2,-4,-3,-2,3,3,-1,1
109014107076,-4,-3,-3,-1,-5,-1,0,-4
109014108716,0,2,-2,-1,-8,1,0,-4
109014108716,1,-3,-1,-2,3,-3,-1,-2
109014120683,-1,2,2,3,6,0,-2,-1
109014120683,-1,-2,-1,-2,-1,2,-2,-3
109014129691,-8,-4,-4,-1,0,-1,-1,-4
109014129691,4,2,0,-1,-2,-1,0,2
109014144539,-10,-1,0,-1,0,-1,-1,0
109014144539,2,-1,1,0,-2,0,-1,-1
109014146128,3,2,0,-2,1,0,-3,0
109014146128,-5,-1,-3,-2,0,4,-1,-2
109014167127,1,-1,-2,-1,-4,-7,-1,-1
109014167127,-3,-1,0,0,-2,10,2,0
109014168686,-4,-3,-3,-1,0,-5,-1,0
109014168686,5,-1,0,2,-3,-4,-1,-1
109014180700,-1,-1,1,2,1,6,-1,-4
109014180700,-1,0,0,-2,0,-11,-1,0
109014189698,-2,-2,2,0,-13,-6,-1,-2
109014189698,1,1,-4,-4,-1,2,2,-1
109014204523,-1,0,2,1,0,-4,0,0
109014204523,-1,0,-2,-1,0,9,-3,-1
109014206086,3,0,-1,-2,2,4,-1,0
109014206086,-2,-3,-2,0,4,-4,2,0
109014227191,-2,-2,1,0,-6,-3,-1,-1
109014227191,1,1,-1,-1,3,4,2,1
109014228766,-2,-1,-2,-3,-2,0,0,-2
109014228766,1,-2,2,3,2,0,-1,-1
109014249502,-3,-1,-2,-1,1,-2,-5,-1
109014249502,1,-4,1,2,-2,-2,-1,-2
109014251130,1,-1,-3,0,-2,-2,0,0
109014251130,-2,-2,-4,-4,-5,-6,-2,-1
109014263644,2,-1,0,1,2,3,2,0
109014263644,-6,1,-3,1,1,-3,2,-3
109014279740,1,0,2,0,1,2,-2,-2
109014279740,-3,-1,1,-1,1,-2,-3,-1
109014287055,-1,-1,-2,-1,1,2,2,0
109014287055,0,-2,-2,-1,-8,-3,0,-1
109014288649,-2,0,-2,0,4,-1,-3,-1
109014288649,1,1,2,1,-7,3,-2,-1
109014309541,1,0,1,-1,2,-3,0,2
109014309541,0,-2,-1,1,3,-2,-2,-1
109014311179,-1,-1,-3,-1,4,3,-2,-1
109014311179,-1,0,-2,-1,-3,1,-1,-1
109014324678,-3,-1,-2,1,-1,0,-3,-1
109014324678,1,0,0,-1,-3,-2,-1,-1
109014326227,-1,-1,1,-1,0,-1,0,-1
109014326227,-1,-2,0,-1,4,0,-1,-3
109014347026,0,-1,0,-2,-4,-2,-1,0
109014347026,-1,-1,-1,-2,-1,-2,-2,-2
109014348663,-1,-2,1,-2,-3,-3,0,0
109014348663,0,-3,-2,-2,1,-1,-2,0
109014369522,0,1,-2,-1,-2,6,1,-1
109014369522,0,-1,0,0,2,2,-1,-1
109014371218,-2,-1,-1,0,-2,-4,-2,-1
109014371218,0,1,0,0,3,1,2,1
109014384080,0,-1,1,-4,-4,-6,-4,0
109014384080,-2,-1,-3,-1,0,4,1,0
109014390709,0,-5,-5,-2,1,4,2,0
109014390709,-2,-3,-2,2,-1,-4,-2,-1
109014407750,-1,-2,-4,0,7,-2,-2,-1
109014407750,1,2,2,0,-7,-6,-1,-2
109014409409,-1,2,2,-1,-5,3,-1,-1
109014409409,-1,0,0,0,7,-6,0,0
109014429609,-3,-4,-4,0,17,1,0,0
109014429609,0,-2,-2,-5,-9,-1,-3,-1
109014431328,-1,-2,1,0,-3,-5,-2,-1
109014431328,0,2,-1,1,-2,6,2,-1
109014443915,-1,-2,1,-1,-7,-2,-2,-1
109014443915,1,-1,1,0,2,0,-2,-2
109014450712,0,-1,-1,-1,-3,-2,-2,0
109014450712,-1,-1,-3,-3,-3,-2,-2,-1
109014467201,-1,-3,0,4,-2,0,1,0
109014467201,-3,-3,-2,-2,2,-2,-1,-1
109014468693,1,3,0,-3,-3,-3,0,0
109014468693,-2,-1,-2,1,2,-1,-1,-1
109014489564,0,-2,-2,-3,-5,-3,0,0
109014489564,0,2,2,3,1,-3,-1,0
109014491154,-1,-2,-2,0,3,0,2,0
109014491154,-2,-4,-3,-3,-2,-1,0,1
109014503869,-1,-2,-1,-1,-6,-2,-1,-1
109014503869,0,-2,-2,-1,-2,-2,1,1
109014510681,0,0,1,1,0,-1,1,0
109014510681,1,0,3,0,1,-1,-2,-1
109014527313,-3,-1,0,-1,-4,1,-1,-1
109014527313,-1,-1,-1,0,5,-3,1,-1
109014528847,-1,0,1,0,-13,-4,-1,-1
109014528847,-1,-4,-2,-3,0,2,2,1
109014549536,-3,-3,-5,-2,-8,-3,0,-2
109014549536,-1,0,-3,-1,4,1,-1,-1
109014551137,-2,1,2,2,5,0,-2,-2
109014551137,2,1,2,1,-1,-1,-3,-1
109014563243,0,5,1,-1,-2,-2,0,-2
109014563243,-3,-6,-5,-2,-3,0,-2,0
109014572143,-2,-4,-4,0,4,0,1,0
109014572143,1,-2,-2,-2,4,2,-1,0
109014587142,1,0,-1,0,0,-2,-2,-2
109014587142,-2,3,4,0,0,0,-1,-1
109014588689,1,1,-1,-3,2,3,-2,0
109014588689,0,0,1,0,-2,-3,0,-1
109014610181,0,1,-1,-1,0,-2,0,1
109014610181,0,-1,5,4,0,7,1,0
109014611874,-1,-4,-3,-2,1,-3,-1,-1
109014611874,-1,-1,-2,-1,-1,-1,-3,0
109014624140,-2,-3,-5,-2,-3,-4,-3,-2
109014624140,-2,1,0,-2,-2,-3,-2,0
109014630803,2,0,1,0,0,-2,-1,0
109014630803,2,3,1,0,-1,-1,0,-1
109014647124,-1,-3,-1,-1,3,2,-2,0
109014647124,-1,-2,-3,-1,0,-8,-3,-2
109014648700,-1,-1,-2,0,-1,2,3,0
109014648700,-2,-4,0,-1,-1,-1,-1,-1
109014669635,-1,1,2,-1,-1,0,0,-1
109014669635,-2,-1,-2,-2,-1,0,-2,-2
109014671210,1,0,0,0,0,0,-3,-1
109014671210,1,0,0,0,-1,0,-1,-1
109014683371,0,0,1,-1,-3,-2,-1,0
109014683371,-2,-2,-5,-4,-1,-1,2,1
109014692201,-3,-4,-2,5,3,3,0,0
109014692201,-2,-1,-2,-3,-6,-4,0,-1
109014707064,-2,0,0,0,-1,-1,-1,-1
109014707064,0,1,0,-3,-2,-3,-3,-1
109014708628,-1,2,0,-2,0,-1,-2,-1
109014708628,0,-2,0,0,1,-1,0,-2
109014729818,0,-2,-1,0,0,-1,-1,-2
109014729818,1,2,0,0,-1,0,0,-1
109014731288,-4,-1,-3,-2,0,-1,0,-1
109014731288,-2,-2,1,1,-2,0,-1,-1
109014743217,0,-2,-1,-1,1,-1,-2,-3
109014743217,0,-2,-1,2,1,1,0,-1
109014752183,1,1,0,0,0,-2,-3,-2
109014752183,0,0,0,0,-1,-2,0,-2
109014767098,-3,-3,0,-1,-2,-1,0,-1
109014767098,-1,-2,-2,-1,0,2,-2,0
109014768665,0,3,0,-3,-1,-4,-3,-1
109014768665,-1,-4,-3,-1,0,2,-1,2
109014789762,-2,-3,-4,-4,-5,-1,1,0
109014789762,-2,-3,-5,-1,3,4,1,-3
109014791200,-1,1,0,1,-5,-6,-3,-1
109014791200,-1,1,1,3,3,-2,-3,0
109014803242,1,1,3,1,3,2,-1,-1
109014803242,-1,-1,2,-1,-5,-3,-2,1
109014812291,-2,-1,-2,-3,-3,0,-1,-1
109014812291,-1,-1,-4,1,-2,-2,-1,-1
109014834684,-2,-2,-3,-1,-1,-2,0,0
109014834684,-1,-2,-3,-1,-1,-2,0,-1
109014836230,-2,-4,-1,0,1,2,-1,-1
109014836230,0,1,1,-1,-2,1,-1,-1
109014849589,1,2,1,-2,2,0,-1,0
109014849589,-1,3,1,0,-1,-2,0,0
109014851168,-2,-4,-1,-1,-1,1,-1,-1
109014851168,-2,-4,-3,-2,-1,0,1,-1
109014863297,0,1,-1,2,-1,2,-1,0
109014863297,-2,0,-2,-1,-1,-1,-1,-2
109014872345,2,3,0,1,1,1,1,2
109014872345,-3,-1,1,-3,-2,-2,-2,0
109014887112,-1,-2,-4,-1,1,-2,0,-2
109014887112,5,-1,0,0,-1,-2,0,-3
109014888675,-8,1,-2,-1,-1,-1,0,0
109014888675,-1,-1,-1,-5,-3,0,-1,-1
109014909677,0,0,0,2,-1,-2,-1,-1
109014909677,-1,0,-1,0,0,2,-1,-1
109014911191,1,-2,0,0,-1,-2,0,-3
109014911191,0,2,-4,-1,0,-1,-2,-1
109014923374,-2,-2,0,0,1,-1,-2,0
109014923374,0,2,1,-2,-2,-1,-2,-1
109014932372,0,-5,-5,-2,-2,1,-1,0
109014932372,-4,-5,-3,-4,0,-2,0,1
109014946848,4,0,-1,-1,-5,-1,0,-2
109014946848,-3,1,0,0,1,0,0,2
109014953227,-1,1,-1,-4,-1,-1,-1,-2
109014953227,2,1,1,-1,-3,-1,1,-2
109014969621,-1,-2,0,0,2,1,-2,1
109014969621,3,-2,-2,-1,-3,-1,1,1
109014971209,-2,0,0,2,-2,2,-1,0
109014971209,1,0,-1,1,1,-1,-1,0
109014983371,-3,0,-1,-2,-2,1,0,-2
109014983371,-1,-4,-2,-1,-1,-2,-2,-2
109014992315,-1,-2,-2,-4,1,-1,0,1
109014992315,0,0,2,3,1,1,0,-1
109015007023,0,0,1,-1,1,-1,-1,0
109015007023,-4,-3,-3,0,1,-1,-1,0
109015008748,2,-1,0,-2,-2,-1,-1,-1
109015008748,-1,-1,0,0,-1,0,0,-1
109015029722,-3,-2,-3,-1,-1,0,-2,-2
109015029722,0,0,1,1,0,-1,-3,-1
109015031353,-2,-3,-1,2,0,-3,0,-1
109015031353,-1,1,0,-1,-3,-2,-1,-1
109015043273,-1,-2,0,1,-1,0,1,-1
109015043273,-1,0,-1,-5,0,-1,0,-1
109015059727,0,-2,1,-1,-1,0,-1,-3
109015059727,-2,0,-1,-1,1,0,0,0
109015067094,-1,-2,-4,-1,-3,1,1,0
109015067094,-1,-2,0,1,1,3,-2,0
109015068734,-1,-2,-3,-2,-2,-2,-2,1
109015068734,3,0,-3,-4,-3,0,-1,1
109015089674,-3,2,1,-1,1,-2,-1,0
109015089674,2,0,-2,0,-1,0,0,-1
109015091234,0,1,1,0,-2,-2,-3,-1
109015091234,-2,-3,-2,-3,-1,-2,-2,-2
109015103230,1,-2,-2,-1,-2,-2,-1,-3
109015103230,-3,-1,1,-2,-3,-1,1,-1
109015112275,0,-1,-1,2,-1,-1,-1,0
109015112275,0,1,0,-2,1,-1,-3,0
109015127083,-2,0,0,-1,-3,-2,-2,-2
109015127083,-1,-1,-1,1,-3,-2,-1,-2
109015128845,-1,-1,-4,-3,-1,-1,-1,-1
109015128845,-4,-2,-2,-2,0,-1,-1,-1
109015149602,0,-2,-1,0,-1,-2,0,-1
109015149602,-1,-2,0,0,1,3,-1,-1
109015157274,-2,2,1,1,0,-1,-2,0
109015157274,0,-2,2,1,-1,-4,-2,0
109015172083,-1,0,-2,-3,-1,-2,0,1
109015172083,-1,-5,-2,0,-3,-1,-1,-3
109015173672,-1,-3,-1,-2,0,-2,0,0
109015173672,-4,-1,-2,0,0,1,-2,-1
109015187102,2,2,0,1,-1,-4,2,0
109015187102,0,1,0,-2,0,0,-2,1
109015188711,0,0,2,-2,-2,2,0,-1
109015188711,-2,-1,-2,-2,0,-1,-1,-1
109015209577,0,-2,-1,0,-2,-1,-1,-1
109015209577,-2,-2,-6,-1,-3,0,1,0
109015211227,-3,-2,-1,-2,0,-1,-1,-1
109015211227,0,2,2,1,-1,0,0,0
109015232257,3,-1,1,1,0,1,-2,-1
109015232257,-4,-5,-4,-2,-1,-2,-1,0
109015233806,-5,-1,-2,-3,-1,-1,-2,0
109015233806,0,1,0,0,-2,0,1,-1
109015247143,0,-1,0,0,0,1,-1,-1
109015247143,3,1,3,0,0,-1,0,-2
109015248743,0,-2,-1,-1,0,-1,-1,0
109015248743,-3,-3,-3,-1,-2,-4,-1,-3
109015269570,1,2,1,1,3,-1,-1,0
109015269570,0,-5,-1,0,1,1,-1,-1
109015271209,1,2,-1,0,0,1,1,0
109015271209,0,-1,-1,-1,0,-1,-1,-1
109015292238,-4,-1,-1,-3,-1,-1,-1,-1
109015292238,0,1,-1,1,0,-1,0,-1
109015293819,-1,-4,-2,-1,0,-3,-3,-2
109015293819,5,-2,1,2,-2,1,-1,0
109015306436,-7,-2,-2,-1,3,1,-3,-2
109015306436,-2,2,4,-1,-5,-2,-2,-1
109015313357,2,0,0,1,0,1,-1,0
109015313357,0,0,-2,-2,0,-3,-2,1
109015329677,-1,-3,-3,-2,-1,1,-1,-1
109015329677,-6,-4,-2,-1,0,-4,-2,-1
109015331256,2,0,-1,-3,-5,0,0,-1
109015331256,0,1,1,1,-3,0,-2,1
109015359594,2,0,-1,-1,-2,-2,-1,0
109015359594,0,1,0,0,2,-2,-1,-1
109015361189,-2,0,0,1,1,-2,-1,-1
109015361189,0,0,-1,-1,2,4,0,-1
109015366429,-1,0,1,0,-1,-1,0,-1
109015366429,3,0,-2,-1,-1,0,-1,0
109015373282,-2,-3,-2,-4,-2,2,0,0
109015373282,-1,-1,0,-1,2,-1,0,-2
109015389650,-2,-5,-1,-1,-6,-1,-1,0
109015389650,-2,0,-2,0,2,-1,-1,-2
109015391252,0,-1,-1,2,0,-1,-1,-1
109015391252,-3,-3,-3,-2,-1,-3,1,-2
109015412065,0,0,-1,-1,-1,-5,-1,0
109015412065,-1,-1,1,-3,1,-2,-1,1
109015413659,2,1,1,0,-2,-2,-2,-2
109015413659,-2,-1,-2,0,2,-1,0,-3
109015426483,0,-3,-4,-2,-2,1,-1,0
109015426483,0,1,0,2,14,3,0,0
109015433330,-5,-3,-1,-1,0,-3,-2,-1
109015433330,0,-1,1,0,-1,3,-1,0
109015449800,-2,1,1,-1,-3,-1,-1,-2
109015449800,5,-4,-3,-3,-7,-1,-3,2
109015451330,2,1,1,3,4,6,5,-4
109015451330,-1,-1,1,1,1,-3,-2,-1
109015472072,0,1,-1,1,-1,-1,-1,0
109015472072,-4,-1,-2,-3,-7,-3,-2,-1
109015473647,-3,-3,-2,-1,-3,2,-1,0
109015473647,0,-1,-1,-1,0,0,-1,-1
109015486531,1,3,1,-2,2,2,0,0
109015486531,-2,-3,-1,0,-3,-3,0,-2
109015493352,0,-2,-3,0,-2,-3,-1,-1
109015493352,-2,-2,-2,-1,-2,-1,1,-1
109015509611,-1,-1,0,4,4,2,0,-1
109015509611,-2,1,0,-3,3,3,2,-1
109015511309,-1,-1,-1,-1,-1,-2,-2,-1
109015511309,-1,0,-1,-1,-3,0,0,0
109015531131,0,0,-1,-1,0,-2,-2,-2
109015531131,0,-3,-2,-1,-5,-1,-2,-1
109015539851,-1,0,-1,-2,1,-1,0,-1
109015539851,1,-1,0,0,0,-1,-2,0
109015546569,0,-1,1,-3,-1,-3,1,0
109015546569,-1,-1,-1,-1,-2,3,0,-1
109015553379,-3,-2,-4,-2,-1,-2,-2,-1
109015553379,-3,-1,-2,1,5,-1,-1,-1
109015569607,-1,-3,-2,0,-3,0,-2,1
109015569607,-2,2,1,-3,-6,-3,-2,-2
109015571316,0,1,-2,3,10,0,0,0
109015571316,-1,-4,-1,-2,-2,4,2,1
109015592205,-2,-2,-5,-4,-8,-2,-2,-3
109015592205,-1,-1,-3,-9,-12,1,-1,-2
109015593731,1,3,2,11,-9,-9,-5,2
109015593731,0,2,5,9,10,1,0,10
109015606334,3,-2,2,1,-5,0,0,2
109015606334,-4,0,-3,1,13,2,2,5
109015614770,-1,-3,-2,-7,-35,-8,-7,-21
109015614770,0,4,6,24,90,12,15,17
109015629625,9,1,-2,-4,-5,-1,-10,-17
109015629625,-1,-10,-4,7,51,4,-1,-2
109015631307,1,2,-1,-24,-105,-11,-3,-17
109015631307,0,-1,-2,2,73,8,-11,-2
109015652120,2,-2,5,5,27,9,28,45
109015652120,-10,1,-2,3,-23,-2,-2,-14
109015653739,1,-3,-3,-4,18,-1,4,4
109015653739,-5,1,-7,-21,-80,-14,-6,-24
109015665761,-3,3,0,-5,7,0,-15,-15
109015665761,-6,-8,-1,3,-5,-4,13,-7
109015674748,0,0,1,-9,15,-4,3,25
109015674748,4,-2,-2,1,34,7,4,-5
109015689657,-6,-4,-7,7,11,-4,-10,-3
109015689657,10,5,4,-7,-2,-11,-19,-5
109015691344,2,4,5,29,71,27,8,7
109015691344,0,-7,-7,11,-11,-13,-16,6
109015712123,0,7,13,26,-54,5,15,-50
109015712123,-7,0,-1,-2,58,2,-22,37
109015713785,-2,-1,0,12,76,14,20,10
109015713785,-5,-3,-4,-26,-127,-21,-28,-53
109015725706,12,-1,2,33,60,16,7,29
109015725706,0,5,1,-29,-105,-7,26,-30
109015740755,-15,-3,-5,23,49,-26,-7,-14
109015740755,14,9,8,27,55,24,59,44
109015749758,-40,-18,-10,-26,-3,-17,-17,-50
109015749758,22,5,2,-3,-39,15,-1,86
109015751314,-1,-2,-2,-2,9,-8,-56,-37
109015751314,-2,-4,-6,-24,-14,-14,-27,-7
109015771154,6,2,-6,-11,-55,-10,40,10
109015771154,-1,-5,-2,8,41,-1,15,-1
109015779756,3,1,2,-2,-46,4,13,-33
109015779756,-1,-4,-2,-6,23,-19,-21,12
109015785795,0,3,-1,-30,-83,-6,-13,38
109015785795,6,2,0,24,35,-15,-1,-58
109015794889,-20,-11,-6,-14,-16,9,5,37
109015794889,8,5,1,-21,-45,14,-1,-13
109015809730,3,-1,0,2,43,6,-1,-2
109015809730,-10,-1,-1,-10,-55,-6,29,9
109015811197,20,-6,-8,2,46,-13,-43,0
109015811197,-12,-5,3,36,-37,11,5,-45
109015833190,-1,5,7,-1,0,-15,-9,38
109015833190,-1,2,-2,-11,-42,-8,-19,-17
109015834884,-4,2,0,-9,26,23,13,40
109015834884,7,-2,-4,-5,-46,13,81,12
109015845923,-29,-15,-4,26,78,-45,-76,-41
109015845923,-5,-5,-6,-17,59,51,4,-12
109015854763,8,0,1,-14,-104,-4,19,1
109015854763,35,13,9,19,50,12,-39,21
109015869608,-40,-1,-4,2,61,17,0,-6
109015869608,8,1,2,9,-4,-16,0,-4
109015871202,-20,2,-4,-42,-69,-24,-14,-12
109015871202,-10,-19,-4,14,-15,-11,-18,7
109015892391,27,6,-1,-7,-56,23,17,6
109015892391,-5,-5,-14,-31,-35,-30,-22,0
109015893830,-7,5,7,11,54,17,1,-34
109015893830,9,4,8,-28,-12,4,37,53
109015905839,18,-3,-2,15,-3,3,-24,-14
109015905839,-20,-4,0,14,39,4,6,-26
109015914763,-14,-8,-9,-23,-40,-28,-38,-13
109015914763,-15,2,1,-14,9,-3,28,9
109015929609,9,-3,-7,-60,-54,-25,-23,-24
109015929609,19,15,16,40,60,22,8,1
109015931280,14,-2,2,22,58,31,10,0
109015931280,-17,-6,-4,1,-1,-2,-63,-13
109015952137,-6,-4,-5,-14,-2,21,31,-33
109015952137,14,0,-3,-21,-78,-7,-17,81
109015953762,9,4,7,31,-29,-5,-22,-10
109015953762,-10,2,-4,18,69,-9,2,-34
109015974613,47,6,0,-27,-53,-3,29,30
109015974613,-72,-11,-7,-1,11,4,16,-29
109015976197,5,8,8,26,69,19,-1,60
109015976197,2,0,-2,-1,-33,-6,-7,-9
109015989663,11,3,0,9,49,18,22,4
109015989663,19,-4,-7,-42,-66,-41,-20,-4
109015991348,2,2,4,-40,-102,-12,22,14
109015991348,-3,7,9,51,113,5,27,-21
109016012237,-13,-5,-4,7,38,19,-4,19
109016012237,8,-3,-6,-12,-6,6,-10,-23
109016013718,0,-5,-6,-16,-30,-13,10,-10
109016013718,-5,-6,-9,-35,-45,-31,-17,10
109016025825,-1,1,2,8,-68,0,-15,-8
109016025825,-4,-6,-1,45,53,-4,-7,-23
109016034726,5,0,0,-23,22,-1,44,2
109016034726,-5,-2,-4,15,-33,-16,-10,-9
109016049164,-1,1,3,24,95,28,5,47
109016049164,14,7,8,17,45,9,11,-21
109016055830,14,-6,-8,-23,-22,-20,5,32
109016055830,-34,-5,-8,-35,-58,-5,-38,-6
109016072172,2,-7,-8,-4,-14,-6,55,27
109016072172,-12,-3,5,16,-10,-14,-45,-40
109016073751,18,3,1,8,-13,10,9,11
109016073751,3,0,-1,-10,-4,3,-17,19
109016094638,-3,0,-1,-11,-24,-15,-44,-8
109016094638,-2,-1,-3,-5,-29,7,15,4
109016096239,-8,0,2,22,35,3,15,-23
109016096239,4,-1,-2,-37,-96,-5,-1,-6
109016108958,-8,1,1,8,30,-11,1,-9
109016108958,5,0,-1,5,12,11,18,-5
109016115881,-11,-5,1,17,1,-1,-30,-11
109016115881,6,3,4,-2,54,4,20,4
109016132067,-2,-2,1,26,-42,-15,-7,-21
109016132067,0,-1,-1,-3,20,19,-10,14
109016133708,0,2,-2,6,63,6,28,7
109016133708,5,1,7,15,24,9,-5,-2
109016156044,-3,2,3,-7,-23,1,4,-19
109016156044,1,0,-2,-3,-8,-15,-3,10
109016157923,-4,-1,-2,-9,-5,1,-3,-6
109016157923,3,-2,-5,-8,-30,-1,-5,-7
109016170294,-5,2,1,-7,17,3,-8,-3
109016170294,2,-1,-1,6,8,-1,6,6
109016171817,-3,-1,-2,9,27,5,-10,-21
109016171817,1,-2,1,-1,8,-9,-8,11
109016192197,-2,3,6,9,-22,3,6,-24
109016192197,2,0,-2,-13,-9,-1,0,6
109016193730,2,-4,-2,1,-15,-3,-8,-8
109016193730,0,-4,-5,-4,17,7,4,10
109016214832,-5,-3,-2,13,16,-7,0,3
109016214832,6,1,1,-24,-65,-5,13,3
109016216429,-5,0,3,13,4,0,-39,-18
109016216429,3,-3,-6,-11,-27,1,11,-8
109016229576,-4,-1,-2,-9,-45,1,-4,-8
109016229576,-1,1,-1,2,24,2,5,8
109016231276,-3,0,-1,0,11,-12,-20,10
109016231276,2,-3,-2,2,10,20,20,38
109016252193,-1,-1,0,-16,-46,-11,-9,-27
109016252193,5,-2,5,14,40,3,-13,19
109016253849,-4,-1,-2,-4,-20,-1,10,-16
109016253849,0,0,1,5,22,6,-7,-14
109016274639,0,-1,-1,-6,30,20,6,19
109016274639,-4,0,-3,-3,-21,-7,-4,-6
109016276201,1,-3,-2,-4,1,-2,12,1
109016276201,-1,-1,0,5,10,-4,0,-6
109016289008,-4,-3,-5,-16,-5,-6,-7,-2
109016289008,0,-2,1,17,14,-3,-2,-5
109016295770,0,0,4,21,9,3,2,6
109016295770,-2,-1,-3,-7,-4,-8,-2,-10
109016311298,-1,2,-1,2,7,-10,-2,14
109016311298,-1,-4,-2,-12,0,0,4,-4
109016319839,-4,-2,-2,-4,-4,5,7,3
109016319839,-1,-1,2,5,0,-3,-6,-3
109016334649,-1,-4,-3,5,22,-7,-1,1
109016334649,-1,2,0,-8,-46,6,4,4
109016336280,-3,-2,-2,0,44,5,-1,-2
109016336280,1,3,2,2,-44,-5,-2,-5
109016348971,2,2,2,-3,9,1,1,5
109016348971,-3,-3,0,-1,-5,-4,-1,-1
109016355716,-1,-2,-1,-10,-15,-1,-2,1
109016355716,-2,0,-3,-1,1,-4,0,-4
109016372142,-3,-1,-1,6,14,-6,1,2
109016372142,0,-1,-1,1,14,2,-4,0
109016373740,1,-1,0,-1,-20,3,4,2
109016373740,-2,-2,-3,1,12,1,-1,-1
109016396042,-3,-2,1,-1,-15,-1,-3,-2
109016396042,-1,3,1,1,15,0,-1,0
109016397654,-2,1,0,-11,-20,-5,-1,-1
109016397654,-1,-3,0,-2,-5,-3,-5,-4
109016409535,1,-1,-1,4,14,-2,0,4
109016409535,-2,-4,-2,-2,-6,-2,3,0
109016417322,-1,-2,-2,-6,-9,3,-2,0
109016417322,-1,1,-2,0,10,-3,-2,-2
109016432129,1,1,1,-4,-13,3,0,-1
109016432129,-1,-2,-5,-3,9,-4,-3,0
109016433733,-2,-1,-3,-4,-13,-4,0,0
109016433733,-3,-3,0,-2,0,-4,-3,-4
109016454681,2,1,-2,8,6,-5,-4,0
109016454681,-1,-1,-1,-2,-10,-2,1,-2
109016456439,-2,-1,-2,0,-4,-3,0,0
109016456439,0,2,0,0,4,4,-2,-2
109016469016,-2,-3,0,-4,-1,-2,-1,0
109016469016,1,2,2,1,12,-3,-3,-3
109016475770,0,-2,-7,-10,-31,1,4,-3
109016475770,0,-2,-2,0,-16,-5,-1,-1
109016492107,0,0,3,11,18,12,1,0
109016492107,-2,-2,-2,-7,-17,0,-1,0
109016493727,-1,1,1,-2,1,-6,-3,-1
109016493727,1,-1,-3,-4,0,-2,0,-2
109016514844,-2,0,-1,-2,-7,0,-1,0
109016514844,3,3,0,3,7,6,1,-4
109016516470,-2,-5,1,1,2,-3,-1,0
109016516470,-1,-1,-1,2,2,-2,-3,0
109016529012,-1,0,-3,-3,5,-3,-3,-1
109016529012,-4,-4,-4,-2,6,2,1,2
109016535788,-2,2,-1,2,0,0,-1,-3
109016535788,0,4,2,0,1,3,2,-3
109016552115,-3,-3,-2,-5,1,1,0,-4
109016552115,1,0,-1,0,-1,-3,-4,1
109016553727,0,-2,-1,1,-4,-2,2,1
109016553727,-2,-2,-1,0,8,-1,-4,0
109016574698,1,2,1,-4,-15,0,-1,-1
109016574698,-1,-2,0,12,21,-2,-1,1
109016576339,-3,-2,-3,-2,14,-3,-2,-2
109016576339,-1,1,4,3,-8,2,0,0
109016588983,1,-2,-4,-7,-9,-2,1,0
109016588983,-1,-1,-2,-6,-6,1,0,-2
109016595803,-1,-2,0,4,14,1,-2,-2
109016595803,-1,-1,-3,2,-19,1,0,-2
109016612233,1,-2,-1,-5,7,-1,0,-1
109016612233,-3,-1,1,4,-7,-4,-1,-1
109016613839,-1,-1,-3,-5,-6,-1,0,1
109016613839,0,0,-2,-4,5,3,-1,-1
109016635322,-3,-2,-1,2,-8,-5,-3,-1
109016635322,-2,-2,0,-1,2,-1,-2,-1
109016636870,1,2,3,-2,-7,-3,1,-1
109016636870,0,-2,0,2,4,-1,-2,-2
109016648331,-1,-2,0,-5,0,0,-4,1
109016648331,0,1,2,-2,-1,0,3,0
109016657492,-2,-4,-2,1,-1,0,2,0
109016657492,-3,-1,-2,-3,5,6,-1,0
109016671940,-2,0,-2,3,0,-1,-1,-1
109016671940,-1,0,-1,-6,-7,-1,-4,0
109016679768,-1,0,0,-2,-5,-1,-5,-3
109016679768,0,1,2,-1,10,-4,1,-1
109016694648,-1,-2,-1,1,-1,0,1,-1
109016694648,0,0,0,-7,-10,3,-3,-1
109016696285,-1,-3,-4,4,-1,0,1,0
109016696285,-1,-1,1,5,7,-3,-5,1
109016708474,1,-1,0,-5,8,3,7,-1
109016708474,-1,-2,-2,5,2,-8,-2,-2
109016723454,-3,-3,-3,-4,-12,-1,-1,-1
109016723454,1,1,1,1,-8,-4,-2,0
109016732136,-3,0,-3,3,8,-1,-4,0
109016732136,-2,-1,0,-2,-5,1,0,0
109016733724,-1,-3,-3,-4,4,0,-2,-2
109016733724,-2,-3,-4,-4,-4,-1,-2,-2
109016754690,0,-1,1,2,-3,2,-1,0
109016754690,1,0,1,-1,4,2,0,0
109016756354,-1,-2,0,1,-9,-2,-2,0
109016756354,0,0,-1,0,3,1,1,0
109016768350,0,-2,-3,0,2,-3,-2,-1
109016768350,-2,-1,0,-1,-1,2,-2,0
109016777312,1,1,1,-2,3,-3,3,-1
109016777312,0,-3,-1,-3,6,2,0,2
109016792136,-1,-2,-3,-4,0,-5,-4,-3
109016792136,0,0,-2,3,-3,0,-1,-2
109016793736,-2,-2,-1,-2,3,3,-2,-2
109016793736,0,1,3,-1,4,-1,1,-2
109016814702,-2,-1,-1,1,-6,-5,-1,-1
109016814702,0,-2,-2,-3,-1,2,-1,0
109016816371,1,3,1,1,5,0,1,1
109016816371,-1,-1,-1,0,2,0,-2,-3
109016828381,0,0,2,3,-2,3,0,0
109016828381,-1,-2,0,-2,-3,-2,0,-1
109016837315,0,0,-1,1,-1,-2,-2,0
109016837315,-1,-1,1,-1,0,0,2,0
109016852127,0,2,1,-2,-3,-2,-1,0
109016852127,-1,-1,-2,-1,2,-1,1,0
109016853747,-2,-2,-3,-2,-9,-1,-3,-2
109016853747,0,-2,-1,-2,9,1,-1,-1
109016874795,-2,-3,0,2,1,-3,0,-1
109016874795,0,1,0,0,1,4,-1,-1
109016876460,-2,1,1,0,0,2,-2,0
109016876460,-1,1,-4,-3,2,2,0,-2
109016888326,0,-1,2,0,-8,0,-3,-1
109016888326,0,-1,0,0,-7,-2,0,-1
109016897287,0,-3,-2,-5,0,0,-1,-1
109016897287,1,0,3,10,3,3,0,0
109016912316,1,-1,-2,-4,-3,1,-3,-1
109016912316,1,2,-1,0,0,-1,-1,-1
109016913933,-2,-1,1,2,-2,0,0,0
109016913933,-2,-3,-4,-3,-3,-4,-2,-1
109016934900,-2,0,-3,-4,0,-1,0,-2
109016934900,-2,-3,-4,3,-3,0,-2,0
109016936318,0,0,-2,-2,3,1,-2,-3
109016936318,0,-2,0,0,-5,-4,1,1
109016948302,0,-2,2,0,1,-3,-1,0
109016948302,-3,0,-2,-2,5,0,-1,-2
109016957269,0,-2,-1,-1,-4,-2,-3,-2
109016957269,-1,0,-2,0,-3,1,-2,-1
109016972292,-1,2,2,0,0,-1,-2,0
109016972292,-1,-4,-2,-6,1,-2,-1,-1
109016973920,-1,-1,-1,2,1,4,0,0
109016973920,-1,-1,-2,-2,-6,-4,-1,-3
109016994445,0,-2,-3,0,2,1,-1,-2
109016994445,2,0,2,2,-4,-4,0,-1
109017000825,1,1,2,-2,-1,0,-2,0
109017000825,0,-4,-4,-4,1,-1,0,-1
109017008295,-2,-3,-5,-1,-5,-1,-1,-1
109017008295,0,0,1,1,-3,0,-2,0
109017023334,1,0,-1,0,1,-6,0,1
109017023334,-1,-3,-1,-3,-4,3,-2,-2
109017032313,-2,-2,0,-1,0,-3,-2,-2
109017032313,0,0,-3,-6,0,0,2,0
109017033794,-3,1,-1,2,0,-1,-1,-1
109017033794,0,3,1,1,2,-1,-2,0
109017054788,0,-3,0,1,0,2,1,-1
109017054788,-2,-2,0,0,1,1,-1,-1
109017058029,0,-4,-2,-3,-6,-1,0,0
109017058029,-2,1,-2,-3,0,-5,-1,-2
109017077349,2,1,2,3,0,1,0,0
109017077349,-2,0,-2,-1,-2,-1,-1,-1
109017078948,-2,-3,-3,-2,-3,-1,0,-1
109017078948,-1,-2,0,0,-2,0,0,-1
109017092190,-1,0,1,-2,0,-2,-3,-1
109017092190,0,-2,-4,-2,2,-6,-1,-2
109017093743,1,3,1,2,-1,-2,-1,-1
109017093743,0,-3,-1,-4,-1,0,0,-2
109017114638,-2,-2,-2,-2,0,1,0,-1
109017114638,-3,0,-1,-4,-5,-2,-2,-2
109017116305,-1,0,-1,-1,1,-2,-2,0
109017116305,-1,-1,-3,0,-1,-4,-2,-1
109017136996,1,0,0,1,-8,0,0,1
109017136996,-1,0,2,-3,-1,0,2,-1
109017143292,1,0,-1,2,2,6,-1,0
109017143292,-2,-1,-2,-2,0,-1,-2,1
109017152584,-4,-2,-5,0,3,1,-2,-1
109017152584,1,1,-1,-4,-3,-4,-3,0
109017158305,0,-4,2,0,-2,-1,0,-1
109017158305,-1,2,-1,1,1,-1,0,-2
109017174915,-2,-1,2,-2,0,-11,-2,-2
109017174915,0,-1,-2,-5,-1,1,-1,-1
109017176432,0,0,-1,0,1,-2,-1,0
109017176432,-1,-4,-1,-3,-7,-2,0,0
109017197155,-2,-1,-2,-2,1,-4,0,-1
109017197155,0,0,1,2,1,0,-2,1
109017198780,-1,-2,-2,-2,1,-2,0,-1
109017198780,0,0,1,1,-1,2,-1,1
109017210816,0,0,1,-1,-4,2,0,-2
109017210816,-1,-4,-1,0,-2,-2,-1,-1
109017219824,2,0,-1,1,1,0,-1,1
109017219824,-1,-3,-6,0,-3,0,0,-1
109017234785,-1,-1,-3,-4,-1,5,2,-1
109017234785,-2,0,-2,-2,0,0,-3,-1
109017236300,-2,1,1,1,-2,-4,1,-2
109017236300,1,1,3,-3,0,-1,-3,-2
109017256383,2,1,3,1,1,-2,-3,-1
109017256383,-1,-3,-2,3,0,0,1,-1
109017265478,-4,-3,-4,-6,-2,-1,-1,-2
109017265478,-1,-2,-2,2,1,0,1,1
109017271513,-2,-1,0,-4,1,3,1,-2
109017271513,0,1,2,3,1,-3,-4,-1
109017278505,2,0,0,-2,-1,2,-1,0
109017278505,1,1,1,6,0,-1,0,0
109017294668,-4,-3,-6,-1,-1,-2,-1,-2
109017294668,-2,-1,-1,-1,-1,-2,-1,-2
109017296319,0,0,-1,-1,4,-4,-1,-3
109017296319,0,0,1,0,-5,1,0,-2
109017317248,1,1,0,-1,0,0,0,0
109017317248,-1,-2,-4,1,-1,5,2,0
109017318807,-3,-1,-1,-1,-3,-3,-1,-3
109017318807,-4,-1,-2,-3,3,0,-1,-1
109017331543,1,0,1,1,-1,2,0,0
109017331543,1,-1,0,-6,-1,-2,-1,-1
109017338351,1,0,-2,0,-1,-2,-3,-1
109017338351,-1,0,4,1,-2,4,-1,0
109017354646,-1,-3,-7,-2,-1,-3,0,-1
109017354646,-1,0,1,-5,0,4,1,0
109017356291,-2,0,0,4,-3,0,-3,-2
109017356291,1,1,-1,-3,3,-2,0,-2
109017377396,0,-1,2,0,-1,0,-1,-1
109017377396,1,-2,1,0,-1,-6,-1,-1
109017378968,0,-2,-2,-2,3,0,0,2
109017378968,-1,-2,-2,-1,-6,2,1,-1
109017391557,-1,-1,-2,1,1,-2,0,-1
109017391557,0,-1,0,-2,-2,0,-1,-1
109017399025,0,-3,-1,-2,0,0,-1,0
109017399025,0,2,-3,0,1,-4,-4,1
109017413962,-3,-4,-5,-1,1,-1,0,-1
109017413962,-3,-1,-2,-2,-3,-1,-2,-2
109017414732,-1,0,2,-7,-2,3,-1,-1
109017414732,-1,-2,-3,4,3,-1,-3,-2
109017436528,-1,2,2,-1,-2,-2,0,0
109017436528,-1,-3,-1,1,0,-2,1,1
109017437309,-1,1,0,-2,1,2,-1,0
109017437309,-1,-5,-1,-2,-1,-3,-3,-1
109017450841,0,-1,-1,0,0,-5,-1,-1
109017450841,-3,-1,-2,-1,2,3,1,-2
109017459024,0,-1,-1,-1,-6,-5,-1,-2
109017459024,-2,-1,-1,-2,-1,1,0,0
109017482237,-1,2,1,1,0,1,-2,0
109017482237,-1,-2,1,1,1,0,-3,-1
109017483008,-1,-1,0,-2,0,3,0,0
109017483008,-1,0,-1,0,3,-3,0,0
109017496636,-1,-2,-4,-2,-3,-2,-2,-1
109017496636,-1,-1,0,1,0,1,1,-1
109017497318,-1,1,1,1,0,0,-1,-1
109017497318,2,0,0,0,0,-1,-1,-1
109017510828,-1,3,1,-2,-1,0,-3,0
109017510828,-1,-4,-3,-2,-1,0,-2,-1
109017519050,-2,-5,-8,-2,-6,-6,-2,-2
109017519050,-1,-1,-1,-4,-1,-3,-2,-2
109017534027,1,0,0,1,-1,0,-1,-1
109017534027,1,2,1,-2,1,-3,-3,-2
109017534800,0,-2,-3,5,1,4,0,-3
109017534800,0,-2,-2,-7,-3,-1,-2,-1
109017556476,1,-2,-2,-5,-3,-2,-2,-3
109017556476,1,0,0,5,-1,2,1,1
109017557298,-2,0,-1,-2,0,-2,0,-1
109017557298,-2,0,-1,-1,0,-4,-1,0
109017570795,0,-3,1,-3,-1,1,2,0
109017570795,1,0,1,-2,2,2,-1,-1
109017579175,-2,-3,-1,-2,-6,-1,-1,2
109017579175,1,-1,0,1,6,0,-1,0
109017594123,0,-1,2,-1,-2,1,-1,0
109017594123,-3,-3,-8,-1,-4,0,1,-1
109017594793,-1,0,1,-1,1,-4,1,-1
109017594793,0,1,-1,0,-3,0,0,-1
109017616514,-1,-2,-3,0,1,1,0,0
109017616514,1,0,0,0,-2,-4,-1,-1
109017617281,1,1,-1,2,1,1,-1,0
109017617281,-1,0,1,-1,-3,-2,0,0
109017631059,0,-1,-3,1,0,0,0,-1
109017631059,-1,-4,-3,-2,-3,-1,-1,-2
109017639051,0,1,-2,-6,-4,-1,-1,0
109017639051,-1,0,1,3,0,-3,-2,-1
109017654009,-3,1,-1,0,-2,2,1,0
109017654009,-2,-1,1,-1,0,-4,-3,-1
109017654796,1,-1,2,2,3,0,0,0
109017654796,-1,0,-2,-2,-6,-2,-2,-1
109017676546,-1,-3,-3,-2,-4,-7,-4,0
109017676546,0,1,1,4,7,6,2,-2
109017677337,1,1,3,1,-6,1,2,0
109017677337,-2,-1,0,-2,-5,-1,1,-1
109017690895,-3,-1,-2,-2,1,-1,-3,-1
109017690895,-2,-1,1,0,-4,-4,-3,0
109017699153,-2,-2,-4,-1,1,1,-1,0
109017699153,1,-1,1,2,2,2,2,0
109017713985,2,0,2,-3,-5,0,-1,1
109017713985,-1,-1,-4,0,-1,-3,-2,1
109017714773,-2,-1,-4,-2,-2,-2,-2,-1
109017714773,0,-1,-4,2,3,4,-1,-2
109017736561,-1,-1,1,1,-3,2,0,-2
109017736561,0,-4,-5,1,1,-4,-2,0
109017737433,0,0,3,0,-2,-4,-3,-3
109017737433,1,0,0,-2,-2,-1,-1,0
109017751038,0,-3,-1,0,2,1,0,-1
109017751038,1,1,2,-3,-1,0,0,0
109017759070,0,1,-4,-7,0,0,-2,0
109017759070,-1,0,-1,2,-1,-3,0,0
109017774035,1,-1,-1,1,0,-3,-2,-2
109017774035,-1,2,0,-3,0,1,1,1
109017775751,-1,-4,0,-2,0,1,0,-2
109017775751,0,-2,-2,-3,3,3,0,1
