timestamp,x,y,z
109000433310,0.9375,6.875,-1.75
109000449837,-0.9375,7,-2.5
109000472365,-5.1875,4.375,-2.1875
109000486690,-1.4375,1.125,-1.625
109000509758,0,0.25,-1.5
109000532296,-0.5625,0.5625,-0.6875
109000553432,0.1875,2.125,1
109000569802,-1.0625,4.375,1.125
109000592365,-3.1875,4.375,-0.75
109000613428,-5.75,3.75,-1.125
109000630382,-7.625,4.75,-0.6875
109000652383,-7.5625,2.25,-1.5
109000673480,-5.875,2,-1.6875
109000689884,-4.125,1.9375,-0.375
109000712360,-1.1875,0.9375,-0.4375
109000733445,-1.625,-0.125,-1
109000749820,-0.6875,-0.5625,-0.3125
109000772366,3.125,-0.25,0.375
109000793549,2.6875,0.25,0.375
109000809819,0.875,0.0625,0.5625
109000832322,0.0625,0.125,0.75
109000853478,-1.5625,3.8125,2.1875
109000869746,-3.5,7.375,1.5
109000892773,-0.25,4.3125,-0.875
109000913462,2.6875,0.0625,-3.125
109000929848,6,-0.0625,-1.9375
109000952345,5.3125,1.75,0.8125
109000974792,3.75,1.875,1.125
109000989799,-1.625,0.8125,-0.5
109001012341,-5,0.625,-0.75
109001034793,-4.5,1.1875,0.75
109001049826,-0.875,2.25,0.5625
109001072314,-0.875,2.5,0.1875
109001094827,-2.6875,1.75,-0.25
109001109172,-3.6875,0.4375,-0.875
109001132308,-3.8125,-0.6875,-0.6875
109001154794,-1.0625,-1.875,0.0625
109001169128,1.8125,-3.25,-0.3125
109001192358,4.625,-2.9375,-0.1875
109001214862,5.5,-0.375,0.625
109001229150,0.9375,1.6875,1.25
109001259852,-2.8125,0.4375,-0.375
109001274821,-4.3125,-0.3125,-1.875
109001289169,-2.875,-0.3125,-0.9375
109001312367,-1.0625,-0.5625,0
109001334844,0.875,-0.8125,0.9375
109001349184,3.375,-0.1875,0.1875
109001372324,1.1875,0.875,-0.5625
109001394816,-1.875,0.25,-0.125
109001409179,-0.9375,-0.5625,-0.25
109001432343,-0.0625,-0.9375,0.25
109001454871,0.25,-1.375,1
109001475962,0.9375,-4.1875,1.0625
109001492374,-2.75,-7.9375,0.25
109001514772,-3.3125,-8.8125,-1.1875
109001536026,3.1875,-5.9375,1.5625
109001552304,1.1875,-4.1875,3.4375
109001574883,-6.5,-7.25,1.5625
109001596007,-6.0625,-10.25,-1.625
109001612386,1.875,-9.6875,-0.4375
109001634863,8.125,-5.4375,2.6875
109001655736,6.3125,-5,2.75
109001672421,1.8125,-9.6875,-2.3125
109001694891,7.375,-12.8125,-3
109001715931,15.0625,-12.125,-2.0625
109001739899,11.125,-9.3125,-0.5625
109001754852,10.25,-7.3125,2.0625
109001775966,7.6875,-5.3125,0.8125
109001792402,2.6875,-3.125,1.625
109001814901,-0.625,-0.75,2.25
109001835954,-2.0625,-1.8125,2.3125
109001852342,-6.0625,-3.625,0.5625
109001874840,-2.375,-6,-0.6875
109001897357,1.0625,-4.3125,-1.125
109001912361,3.875,-1.8125,0.625
109001934922,3.875,-0.125,1.4375
109001957452,0.9375,2.1875,1.5625
109001972391,-3.5,1.1875,1.4375
109001994927,-8.875,-3.0625,1.8125
109002017314,-8.3125,-6.25,1.25
109002031630,0.8125,-5.625,0.6875
109002054817,8.9375,-1.5,2.625
109002077483,8.6875,2.25,2.125
109002091741,8.375,3.875,0.1875
109002114840,6.625,9.1875,-1.625
109002137375,10.75,14.625,-2.375
109002151776,5.8125,16.375,-5.0625
109002174874,-8.6875,14.4375,-2.6875
109002197405,-14.0625,11.0625,-0.1875
109002211715,-3.125,6.9375,2.375
109002234877,4,3.0625,1.5
109002257345,1.625,1.9375,-2
109002271765,-3.375,1.1875,-3.4375
109002294833,-0.4375,1.5625,-2.3125
109002317378,1.4375,2.625,-0.875
109002331692,-1.3125,2.875,-0.375
109002354846,-4.0625,1.3125,-0.25
109002377394,-6.0625,0.6875,-1
109002398534,-4.125,1.375,-0.3125
109002414878,1.1875,2.5,0.125
109002437349,0.1875,3,0.5625
109002458630,-1.5625,2.375,-0.75
109002474906,-3.9375,1,-1.4375
109002497345,-3,0,-0.9375
109002518566,1.5625,0.8125,-0.625
109002534942,1.6875,2.625,-0.125
109002557428,-0.3125,2.75,-0.25
109002578443,-1.875,2,-1.25
109002594891,-0.5,0.5625,-0.8125
109002617399,0.875,-0.6875,-1
109002638608,-0.25,-0.5,-0.375
109002654867,-0.1875,0,0.25
109002677416,1.3125,-0.25,-0.375
109002698632,1.1875,-0.375,-0.375
109002714895,1.6875,-0.0625,-1.25
109002737339,0.1875,-0.1875,-0.5625
109002758590,-0.4375,0.1875,-0.1875
109002774936,0.1875,0.4375,0
109002797367,-0.3125,0.1875,-0.9375
109002818596,-1.4375,-1.9375,-1.5625
109002834249,1.125,-2.75,-1
109002857387,4.1875,-2,0.3125
109002879923,3.9375,-1.5625,-0.1875
109002894878,2.4375,-1.125,-0.5
109002917399,1.6875,-0.5625,-0.5
109002939875,0.8125,-1.0625,-0.4375
109002954854,-1.125,-1.875,-0.9375
109002977432,-0.875,-2.125,0.0625
109002999918,1.75,-1.4375,0.5625
109003014320,3.75,-0.8125,-0.1875
109003037428,2,-1.375,-0.375
109003059916,2,-0.375,0.75
109003074224,4.9375,0.0625,1.25
109003097364,7.9375,0.4375,0.6875
109003127375,10.6875,-0.0625,1.0625
109003134213,9.125,-0.625,1.6875
109003157450,3.8125,-2.3125,1.1875
109003179914,2.625,-3.9375,0.75
109003194323,2.9375,-3.9375,0.8125
109003217448,5.8125,-3.625,1.25
109003239922,8.25,-3.5,1.5
109003262390,10.625,-2.9375,1.1875
109003277395,13.5625,-3.5,2.3125
109003299920,15,-6.9375,1.9375
109003321024,16.75,-11.8125,0.8125
109003337427,15.9375,-15.6875,-0.1875
109003359873,16.0625,-16.9375,2.25
109003381041,18,-15.3125,2.375
109003403616,16.6875,-13.625,1
109003419962,11.3125,-12.125,-2.5
109003440983,4.1875,-9.875,-2.875
109003457395,-1.75,-5.9375,-3.125
109003479969,-4.375,-2.4375,-2
109003500983,-6.8125,-1.0625,-1.5
109003517420,-11.75,-0.75,-2.3125
109003539925,-14.6875,0.375,-2.625
109003561060,-14.25,3.125,-2.25
109003577467,-15.1875,3.9375,-1.6875
109003599958,-16.8125,3.5625,-2.5
109003620957,-18.125,2.0625,-4.3125
109003637442,-16.625,1.3125,-5.25
109003659924,-12.125,2.9375,-3.9375
109003682445,-10.0625,3.875,-2.1875
109003697488,-9.0625,2.75,0.75
109003719978,-10.875,7.3125,4.3125
109003741089,-0.6875,7.625,6.8125
109003757442,-2,7.9375,6.6875
109003779983,-21.8125,8.5625,5.8125
109003802438,-27.75,10.25,6.25
109003816795,-26.5,12.125,5.0625
109003839995,-33.125,14.1875,2.3125
109003862474,-42.625,10.5,-0.375
109003876752,-44.625,8.1875,3.0625
109003900065,-33.75,6.75,3.9375
109003922415,-23.375,5,6.125
109003936772,-17.375,3.8125,6.375
109003960389,-17.1875,4.1875,4.25
109003982443,-14.875,7.4375,3.1875
109003996770,-13.4375,13.8125,2.875
109004020005,-9,17.8125,2
109004042443,-17,14.625,-1.0625
109004063641,-10.0625,4.5625,-1.6875
109004079914,1.625,5.1875,0.5625
109004102419,3.375,-4.3125,0.0625
109004123490,-5.9375,-15.3125,2.25
109004139929,-1.3125,-25.8125,1.3125
109004162385,17.1875,-22.1875,-2.5625
109004183490,36.625,-10.5625,-1.125
109004199684,33.1875,-4.1875,-1.9375
109004222439,16,-10.5625,-5.875
109004244935,14.5,-16.125,-6.125
109004259934,29.125,-16.0625,-4.9375
109004282416,35.0625,-17,0.25
109004303400,29.5,-19.875,2.3125
109004310293,25.6875,-20.6875,2.75
109004325321,23.8125,-16.875,4.25
109004347809,20.3125,-12.1875,6.6875
109004370336,14.625,-9.375,6.375
109004385301,11.25,-7.875,4.8125
109004407806,4.1875,-6.0625,1.25
109004439248,-2.4375,-3.125,-1.0625
109004445292,-1.0625,1.5625,-0.9375
109004467825,3.375,7.3125,0.1875
109004490378,2.4375,9.875,0.0625
109004512827,-0.4375,8.5,-1.5625
109004528008,-3.25,6.6875,-3.0625
109004550335,-3.6875,5.875,-1.6875
109004565356,2.8125,5.5,0.875
109004587868,5.6875,5.125,2.0625
109004610339,2.0625,2.25,1.4375
109004625503,-3.125,-1,0.0625
109004647845,-0.875,-3.0625,-0.6875
109004670394,7,-3.625,1.125
109004685367,14.6875,-3.5,3.9375
109004707819,16.5625,-3.5,2.9375
109004730520,7,-4.375,-0.9375
109004745335,0.625,-4.5,-5.6875
109004767801,-3,-5,-6.8125
109004791820,2.125,-5.875,-5.1875
109004805310,6.6875,-4.125,-5.1875
109004827898,9.9375,-4.375,-6.4375
109004850328,11.625,-1.5625,-9.375
109004865346,9.625,2.0625,-15
109004888047,8.125,3.625,-20.3125
109004910330,10.5625,0.75,-25.875
109004925377,17.4375,-5.8125,-23.3125
109004950743,35.125,-19.875,-15.9375
109004970395,49.125,-39.25,-5.3125
109004985328,38.4375,-63,23.4375
109005007887,80.0625,-75.6875,19.25
109005030505,100.438,-74.625,46.9375
109005046087,64.125,-91.9375,54.1875
109005067817,3.875,-109.25,44
109005090381,-39.1875,-115.688,41.8125
109005105336,-48.5625,-119.562,45.0625
109005127880,-25.5,-119.625,46.375
109005150397,-1.0625,-116.25,50.75
109005165342,14.5625,-113.938,51.75
109005187868,19.4375,-111.25,46.6875
109005210365,23.0625,-104.188,39.1875
109005225358,25.9375,-91.375,29.9375
109005248583,29.5625,-75,15.1875
109005270349,30.875,-57.9375,-6.6875
109005285507,31.9375,-36.1875,-35.625
109005307857,43.625,-9.1875,-62.625
109005330361,48.25,17.1875,-89.1875
109005346959,52.5625,47.9375,-111.188
109005367847,47.875,92,-133.375
109005390572,70.875,145.5,-167.875
109005406871,75.8125,176.562,-205.188
109005427934,54.4375,174.875,-193.125
109005450512,77.625,148.875,-139.812
109005466809,65.875,111.5,-101.625
109005487950,11.125,58.25,-74
109005510354,-59.0625,12.3125,-29.8125
109005526853,-50.25,-13.5,19
109005548061,-6.6875,-31.75,40
109005570458,-9.5625,-46.5,56.6875
109005588488,-48.875,-62,70.625
109005607881,-70.875,-80.8125,79.5
109005630362,-69.4375,-94.875,92.6875
109005648477,-60.5625,-100.562,103.625
109005667836,-68.5,-106.188,113.5
109005690509,-87.75,-111.562,118.812
109005708515,-94.5625,-114.875,115.188
109005727857,-82.375,-108.938,105.5
109005750407,-63.75,-102.812,94.875
109005768330,-37.25,-83,80.8125
109005788036,-19.75,-64.3125,66.4375
109005810448,-8.0625,-50.1875,45.3125
109005828294,-7.375,-30.875,24.25
109005848043,-7.875,-9.4375,9.5625
109005871117,-4.8125,15.625,-3.4375
109005893718,-1.625,36.1875,-12
109005907877,11.3125,50.5,-23.1875
109005930436,23.375,48.1875,-32.125
109005945564,35.5625,42.5625,-39.9375
109005967886,27.75,34.6875,-41.125
109005990479,28,26.4375,-43.1875
109006005371,31.375,23.5,-39.4375
109006027886,36.75,26.3125,-33.6875
109006059349,24.625,26.25,-29.875
109006065413,12.125,20.9375,-28.25
109006088497,-1.375,19,-22.5
109006110650,-1.6875,14.5625,-15.4375
109006125403,-0.4375,8.625,-7.9375
109006147961,5.0625,4.6875,-3.0625
109006170394,1.4375,1,-1.75
109006185406,-16.4375,-0.5,1.375
109006208001,-16.875,-0.125,-0.3125
109006224338,-11.6875,-1.75,0.1875
109006245330,-7.0625,-1.75,1.375
109006267897,-1.5,-2.625,-0.875
109006284346,-6.1875,0.5625,0.0625
109006305482,-5.9375,-0.0625,-2.125
109006327883,-8.1875,3.5,-1.5625
109006344347,-2.4375,1.625,-3.4375
109006365540,-4.3125,2.4375,-1.625
109006387914,3.75,2.3125,-5.375
109006404334,-0.0625,1.625,-2.9375
109006425379,1.9375,3.875,-4
109006447889,-2.1875,2.5,-2.3125
109006464427,2.5625,5.125,-5
109006486834,3.125,1.625,-3.625
109006508060,-1.25,4.75,-2.5625
109006524457,0.0625,3.125,-4.5625
109006546860,0.5625,8.5625,-5.6875
109006567896,0.8125,2.5,-2.3125
109006584406,1.625,2.75,-1.875
109006606850,0.8125,1.5625,-2.625
109006628197,-3.4375,0.6875,-2.9375
109006644364,-4,-0.25,-1.5
109006666858,-2.5625,-0.6875,-0.625
109006687944,-1.25,-0.625,-0.375
109006704373,-4.5625,-1.25,-1.1875
109006734417,-6.6875,-1.625,-1.5
109006747931,-4.5625,-0.625,-0.3125
109006765876,-1.25,0.125,0.4375
109006787548,-1.9375,0.5625,0.6875
109006810033,-3.875,0.3125,0.375
109006824439,-4.75,-1,-0.375
109006847565,-5.125,0.0625,-0.3125
109006870078,-2.5625,0.5,0.625
109006884416,1.625,2,0.375
109006907542,-0.9375,2.125,0.3125
109006930074,-2.8125,2.125,-0.75
109006944397,-2.5,1.9375,-0.8125
109006967597,-1.6875,2.3125,-0.625
109006990092,-0.5,2.375,-0.1875
109007011107,-0.5625,2.0625,-0.625
109007027571,-1.875,1.25,-1
109007050078,-2.25,1.5,-1.25
109007064396,-1.75,2,-0.5625
109007087592,1.125,1.6875,-1
109007110032,1.375,0.75,-1.3125
109007131238,1,1.4375,-1.5625
109007147521,-0.75,2.0625,-1.375
109007170024,0.5625,2.5,-1.5
109007191223,-0.5,1.875,-1.25
109007207509,0,1.9375,-1.25
109007230055,0.0625,1.4375,-1.125
109007251120,-0.375,1.6875,-1.0625
109007268657,-0.25,0.875,-1.5
109007290131,-0.4375,0.125,-1.6875
109007312517,0.0625,0.5,-1.0625
109007327572,1.375,0.6875,-1.3125
109007350012,1.4375,0.8125,-0.4375
109007371116,1.0625,0.8125,0.25
109007387595,0.5625,0.875,-0.1875
109007410015,-1.75,0.75,0.3125
109007431184,-3.375,0.8125,0.125
109007447619,0.125,0.8125,0.25
109007470067,3.375,0.75,0.9375
109007491209,5.4375,2.75,1.3125
109007507557,1.1875,3.4375,2.3125
109007530069,-0.4375,2,0.75
109007552554,-2.25,1.1875,-0.9375
109007567505,-6.0625,1.6875,-0.625
109007590027,-3.375,2.6875,0.1875
109007612589,0.625,2.9375,0.9375
109007626928,2.5625,3.25,1
109007650079,4.75,4,0.25
109007672568,5.875,3.125,-0.25
109007687603,4.1875,1,-0.5625
109007710109,-3.5625,1.125,-1.25
109007732574,-6.5,1.5625,-0.8125
109007746920,-2.125,2.3125,-0.8125
109007770515,2.875,2.1875,2
109007792592,0.4375,2.125,5
109007806918,-2.6875,0.75,3.5625
109007829998,-2.6875,-0.625,2.375
109007852661,-2.9375,-0.5,1.9375
109007866955,-5.4375,-0.6875,2.125
109007890030,-2.125,-0.4375,1.75
109007912583,0.8125,0.3125,2.25
109007926915,2.3125,2.1875,2.125
109007950107,2.25,1.875,-0.0625
109007972603,-2.25,1.8125,-1.1875
109007986928,-5.625,2.9375,-0.75
109008010162,-3,3.125,-0.9375
109008032645,0.6875,2.875,-1.25
109008046971,2.125,2.375,-1.8125
109008070097,2.125,2.0625,-1.6875
109008092610,1.375,1.5625,-1.6875
109008121132,-0.25,1.75,-0.75
109008130047,-3.4375,0.9375,-1.3125
109008152697,-0.4375,0.875,-2.375
109008173667,3.6875,1.875,-2
109008191839,1.5,2.25,-0.4375
109008212612,-1.6875,2.0625,-0.5625
109008233666,-2.125,1.375,-1.75
109008250151,-1.9375,1,-2.5625
109008272621,-1.0625,1.8125,-2.4375
109008293376,-1.0625,2.4375,-1.1875
109008310058,-1.625,2.125,-1.875
109008332580,-1.875,1.125,-2.5625
109008353802,-0.875,2.125,-2.4375
109008370572,1.3125,3.25,-3.5
109008394788,-1.5625,2.5625,-3.9375
109008413804,-1.8125,2.9375,-3.375
109008430081,-3.1875,2.3125,-2.1875
109008452620,-0.4375,1.25,-2.3125
109008473668,2.375,0.8125,-2.25
109008496124,3.5,1.4375,-1.25
109008512650,1.375,2.125,-1
109008535102,-2.5625,0.0625,-0.6875
109008550163,-6.5,-1.875,-1.1875
109008572692,-1.1875,-0.8125,-3.75
109008596333,7.875,0.3125,-3.6875
109008610197,2.4375,1.5,-1.1875
109008632596,-1.1875,-1,-0.375
109008655045,-3.625,0.9375,-1.375
109008676159,-6,1.875,-1.125
109008692624,3,-0.4375,-1.9375
109008715164,6.0625,-2.1875,-5.875
109008729484,3.3125,-1.8125,-2.6875
109008752632,8.125,5,6.6875
109008775149,1.1875,6.0625,6.1875
109008789463,-7.1875,-15.1875,-0.25
109008812728,-11.3125,-30.8125,-16.25
109008835104,-18.375,-12.4375,-4.4375
109008856388,28,-4.875,10.1875
109008872751,47.625,-4.375,-3.3125
109008895097,7.0625,-7.25,-3.5
109008916304,-29.8125,-10,-8.8125
109008932651,-28.6875,-8.25,-6.25
109008955183,11.3125,-4.375,-1.375
109008976208,38.875,-2.4375,-1.375
109008992590,16.875,-0.625,-1.9375
109009015170,-14.75,-0.8125,-1.125
109009036147,-18.75,-0.875,-2.5
109009052628,-4.3125,-1.9375,1.375
109009082582,12.375,-1.0625,1.0625
109009096169,15.625,0.875,1.5625
109009112812,4.8125,2.9375,0.6875
109009135141,-12.1875,1.25,-0.6875
109009156305,-13.1875,0.875,-1.125
109009172695,-4.1875,-1.875,-4.1875
109009195511,12.625,-3,-7.125
109009216399,24.3125,3.4375,-3.6875
109009232690,22.375,0.6875,1.375
109009255161,29.3125,-4.75,-3.75
109009277717,3.75,11.1875,1.3125
109009292638,-20.4375,20.6875,11
109009315218,-30.375,21,6.9375
109009339068,-30.0625,24.4375,6.8125
109009351930,-17.875,25.9375,7.125
109009375235,-14.5625,21.6875,8.375
109009403725,-7.875,21.3125,9.4375
109009411943,-5.875,18.125,8.75
109009435185,-4.9375,15.9375,6.625
109009457705,2.1875,10.75,4.9375
109009478851,12.125,8.875,5.5
109009495166,21.25,6.875,4.375
109009517627,25.5,5.3125,2.8125
109009538777,29.0625,6.75,2.5
109009555145,32.3125,10.875,0.625
109009583764,26.9375,11.375,-2.1875
109009592020,18.8125,11.5,-1.875
109009615535,15.125,13,-0.875
109009637728,16.5625,14.4375,-2.1875
109009651967,19.5,14.75,-4.1875
109009675278,16.5625,15.875,-1.1875
109009697657,12.875,16.8125,1.375
109009711944,10.9375,17.8125,3.6875
109009735230,9.3125,17.5625,4.375
109009757635,7.25,16.625,4.5625
109009778703,0.875,18.0625,3.5
109009795181,0.6875,17.125,2.625
109009817934,6.5625,13.8125,4.875
109009838841,11,15.375,5.3125
109009855151,8.9375,18.5625,4.1875
109009877756,6.5625,18.75,5.125
109009898734,9.1875,18.8125,6.25
109009915332,6.625,17.75,3.875
109009937754,2.6875,13.9375,3.5
109009958728,4.8125,11.875,7.9375
109009975321,11.875,11.5625,12.25
109009997663,14.6875,6.8125,11.6875
109010020188,7.3125,0.75,7.4375
109010035200,1.75,-3.1875,7.6875
109010065163,8.5625,-5.1875,12.375
109010078839,19.875,-6.375,15.0625
109010095182,23.75,-10.25,13.25
109010117634,19.125,-12.5,7.4375
109010138787,21.3125,-13.5625,2.6875
109010155234,28.625,-11.6875,3.875
109010177668,30.1875,-6.6875,2
109010198859,19.8125,-3.6875,-3.6875
109010215182,9.0625,-2.4375,-9.5625
109010237666,15.5,5.0625,-9.75
109010258751,22.8125,10.875,-3.75
109010275186,22.1875,7.1875,1.75
109010297689,17.125,0.5625,4
109010318728,19.9375,-5.4375,5.4375
109010342730,24.875,-8.375,7.0625
109010357692,25.3125,-8.5625,7.125
109010378751,16.625,-7.875,4.625
109010394560,5.625,-7.5,0.375
109010417683,0.125,-7.3125,-3.9375
109010440230,-0.5625,-6.1875,-7.8125
109010454572,-1.875,-5.5,-10.0625
109010477732,-3.375,-3.75,-9.25
109010500195,-6.3125,-1.8125,-5.5625
109010515174,-7.4375,-0.0625,-1.375
109010537689,-10.8125,1.25,2.4375
109010560276,-12.625,1.375,4.25
109010574532,-11.1875,1.5,4.625
109010597712,-9,1.625,5
109010620141,-8.5625,1.9375,5.375
109010634532,-7.75,2.0625,4.9375
109010657744,-6.8125,2.125,4.125
109010680134,-4.75,2.9375,2.625
109010694629,-2.875,0.375,1.5
109010717723,-3.5625,-2.125,-0.5625
109010740222,-5.6875,-3.0625,-2
109010754565,-2.375,-3.125,-1.375
109010777770,-2.9375,-1,-0.3125
109010800215,5.5625,-3,1
109010814515,3.75,-0.5,-2.4375
109010837723,-15.1875,1.1875,1.875
109010860277,2.8125,4.5,6.125
109010865555,-0.1875,-5.6875,0.375
109010897103,4.25,-4.625,-7.5625
109010903139,-2.4375,3.375,-1.8125
109010925548,2.3125,3.9375,5.375
109010948183,5.5625,-3.75,2.25
109010963136,-6.3125,-4.125,-3.6875
109010985579,-7.5,-1.875,-2.8125
109011008245,14.625,-1.75,-0.0625
109011025979,10.6875,2.3125,2.375
109011045686,-1.5,-4.3125,-1.375
109011068110,-4.1875,-7,-4.25
109011083052,6,-4,-0.1875
109011105788,11.875,-1.8125,2.25
109011128086,6.125,-5,3.1875
109011143110,-2.8125,-7.5625,-0.6875
109011165715,15,-5.6875,-2.3125
109011182029,14.9375,0.4375,2.375
109011203254,2,2.125,2.375
109011225609,-13.0625,-3.0625,-0.8125
109011242153,-14.75,-7.4375,-3.375
109011263388,7.625,-4.5625,-1.1875
109011285606,12.0625,-0.1875,2.75
109011302095,4.625,-1.0625,2.6875
109011323290,-4.5625,-1.5625,0.6875
109011345990,-5,-0.6875,0.25
109011363625,1.8125,1.25,-0.9375
109011383126,-3.125,4.3125,-0.125
109011405650,-5.4375,1.6875,1.4375
109011431026,-3.75,-4.75,0.6875
109011450610,9.375,-6.375,-2.3125
109011465878,27.375,-6,-3.5625
109011488127,25.5625,7.5,2.125
109011503189,-1.0625,7.0625,3.875
109011525783,-19.3125,1.375,3.5625
109011549654,-17.75,-1.5,-0.75
109011563242,-4.75,-1.5,-7.125
109011585738,9.9375,-0.1875,-6.875
109011603562,11.5,2.9375,-3.375
109011623120,4,4.375,-3.375
109011645621,-4.375,2.0625,-4.8125
109011663602,-7.5625,2.4375,-3.375
109011683118,-2.0625,5.9375,0.6875
109011707081,-1.3125,9.0625,2.1875
109011723638,-12.6875,7.5,1.1875
109011743172,-17.8125,4.8125,0.0625
109011765761,-17.75,3.5,0.0625
109011783523,-12.5625,5.6875,-0.0625
109011803107,-5.3125,6.9375,-0.0625
109011825845,-4.75,7.3125,0.1875
109011843592,-9.5625,5.875,-0.25
109011863163,-12.6875,5.6875,-0.0625
109011887125,-9.375,6.125,0.25
109011903536,-4.4375,6.3125,-0.0625
109011923154,-4.75,3.9375,-0.3125
109011953172,-6.125,0.9375,0.375
109011963576,-4.25,1.1875,0.75
109011984599,-0.875,1.9375,2.4375
109012008599,3.25,1.125,3
109012023609,3.0625,-1.3125,3.5
109012044610,1.875,-3.4375,2.75
109012065616,-0.125,-3.75,2.125
109012083598,2,-3.5,1.5
109012104614,4.3125,-2.1875,0.875
109012125650,3.625,-1.875,0.5625
109012143623,2.5,-2.0625,0.625
109012164535,1.5,-1,-0.375
109012185674,2.0625,-0.125,-0.5625
109012203573,1.25,0.3125,-0.0625
109012224597,-1,0.625,-0.3125
109012245675,-3,-0.4375,-0.375
109012265416,-3,0.5625,0.875
109012284594,-2.125,1.8125,1.5
109012305696,-2.625,1.75,1.6875
109012323584,-2.125,1.625,0.75
109012346098,-0.8125,1.5625,-0.0625
109012368579,-1.5,1.125,0.4375
109012383790,-2.8125,1,0.9375
109012406005,-1.125,1.25,0.625
109012425763,0.25,1.75,0.6875
109012443717,-1,1.3125,0.375
109012470702,-1.25,0.5625,-0.8125
109012485717,-1.6875,0.3125,-0.375
109012503552,-1,0.5625,0
109012526099,0.25,0.75,0.5625
109012545818,1.625,1,0.75
109012563563,-0.3125,0.3125,0.3125
109012586140,-2.625,-0.375,-0.3125
109012605665,-1.4375,0.0625,-0.25
109012623543,0.375,0.6875,0.625
109012646273,-0.375,1,0.3125
109012665686,-0.9375,0.9375,0.125
109012683711,-0.375,0.5,-0.25
109012706159,-0.75,0.25,-0.3125
109012725674,-1.25,0.4375,0
109012743643,-1.1875,0.6875,-0.1875
109012766069,-0.375,0.875,0
109012788699,-0.125,0.5625,-0.0625
109012803554,-0.625,0.4375,-0.3125
109012826100,-0.3125,0.5,0.125
109012845903,0,0.5625,0.3125
109012869651,-0.4375,0.4375,-0.4375
109012886121,-1.125,0.0625,-0.875
109012907154,-1.6875,-0.5,-0.75
109012923649,-1.625,-0.125,-0.875
109012946283,0.0625,0.0625,-0.5625
109012967078,0.6875,0.1875,-0.125
109012983678,0.0625,0.0625,-0.1875
109013006132,-0.125,0,-0.5625
109013027096,-1.1875,0.0625,-0.8125
109013043764,-0.6875,-0.0625,-0.375
109013066096,0.9375,3.125,-3
109013087147,-8.9375,0.1875,1.125
109013103656,-2.5625,-1.875,2.375
109013125283,5.8125,-2.75,-0.875
109013146416,2.5,-0.8125,-1.0625
109013162793,-2.8125,0.625,1.5
109013185032,2.25,-5.625,1.25
109013206452,8.4375,-5.5625,-2
109013222751,7.8125,-1.75,-3.75
109013245445,20.0625,-3.8125,-3.5625
109013267801,12.25,-2.5,6.3125
109013283820,20.1875,-1.5,4.4375
109013305410,7.3125,-0.75,-1.625
109013327792,2.3125,1.9375,0.5625
109013342196,-0.4375,-0.4375,1.25
109013365304,5.125,0,0.125
109013394049,-3.6875,3.375,1.8125
109013402873,-3.125,0.375,-0.625
109013425284,1.5,-1.375,-0.9375
109013447885,2.5625,-3.6875,-1.75
109013462184,7.125,-3.9375,0.1875
109013492982,3.5,-2.375,2.3125
109013507815,2.9375,-2.1875,3.8125
109013522139,-1,-5.75,0.6875
109013545361,7.1875,-7.5625,0.4375
109013567845,10.625,-2.5,3.5
109013583133,6.125,-1.875,3
109013605358,-4.5625,-1.75,1.125
109013627843,-11.25,-6,-2.25
109013642231,-0.875,-6.3125,-3.25
109013672804,12.8125,-2,1.8125
109013688504,3.0625,1.0625,4.5
109013702228,-5.1875,-2.1875,1.5
109013726779,-9.9375,-3.625,-0.8125
109013754064,-6.75,-4,-3.1875
109013768899,11.5625,-1.5625,-3.5625
109013785309,15.375,3.6875,0.8125
109013807883,7.125,1.8125,8.375
109013828839,-1.0625,1.3125,6.5625
109013845370,-17.625,-0.5,3.6875
109013867861,-18.375,3.5,0.375
109013888990,-8.25,7.25,-3.4375
109013906798,-13.1875,7.5,0.9375
109013927793,-5.625,8.0625,5.75
109013948901,-1.625,4.0625,-0.3125
109013965359,-9.875,0.3125,-7.3125
109013988534,-19.125,1.875,-6.6875
109014009047,-13.3125,5.6875,-5.3125
109014025415,-5.4375,4.9375,-3.4375
109014047857,0.4375,1.6875,-1.5625
109014068960,7.5625,-1.5625,0.6875
109014085307,4.6875,-2.25,-0.75
109014107889,2.25,-1.6875,-0.5625
109014128944,3.8125,-3.0625,-0.8125
109014145318,5.3125,-0.5625,-5.3125
109014167896,4.1875,-0.8125,-3.8125
109014188891,-1,0.4375,-4
109014205307,-7.375,0.875,-3.1875
109014227947,-0.9375,3.375,1.375
109014250383,0.875,4.8125,2.9375
109014279104,-5.6875,3.1875,-0.375
109014287800,-11,0.3125,-2.3125
109014310369,-6.8125,0.5625,-0.875
109014325334,-0.625,2.6875,0.25
109014347868,2.375,3.375,1.875
109014370405,0.6875,2.3125,2.125
109014384700,-1.875,0.6875,0.3125
109014408584,-2.5,0,-1.375
109014430369,-0.0625,0.875,-1
109014444715,-1.125,1.25,0.0625
109014467871,-2.0625,1.25,0.5625
109014490370,-1.8125,0.4375,0.125
109014504661,0.125,-0.5625,-0.8125
109014527898,0.8125,-0.6875,-0.9375
109014550342,0.6875,0.875,-0.125
109014571583,0.8125,1.25,0.625
109014587854,-0.375,1.25,1.125
109014611079,-1.875,0.5625,0.3125
109014624722,-3.125,-0.4375,-0.375
109014647887,-1.3125,-0.0625,-0.4375
109014670492,0.5,0.8125,0.75
109014691475,0.4375,1.875,1.0625
109014707837,-0.0625,0.625,0.5
109014730365,0.5,0.625,-0.3125
109014751387,-1.375,0.5,-0.125
109014767866,-1.5,0.75,-0.25
109014790395,-1.0625,1.1875,-0.25
109014811424,0.625,0.8125,-0.0625
109014835421,-0.8125,0.875,0
109014850368,-1.5,0.75,0.375
109014871534,-0.375,0.6875,0
109014887898,-0.125,0.3125,-0.1875
109014910410,0.3125,0.25,0
109014931422,-0.0625,-0.25,-0.8125
109014947692,-0.4375,-0.75,-1.375
109014970394,-0.1875,-0.875,-1
109014991507,-0.75,-0.375,-0.75
109015007838,0.375,-0.25,-0.25
109015030435,1.4375,-0.75,-0.25
109015058964,0.875,-1.0625,0
109015067849,0.4375,-0.8125,0.4375
109015090478,0.0625,-0.5,0.625
109015111458,0.3125,-0.375,0.6875
109015128002,-0.4375,-1,0.6875
109015156445,-0.4375,-0.6875,0.1875
109015172843,0.25,-0.4375,0.1875
109015187924,0.75,0,0.4375
109015210391,1.125,0,0.4375
109015232990,0.75,-0.0625,0.1875
109015247974,0.75,-0.625,0.125
109015270377,0.0625,-0.625,-0.125
109015292935,0.25,-0.1875,-0.25
109015307277,0.625,-0.1875,0.3125
109015330572,1,0.0625,0.125
109015360384,0.0625,-0.1875,-0.1875
109015367287,-0.125,0.125,-0.125
109015390606,-1,-0.125,-0.1875
109015412859,-0.875,-0.25,-0.375
109015427317,0.0625,0.0625,-0.0625
109015450448,0.5625,0.75,0
109015472883,-0.875,0.4375,-0.1875
109015487368,-1.6875,-0.3125,-1
109015510421,-0.25,-0.375,-0.5625
109015539040,0.1875,0.375,-0.125
109015547375,-0.75,0.3125,-0.0625
109015570406,0.8125,0.125,-1.5
109015593087,0.1875,0.125,-1.3125
109015613977,-0.5625,0.375,-0.125
109015630427,0.75,3.25,-0.25
109015652922,-6.375,3.4375,0.5
109015673922,-20.4375,-0.625,0.9375
109015690530,6.625,-1.6875,6.1875
109015712946,23.625,-1.125,-1.1875
109015733769,12.0625,1.125,-7.875
109015750463,6.6875,-10.375,-2.625
109015778991,28.0625,-12.5625,3.125
109015793917,22.25,-6.625,0.9375
109015810411,18.5,-0.8125,-5.625
109015834060,-9.25,2.125,0.3125
109015853977,-15.1875,-1.9375,-1.0625
109015870404,-9.5,0.5,-2.8125
109015892969,-7,-0.4375,0.9375
109015913997,12.5625,-0.875,1.8125
109015930460,19.25,2.6875,3.1875
109015952945,4.8125,1.125,1.375
109015975385,-15.0625,-2.1875,-0.1875
109015990521,-17.8125,-6.1875,-3.375
109016012986,2.5625,-7.25,-3.375
109016033932,20.1875,0.5,2.875
109016049812,22.4375,1.75,5.125
109016072964,1.4375,-1.3125,0.4375
109016095464,-10.125,-7.9375,-4.25
109016109792,-5.875,-7.5625,-3.75
109016132913,7.9375,-2.9375,-0.4375
109016156923,14.9375,0.3125,1.4375
109016171061,5,0.625,1.1875
109016192956,-4.3125,-0.5625,-0.5
109016215485,-9.5625,0.125,-2.3125
109016230423,-7.375,1.625,-1.3125
109016252938,-0.625,2.875,0.1875
109016275447,-2.25,2.0625,0.8125
109016289816,-3.125,-0.1875,1
109016319060,-0.625,0.1875,0.5625
109016335446,-1.375,0.3125,0
109016349819,2.875,3.75,-0.875
109016372980,-0.8125,7.1875,0.4375
109016396868,-9.25,11,1.6875
109016416670,-16.375,6.0625,0.1875
109016432934,-18.3125,-0.5,-4.1875
109016455513,-10.75,-2.875,-4.1875
109016469846,6.375,-0.8125,-3.75
109016493012,18.125,1.125,-2.125
109016515493,15.6875,2.1875,1.4375
109016529801,5.375,4.625,5.125
109016552942,-1.25,1.0625,3.1875
109016575586,-9.5,-3.3125,-0.8125
109016589789,-9.9375,-1.125,-4.5625
109016613098,-7.5625,-0.5,-3.4375
109016636084,2.875,4.375,2.375
109016656627,5.25,6.5,5.625
109016679004,-2.9375,4.125,3.375
109016695434,-11.25,-0.375,-1.1875
109016716380,-12.875,-3.25,-3.1875
109016732948,-5,0.3125,-2.75
109016755508,2.625,2.75,-3.0625
109016776713,-0.625,3.9375,3.625
109016792925,-1.625,4,5.9375
109016815546,-3.4375,0.8125,2.375
109016836532,-5.5,-2.0625,-0.9375
109016852926,-5.8125,-3.4375,-2.1875
109016875575,-2,-2.25,-2.4375
109016896502,2.75,-1.0625,-1.5625
109016913016,6.0625,0,-0.375
109016935486,3.8125,-1.125,-0.0625
109016956487,0.8125,-1.625,-0.375
109016973010,-0.8125,-1.75,0
109016995290,-1.9375,-1.375,-0.25
109017016928,-1.125,0,0.5625
109017033011,-0.5,1.3125,0.5625
109017057098,-2.5625,2.125,0.875
109017077971,-4.4375,2.25,0.6875
109017092941,-5,1.5625,-0.4375
109017115507,-3.25,1.875,-0.3125
109017137785,-1.875,1.875,-0.1875
109017153394,-2.375,1.8125,-0.375
109017175496,-2.875,1.6875,0.4375
109017198012,-0.0625,1.3125,0.875
109017218996,0.875,-0.0625,0.75
109017235425,1.125,-0.6875,-0.125
109017264657,0.4375,-1.1875,-0.3125
109017272439,0.0625,-1.4375,-0.6875
109017295509,1.75,-0.8125,-0.3125
109017318012,2.0625,0,0.25
109017332332,0.875,-0.25,-0.375
109017355488,0.8125,-0.3125,-0.6875
109017377989,1.125,-0.5625,-1
109017392357,2.0625,0.3125,-0.4375
109017399860,0.375,0.4375,-0.0625
109017420903,-1.3125,0.3125,0.25
109017443376,-1.3125,-0.125,-0.1875
109017459812,-1.125,-0.1875,-0.0625
109017483835,-0.9375,0.1875,0.5
109017503388,-0.8125,0.8125,0.5
109017519840,-0.0625,1.375,0.4375
109017540945,-0.3125,0.3125,-0.25
109017563375,-0.6875,-0.1875,-1.375
109017579909,-0.4375,-0.5,-0.5625
109017600886,-0.1875,0.125,-0.25
109017623420,0.5,-0.25,0.6875
109017639810,1.4375,-0.8125,0.125
109017660878,1.125,-1.4375,-0.5
109017683541,-0.1875,-1.75,-0.5
109017699907,-1,-0.6875,-0.375
109017720918,-2,-0.5,0.25
109017743555,-1.1875,-1.25,0.25
109017759869,0.375,-1.0625,0
109017780851,0.6875,-0.25,0.125
109017804881,-1.125,0.125,0.625
109017819849,-1.5625,0.3125,1.25
109017840896,-1,0.5625,1.0625
109017863372,-1.3125,0,0
109017879853,-1.375,-0.0625,-0.625
109017900952,-0.25,0.125,-0.125
109017923405,0.5,0.3125,0
109017939797,-0.4375,0.25,-0.9375
109017963792,-1.0625,0.0625,-0.875
109017983400,-1.5625,0.125,0
109018001284,0.5,1.5,0.25
109018020911,-1.5625,-0.5,2.3125
109018043427,1.3125,-1.25,2.1875
109018061388,3.625,-0.5,1.875
109018080887,6.5,0.875,-0.6875
109018103475,-0.0625,-0.625,1.125
109018121365,13.625,-3.875,7.4375
109018140973,31.4375,-10.4375,6.75
109018163473,19.4375,-4.875,3.9375
109018185886,13.125,-0.125,-5.1875
109018201073,3.125,-2.3125,0.75
109018223442,8.5,-6.125,2.1875
109018245930,6.125,-0.25,2.6875
109018262452,-2.3125,-3,-0.3125
109018283476,-4.375,-4.625,-2.6875
109018301339,3.5,-2.25,-1.4375
109018320925,14.25,-3.125,0.1875
109018343380,11.875,-0.625,2.8125
109018361355,-2.25,-4.5,-0.625
109018388425,0.75,-7.6875,-3.5
109018403448,1.8125,-3.9375,0
109018421400,7.5625,-3.875,2.0625
109018440946,3.9375,-4.4375,1.375
109018463441,-1.5,-5.375,1.5625
109018481320,12.4375,-4.125,0.6875
109018500875,8.375,1.375,2.6875
109018523581,-2.6875,-1,-0.0625
109018542758,-6.625,-4.75,-1.375
109018560951,-1.5,-4.3125,-0.375
109018583413,13.4375,-0.5,-0.9375
109018602015,5.875,0.5625,0.0625
109018622395,-3.9375,-0.6875,1.8125
109018643397,-12.0625,-0.9375,2.1875
109018674160,-9.6875,-4.9375,1.8125
109018682412,10.125,-2.5625,-0.25
109018703430,21.75,4.3125,2.1875
109018721357,22.0625,7.75,0.125
109018742338,-9.25,15.75,10.375
109018763748,-19.6875,23.5625,20.8125
109018781387,-33.9375,23,15.75
109018803348,-49.3125,15.125,7.3125
109018823445,-52.625,6.125,-2.6875
109018841343,-42.4375,1.75,-10.5
109018862448,-7.375,2.9375,-12
109018883497,11,7,-5.75
109018901361,18.1875,10.25,2
109018922498,14,4.875,2.125
109018944862,-0.75,-2.9375,-4.8125
109018961301,-7.9375,-7.0625,-5.625
109018984050,-4.3125,-5.3125,-3.625
109019003465,2.125,-1.625,-1.625
109019021514,8.5625,2.0625,1.8125
109019043877,8.6875,3.6875,4.625
109019063443,2.1875,1.125,2.0625
109019081493,-6.625,-2.25,-2.75
109019103863,-4.0625,-2.625,-2.9375
109019123562,1.4375,-0.125,-1.9375
109019141366,2.3125,0.8125,-0.9375
109019163885,2.8125,0.4375,1
109019183602,3.625,0.125,-0.3125
109019201355,4.375,0.5,-1.6875
109019223904,-0.0625,0.5625,-1.625
109019250939,-4.3125,1.1875,-2
109019261384,-2.8125,3.3125,-1.0625
109019284080,-1.1875,3.625,1.5
109019303451,-2.125,2.75,1.4375
109019321354,-4,0.8125,-0.375
109019343947,-2.0625,-0.25,-0.625
109019363487,-0.375,0.125,-0.3125
109019381547,2.4375,0.1875,0.6875
109019403854,3.9375,-0.1875,0.9375
109019423498,1.8125,-1.3125,-0.125
109019441445,1.25,-2.5,-1.375
109019463905,0.8125,-2.6875,-1
109019483599,2.875,-1.5,-0.375
109019501396,2.1875,-0.0625,0.3125
109019523822,1.5,0,0.25
109019545077,0.875,0.625,0.4375
109019561388,-1.375,-0.1875,-0.375
109019584029,-1.0625,0.3125,-1.0625
109019604905,-0.8125,0.625,-0.3125
109019621415,-1.125,1.0625,-0.5
109019643983,-0.75,1.125,-0.25
109019664879,-0.8125,1,0.9375
109019680609,-1.8125,0,0.25
109019703078,-1.6875,-0.875,-0.3125
109019724154,-0.5,-0.125,0.4375
109019740647,0.3125,0.3125,0.8125
109019763076,-0.125,-0.625,0.375
109019784297,-1.8125,-0.375,-0.5
109019800555,-2.1875,-0.125,-0.3125
109019823931,-1.5,-0.0625,0.0625
109019844216,-1.125,-0.375,0.125
109019860576,0.5625,-0.75,0.0625
109019883065,1.4375,-0.5,-0.0625
109019905548,1.4375,-0.0625,-0.5
109019920561,0.875,0.625,-1.4375
109019943111,-2.375,0.5,-0.8125
109019965616,-1.3125,0.375,-0.5
109019980616,0.5625,-0.25,-0.375
109020003108,0.75,0.125,-0.1875
109020025786,0.0625,0.9375,0.4375
109020039940,-0.4375,1.25,0.4375
109020063066,0.0625,0.3125,0.8125
109020085630,-0.9375,-0.4375,-0.6875
109020100025,-3.125,-0.875,-0.75
109020123128,-1.75,-0.1875,0.1875
109020145583,0.8125,1.9375,0
109020159941,0.75,1.6875,1.9375
109020183092,-2.5625,-0.375,0.25
109020205647,-3.9375,-0.3125,-1.1875
109020219936,-1.6875,0.0625,-1.875
109020243200,-0.875,0.875,0.25
109020265628,0.1875,1.5625,0.8125
109020279930,-0.9375,2,-0.75
109020303147,-5.75,3.375,-0.5625
109020325552,-6.9375,-0.4375,-0.6875
109020339973,-7.1875,-2.8125,3.25
109020363126,6.375,-2.1875,1.9375
109020385561,15.4375,-4.4375,-0.5625
109020406700,13.6875,-2.4375,-1.5625
109020423164,9,1,-0.125
109020445665,3.0625,2.125,0.25
109020466664,6.625,-0.4375,-0.6875
109020483187,6.0625,-7.5,-3.75
109020505633,9.3125,-9.25,-3.6875
109020526732,13.875,-2.4375,3.1875
109020543183,7.75,5.0625,6.8125
109020565589,-2,1.375,0.5625
109020586713,-6.5,-6.5625,-1.8125
109020610615,-3.8125,-6.375,-0.9375
109020625574,4.8125,-1.3125,2.5
109020646667,6.8125,3.4375,3.3125
109020663187,2.8125,0.375,-0.375
109020685586,8.3125,-2.6875,-2.6875
109020708187,6.4375,0.375,-0.625
109020723142,0.4375,0.5625,2.625
109020746990,-7.0625,-2,0.3125
109020766813,-17.3125,-7.0625,-2.5625
109020783120,18.6875,-4.3125,-2.0625
109020805643,23.5625,3.4375,2.375
109020826704,7.1875,0.0625,2.0625
109020842455,-10,-5.5,-1.3125
109020865638,-15.5625,-8.0625,-5
109020888141,5.5,-4.9375,-2.25
109020903128,16.5,0.5,1.4375
109020925609,11.875,0.1875,1.6875
109020948166,-1.9375,-0.625,0.375
109020963160,-12.125,-1.0625,-0.375
109020985662,-11,-4.0625,-0.4375
109021008140,-2.6875,-5.4375,-1.375
109021022458,14.9375,-6.0625,-3.4375
109021045676,26.25,-2.3125,-7.0625
109021068194,13.625,7.625,-1.0625
109021082534,3.8125,17.25,9.4375
109021113168,-17.625,18,12.125
109021128188,-44.1875,11.625,-0.9375
109021149209,-57.125,2.75,-12.5
109021165701,-36,5.0625,-10.875
109021188138,-7.375,9.6875,-5.75
109021209359,12.5625,14.6875,3.5
109021227150,14.625,17.125,10
109021248786,0.9375,10.625,8.6875
109021269209,-17.375,-0.875,-1.625
109021285635,-23.5,-6.875,-7.1875
109021308321,-7.6875,-3,-3.625
109021329253,7.8125,3,-2.625
109021345684,11.1875,3.75,0.5625
109021368198,10.4375,3,4.5
109021389210,2.4375,-2.0625,1.6875
109021405712,-6.6875,-5.875,-3.0625
109021428163,-4.0625,-6.375,-2.5625
109021449197,2.625,-3.625,-1.9375
109021465673,4.5,-0.875,-0.4375
109021488201,4.4375,0.375,0.4375
109021509254,1.875,-0.6875,0.3125
109021525671,0.625,-0.875,-1.375
109021548154,0,-1,-1.0625
109021569340,-0.875,0.25,-0.625
109021585704,-0.5,0.875,-0.3125
109021608285,0.6875,0.875,0.6875
109021629455,-0.6875,0.625,-0.125
109021645672,-2.4375,0.5,-0.375
109021668200,-1.8125,1.0625,-0.3125
109021689245,-0.625,0.5625,-0.1875
109021705697,-0.6875,0.3125,0.5
109021728215,-0.5,-0.1875,0.375
109021749242,-0.625,-0.4375,0
109021765699,0.4375,0.125,0.125
109021788175,1.4375,0.25,0.8125
109021810726,0.5,-0.5625,0.4375
109021825697,-0.3125,-0.9375,-0.3125
109021848212,0.125,-1.25,0.125
109021870694,0.625,-0.375,0.125
109021885664,0.5,0.0625,0.4375
109021908201,0.875,-0.25,0.125
109021930652,0.6875,-0.6875,0.125
109021945012,1,-0.1875,-0.3125
109021968225,-0.25,-0.75,-0.3125
109021998218,0.375,-1,0.4375
109022004975,2.25,-1.6875,0.625
109022028221,1,-2.0625,0
109022050670,-3.3125,-1.6875,0.125
109022065025,-1.3125,-1.875,-0.3125
109022088250,3.3125,-1.4375,0.5625
109022110661,5.125,-0.0625,1.1875
109022125058,3,0,0.8125
109022148152,0.1875,-0.6875,-0.375
109022170676,-1.6875,-0.75,-1
109022185044,-1.0625,-0.6875,-1.0625
109022208276,0.5625,0.6875,-0.625
109022230751,0.75,0.625,0.625
109022245094,0.125,0.75,0.375
109022275689,-4.5625,-0.25,0.1875
109022290696,-5.1875,-0.875,1
109022311703,4.75,1.1875,1.9375
109022328193,6.125,0.125,0.75
109022350701,-2.125,-0.125,0
109022371743,-2.375,-0.25,0.5
109022388218,2.8125,-0.375,-0.9375
109022410687,3.4375,-1.5625,0.5625
109022431820,5.3125,-0.875,0.625
109022448194,6.125,0.75,1.8125
109022470701,7.1875,2.3125,2.75
109022491763,1.8125,1.3125,0.8125
109022508184,-1.4375,0.875,-0.3125
109022530891,-4.375,-0.375,0.0625
109022551776,-1,-0.5,-0.0625
109022569056,2.1875,0.125,1.5
109022590749,5.625,-0.875,1.125
109022611759,4.5,-2.5625,-1.375
109022628223,3.875,-2,-2.125
109022651180,7.75,2.0625,0.9375
109022672347,-3,1.5625,1.0625
109022688258,-5.625,-3.9375,0.5
109022710736,-2.9375,-5.5625,-2.125
109022733350,7.875,-1.8125,-0.8125
109022748219,11.625,2.0625,2.125
109022770716,4.625,-0.125,3.25
109022793284,-3.5,-4.8125,0.6875
109022808348,-3.25,-6.625,-2.75
109022831174,2.9375,-2.9375,-0.1875
109022853306,11.5,0.625,2.6875
109022868276,7.5,0.25,1.8125
109022890732,-1.6875,-4.375,-1
109022913348,-1.3125,-7,-2
109022927549,11.6875,-3.25,-0.75
109022952201,16.25,1.0625,1.25
109022973337,6.3125,0.9375,1.4375
109022987509,-8.875,-0.6875,1.9375
109023010742,-7.25,-2.6875,-0.6875
109023033346,-0.75,-4.1875,-1.9375
109023047628,2.5625,-1.625,0.625
109023070723,6.625,-0.875,2.5625
109023093463,2.5,0.1875,1.8125
109023107562,-6.6875,-3.1875,-0.875
109023130729,1.3125,-5.125,-2.625
109023153323,6.875,-0.9375,1.125
109023167589,8.4375,0.4375,1
109023190708,0.375,0.0625,0.25
109023213401,-4,-1.0625,-1.5625
109023227569,-3.0625,-3.875,-3.25
109023258371,2.75,-2,-1.5
109023273313,7.4375,0.4375,0.625
109023294347,7.625,-0.3125,0.125
109023310872,4.5625,-1.125,-0.9375
109023333292,-2.5625,-0.625,-0.9375
109023354375,-3.625,-1.75,-0.4375
109023370752,-1.375,-0.0625,0.6875
109023393271,1.375,-0.625,0.8125
109023414572,5.9375,0.125,0.5
109023430742,0.25,0.75,-0.0625
109023459474,-4.5,-0.125,-0.8125
109023474372,-6.125,0.9375,-0.4375
109023490747,-2.125,2.1875,1.4375
109023513304,-0.1875,1.9375,1.5
109023534307,0.4375,3.4375,-0.0625
109023550739,-1.4375,3.4375,-0.875
109023573361,-0.25,3.8125,0.8125
109023594325,-5.4375,6.375,2.625
109023612363,-11.25,4.8125,-1.875
109023633287,-2.5625,3.125,-6.3125
109023654334,-0.125,6,-3.625
109023670822,-7.5,5.375,1
109023693305,-10.625,4,4.25
109023715759,-3.625,3.4375,2.1875
109023736846,-5,3.8125,-4.25
109023753289,-4.125,7.3125,-1.8125
109023775811,-5.0625,5.0625,-1.4375
109023790728,-6.3125,4.625,1.125
109023813343,-4.8125,1.5625,4.9375
109023835765,-2.1875,-0.0625,-0.375
109023850089,1.1875,-2.3125,-2.5
109023873323,5.8125,1.6875,-1.1875
109023895732,0.625,2.5625,-1.0625
109023910111,-3.875,1.8125,1.875
109023939376,-3,1.0625,3.375
109023955738,-2.0625,-0.9375,1.4375
109023961200,-2.75,-2.6875,-0.875
109023977676,-2.125,-1.625,-1.4375
109023998661,-1.25,-1.1875,-0.625
109024022646,0.3125,0.0625,1.625
109024037664,0.5625,2,2.5
109024058675,-2.6875,3.0625,1.1875
109024081294,-6.8125,2.3125,0.3125
109024097599,-6.1875,1.5,0.3125
109024118708,-5.25,1.4375,-0.4375
109024141232,-2.375,3,-0.125
109024157569,1.4375,3.6875,-0.4375
109024178802,-0.6875,1.875,0.0625
109024201135,-2.75,0.375,-1.4375
109024219056,-4.0625,-1.5,-0.75
109024238805,-1.4375,-1.375,0
109024261203,2.75,-0.8125,0.3125
109024277714,4,-0.8125,0.625
109024298739,2.8125,-0.3125,0.375
109024321136,0.875,-1.25,-0.5625
109024337688,-1.4375,-0.8125,-0.9375
109024358674,-1.5,-0.75,-0.6875
109024381224,0.25,-0.0625,-0.6875
109024397666,0.875,0.4375,0.1875
109024418659,0.6875,0.9375,0.8125
109024441186,-0.5625,1.625,0.5
109024457674,-1.5,0.8125,0.5
109024478690,-2.125,0.125,0.375
109024501256,-1.625,0,-0.375
109024519122,-0.5,-0.1875,-0.6875
109024538685,0.8125,0.4375,-0.375
109024561148,0.5625,0.4375,0.0625
109024577643,1.75,0.25,0
109024598878,0.9375,-0.5625,-0.3125
109024621175,0.125,-0.9375,-0.5
109024639142,0.8125,-0.1875,-0.625
109024658715,0.5625,-0.0625,0
109024681220,0.4375,-0.625,0
109024699240,1,0,-0.4375
109024718680,0.9375,0.0625,-0.5
109024741263,-0.25,0.6875,0.1875
109024759148,-1.5,0.4375,0.3125
109024778681,-0.125,-0.1875,-0.0625
109024801333,0.4375,0.25,-0.4375
109024819081,-0.0625,0.75,-0.6875
109024838734,-1.1875,0.5,-0.4375
109024861209,-1.5,0.625,0
109024879120,0.125,-0.5,0.0625
109024898677,0.625,-0.25,-0.25
109024921169,-1.5625,-1.375,0.5
109024939139,-0.875,0.1875,1.3125
109024958734,-1.25,0.4375,1
109024981195,-0.3125,-0.5625,1
109024999883,3.3125,-3.0625,0.75
109025018714,6,-1.75,0
109025048887,5,-0.625,0.875
109025059167,3.0625,1.125,1
109025078691,-1,1.375,0.9375
109025101233,-1.375,-0.625,-0.0625
109025119093,-3.6875,0.25,-0.375
109025138772,1.4375,-0.3125,0.625
109025161221,5.6875,2,1.875
109025179119,2.4375,2.25,0.25
109025206296,1.5,-0.125,0.3125
109025221173,0.875,-2.1875,-1.9375
109025239116,-2.1875,-1.1875,-0.8125
109025260206,6.375,-1.6875,0.6875
109025281164,6.75,1.6875,1.3125
109025299194,-1.75,1.125,0.375
109025326190,-2.8125,-0.8125,-2
109025342802,2,-0.875,-2.625
109025359214,3.6875,2.25,-0.25
109025380174,6.75,5.6875,3.0625
109025401207,0.5625,2.375,0.9375
109025419212,-4.1875,-8.5625,-3.8125
109025440154,0.9375,-10.8125,-5.0625
109025461239,16.875,-0.6875,0.6875
109025486614,24.6875,2.0625,2.1875
109025506210,12.75,-0.0625,-3.625
109025521313,-8.8125,-6.5625,-5
109025539194,-3.375,-9.1875,-1.5625
109025561793,10.75,-4.5625,2.625
109025581231,2.3125,1.625,3.4375
109025605217,-0.0625,-4.125,-0.0625
109025622352,4,-4.8125,-1.9375
109025641227,8.4375,-4.375,-0.0625
109025659230,7.4375,3.4375,4.375
109025681658,-6.875,3.625,1.625
109025701302,-9.1875,-4.875,-1.6875
109025719177,-1.6875,-6.625,-2.875
109025741673,11.6875,-1.875,1.375
109025762652,12.5,3.6875,3.9375
109025779254,-2,-0.875,0
109025806259,-11.125,-6.6875,-1.4375
109025821293,0.8125,-6.625,0.25
109025839204,16,-1.9375,3.25
109025861804,8.4375,1.5625,2.5
109025881520,-1.6875,-1.0625,-0.8125
109025899159,-10.25,-4.4375,-1.9375
109025921685,-5.3125,-6,-1
109025941234,9.625,-3.0625,-0.1875
109025959187,11.3125,3.5,2
109025982269,2.8125,3,2.3125
109026001320,-6.125,-0.6875,-1
109026019143,-6.5,-2.9375,-3.375
109026041699,5.5625,-0.125,-0.5
109026061208,5.25,4.0625,1.0625
109026079385,-3.25,1.625,1.9375
109026101628,-11.1875,-0.8125,1.4375
109026130223,-0.3125,-1.3125,-1.5
109026139178,0.875,2.25,1.75
109026161713,-4.6875,5.0625,2
109026181403,-4.875,1.3125,0.6875
109026199196,-7.4375,-3.0625,-2.75
109026221820,-2.4375,-8.125,-1.375
109026241963,7.6875,-2.8125,1.0625
109026258348,7.6875,-3.4375,0.9375
109026280904,5.9375,-3.5625,1.5
109026301885,2.125,1.5625,1.0625
109026318402,1.0625,2.125,3.1875
109026341418,-3.5,3.8125,0
109026361927,-12,0.5,-0.6875
109026378420,-9.875,-0.1875,-2.1875
109026401304,-1.9375,2.875,-1.625
109026421963,1.125,5.9375,2.0625
109026438852,0.3125,5.4375,2.125
109026460864,-10.25,4.4375,0.625
109026481956,-15.25,4.375,-1.75
109026498369,-7.75,6,-3
109026520824,2.4375,6.5625,-0.375
109026543448,-0.1875,7.875,-0.125
109026558364,-6.9375,8.6875,1.125
109026580917,-13.5625,5.5,0
109026603404,-14.25,2.1875,-0.9375
109026618333,-9.5,2.0625,-0.125
109026642364,-1.9375,4.9375,1.3125
109026664060,1.4375,5,2.5625
109026677755,-2.375,1.25,-0.6875
109026700903,1.1875,-1.8125,-2.25
109026723363,1.3125,-2.5625,-1.5
109026738415,0,-1.75,-1
109026760892,4.6875,0.0625,0.9375
109026783388,7.375,3.125,3.1875
109026797868,3.4375,2.5,2.75
109026820884,-2.6875,-0.6875,0.0625
109026843428,0.125,-0.8125,-2
109026864421,0.375,1.6875,-1.375
109026881510,-0.0625,4.625,1.5
109026903392,-1.1875,4.8125,1
109026917688,-5.6875,3.75,0.75
109026941096,-7,-0.375,0.125
109026963447,-7.1875,-2.25,-0.4375
109026977708,-2.8125,-0.625,-0.3125
109027000923,1.8125,2.375,0.1875
109027023382,1.875,4.4375,0.3125
109027044552,-3.875,5.4375,1.875
109027060882,-10.3125,4.4375,3.5
109027084443,-10.25,2.375,2
109027104482,-7.25,0.6875,-0.625
109027120902,-4.625,0.125,-0.6875
109027143419,-2.0625,1.3125,-0.125
109027164482,1.8125,3.3125,0.625
109027180862,3.5,3.625,1.875
109027203467,2.375,3,2.75
109027224425,-1.625,0.8125,0.9375
109027240848,-4.1875,-0.875,-2.5
109027263540,-3.8125,-1.3125,-2.5625
109027284472,0.75,-0.1875,-1.375
109027301064,2.625,1.1875,0
109027323427,3.25,2.375,2
109027344542,1.0625,1.6875,1.5
109027360960,-3.5625,-0.9375,-0.1875
109027383460,-3.75,-1.375,-1.5
109027404520,-0.8125,-0.5625,-0.5
109027420912,0.5,1.3125,0
109027443463,-0.375,1.0625,0.125
109027464628,-0.5,1,0.5
109027480911,0.0625,0.9375,0.0625
109027503477,-1.0625,0.5,-0.25
109027525907,-1.375,0.3125,-0.3125
109027540889,-0.8125,0.9375,0.25
109027563444,0.375,0.875,0.4375
109027585925,-0.25,0.8125,0.25
109027600944,-1.0625,0.375,0
109027623471,-1.0625,0.25,-0.0625
109027645934,-0.1875,1.1875,0.6875
109027660350,0.3125,1.1875,0.375
109027683423,-0.5,0.4375,-0.125
109027706010,-1.0625,-0.25,-0.125
109027720314,0.25,0,0
109027743917,0.1875,0.1875,0.0625
109027765930,-0.125,-0.25,-0.125
109027780316,-0.25,-0.1875,-0.125
109027809568,-0.0625,-0.0625,0.0625
109027825900,0.875,0.3125,0.0625
109027840362,0.6875,0.4375,0
109027863502,-0.125,-0.0625,0
109027885941,-1,0.25,0.0625
109027901013,-1.125,0.0625,0.125
109027923456,-0.0625,-0.125,0.1875
109027945961,0.375,-0.25,0.25
109027960383,0.0625,0.125,0.125
109027983419,0.25,0.125,-0.0625
109028006010,0.6875,-0.125,-0.3125
109028027001,0.4375,-0.125,-0.4375
109028043416,0.5625,-0.0625,-0.4375
109028065987,-0.125,0,0
109028086985,-0.25,-0.6875,-0.1875
109028103864,-0.125,-0.4375,-0.0625
109028126027,0.1875,0.125,0.4375
109028146989,1.4375,0.3125,0.125
109028163492,-1,0.25,0.625
109028185974,-1.625,-0.25,0.125
109028207005,0,-0.3125,-0.4375
109028223474,-0.0625,-0.8125,-0.125
109028245977,1.75,0.125,-0.3125
109028267187,-1.4375,-0.5,0.4375
109028283483,-3.6875,-1,0.0625
109028305979,-3.0625,-0.9375,-0.8125
109028327060,-1.5625,-0.9375,0.125
109028343425,0.5,-0.5,1.0625
109028365985,1.8125,0.25,0.6875
109028387062,0.875,0.1875,0.9375
109028403848,-2.6875,0.4375,0.875
109028426009,-3,1.9375,0.3125
109028448412,-2.8125,-1,0.5
109028463505,-3.1875,-2.0625,-0.4375
109028485958,3.625,-0.8125,-1.0625
109028508439,8.3125,1.0625,-1.8125
109028523569,-2.625,0.375,-0.4375
109028545918,-0.875,-2.0625,3.8125
109028568469,6.75,-4.8125,0.125
109028582828,5.5,-5.4375,-1.125
109028605910,11.125,-2,0.3125
109028628472,5.5625,0.6875,0.0625
109028642848,0.8125,-1.4375,2.125
109028665939,0.75,-3.6875,-0.125
109028688519,-0.8125,-4.25,-3.125
109028702786,5.8125,-3.5,-2.75
109028726105,17.3125,0.125,1.4375
109028748481,10.625,-0.875,2.3125
109028762774,-2,-3.6875,-1
109028786017,-1.875,-3.8125,-3.0625
109028808483,2,-1.5625,-1.25
109028822839,14.25,0.8125,4
109028845940,4.25,-2.4375,1.4375
109028868529,-7.75,-4.1875,0
109028882896,-6.9375,-4.875,-0.125
109028905995,5.8125,-3.5,-1.875
109028934734,8.5,-0.0625,-0.75
109028957029,6.5,-0.5,-0.6875
109028965974,-4.875,0.5625,-0.3125
109028988534,-8.4375,-4.625,-3.125
109029009503,8.125,-4.5,-3.875
109029026027,13.6875,-2.625,-0.125
109029048483,11.5625,0.5,2.5625
109029071071,-3.5625,0.3125,1.1875
109029085944,-8.625,-4.3125,-1.625
109029108487,-7.4375,-6.125,-1.125
109029129615,10.375,-5.875,-0.0625
109029146025,25.25,0.625,2.5
109029168486,10.4375,7.5625,6.125
109029189644,-10.3125,1.75,1.9375
109029212763,-18.9375,-2.9375,-3.1875
109029228443,-10.375,0.25,-3.5
109029249620,15.125,4.8125,2.5
109029266008,6.125,10,2.9375
109029288519,-9.1875,3.625,0.6875
109029309518,-14.0625,-0.4375,-3.8125
109029326055,-3.875,-0.5625,-2.3125
109029348556,8.8125,2.5625,0.375
109029369511,1.9375,4.1875,-0.0625
109029386044,-7.625,2.25,0.4375
109029408486,-9.375,0.4375,-3.25
109029431295,-2.25,-0.5,-3.5
109029445405,7.0625,-0.6875,-1
109029468484,7.9375,2,0.125
109029491688,2.5625,-0.1875,2.5625
109029506019,-0.625,-1.9375,1.875
109029528534,-4.1875,0.0625,-0.125
109029551016,4.0625,4.875,-2.625
109029566800,1.6875,6.0625,-1.6875
109029588516,-12.375,8.9375,2.1875
109029611017,-17.3125,6.125,1.125
109029625325,-14.1875,3.875,-3.875
109029648565,-7.875,5.1875,-4.5
109029671005,-4.75,4.8125,-2.75
109029685366,-1.875,7.1875,2.9375
109029709263,2.25,8.375,6.1875
109029731110,-1.5,6,1.9375
109029745542,-6.3125,1.125,-3.5
109029768525,-6.875,-0.6875,-4.25
109029791060,-3.1875,1.875,-2.875
109029805399,5.1875,2.875,-0.375
109029828524,4.875,5.3125,5.1875
109029851003,-1.1875,1.625,1.0625
109029872025,-7.0625,-3.4375,-1.6875
109029896051,-6.75,-4.625,-3.625
109029911067,-1.4375,1.0625,-2.8125
109029932087,3.875,4.6875,0.4375
109029948621,5,7.375,4.4375
109029971037,-1.5625,5.4375,4.4375
109029992088,-9.1875,1.3125,-1.8125
109030008520,-9,-0.4375,-7.25
109030031011,-0.9375,0.4375,-5.375
109030052145,4.1875,2.25,-2.8125
109030068507,4.875,3.3125,-0.5
109030091109,2.75,2.8125,3.1875
109030113514,0.1875,1.6875,3.5625
109030128540,-4.375,-1.1875,0
109030151040,-5.75,-2.3125,-1.6875
109030172110,-0.125,-0.1875,-0.9375
109030188534,1.6875,1.0625,-0.4375
109030211030,1.625,1.75,1.5
109030232101,1.5,1.3125,1.5
109030248617,-0.4375,0.25,-0.625
109030271011,-1.25,-0.5,-1.5625
109030292111,0.4375,0.1875,-1.25
109030308486,-0.375,0.875,-0.4375
109030331058,0.125,1.125,0.3125
109030353550,0.875,1.3125,0.375
109030368572,-0.3125,0.1875,-0.0625
109030390988,0.5625,-0.375,-0.75
109030413616,1.4375,-0.25,-0.5625
109030427869,0.9375,0.25,-0.1875
109030451018,-0.9375,0.375,0.375
109030473603,-0.875,0.3125,0.75
109030487857,-0.1875,-0.0625,0.625
109030495377,0.75,0.25,-0.0625
109030516465,0.4375,0.4375,0
109030538917,-0.875,0.875,0.25
109030555524,-0.875,0.75,0.0625
109030576436,-0.25,0.3125,0.375
109030598935,-0.3125,-0.4375,-0.0625
109030615429,0.25,-0.5625,-0.375
109030636413,0.6875,-0.125,-0.375
109030659153,0.8125,0.1875,-0.1875
109030675402,-0.1875,0.1875,-0.25
109030696453,-1.3125,-0.6875,-0.4375
109030718993,-0.875,-1.125,-0.3125
109030735403,1.4375,-0.75,-0.375
109030756448,2.0625,-0.8125,-0.4375
109030778960,-0.0625,-0.125,0.1875
109030795361,-0.125,0.0625,0.8125
109030816514,0.8125,0.125,0.5625
109030838957,0.75,-0.0625,-0.1875
109030855373,0.125,-0.25,-0.0625
109030876531,0.1875,0,0.0625
109030898962,1.3125,0.1875,0.5625
109030915576,1.9375,-1.3125,1.4375
109030936468,-2.3125,-0.9375,0.5
109030960496,-3.4375,-1.75,-0.6875
109030975463,-0.0625,-1.3125,-0.5
109030996416,2.1875,-0.4375,-0.25
109031019161,2,-1.1875,1
109031035397,3.5625,-1.75,0.5625
109031056502,0.75,-0.625,-0.1875
109031079023,-2.125,-0.125,0.5
109031095367,-0.9375,-1.5,-0.25
109031124073,2,-4,-1
109031138966,0.9375,-1.1875,-2.9375
109031155431,-1.5625,-0.8125,-2.25
109031176600,3.5625,-1.8125,2.625
109031198931,11.375,-3,5.5625
109031215460,3.0625,-4.875,-1.875
109031236467,2.5625,-3.3125,-2.3125
109031258956,5.9375,-0.875,1
109031277059,6.9375,-1.9375,-0.625
109031296447,5.375,-4.9375,-1.75
109031319001,7.25,-3.5,-2.5
109031336974,4.9375,0.9375,-0.8125
109031356458,3.4375,1.4375,-3.6875
109031378985,-0.375,1.375,-3.75
109031396943,-1.9375,-1.8125,-3.75
109031416450,2.9375,-1.625,-5.0625
109031439026,2.6875,1.6875,-2.5
109031456870,2.5625,-0.375,-3.125
109031476530,1.1875,-3,-3.8125
109031499017,0.875,-3.875,-3.4375
109031516881,7.625,-1.0625,0.375
109031536750,5.9375,0.4375,1.3125
109031558969,0.9375,-4,-0.1875
109031577003,-3.0625,-6.75,-2.5
109031596702,-0.1875,-8.9375,-1.875
109031618937,14.9375,-5.3125,2.6875
109031637005,16.6875,-1.6875,4.625
109031656485,3.75,-2.9375,3.375
109031679030,2.375,-7.5,0
109031697105,2.8125,-5.6875,-0.3125
109031716483,8.6875,-3.625,3.5
109031739122,7.4375,3,6.875
109031756945,-3.3125,-0.3125,4.25
109031776455,-5.3125,-4.1875,-0.625
109031799079,-2.9375,-4.375,-0.6875
109031816923,10.5,0.8125,1.875
109031836618,-0.25,2.8125,2.75
109031859010,-11.9375,-3.25,0.375
109031876899,-3.5625,-5.3125,-1.5625
109031897973,10.4375,-0.0625,1.625
109031918965,8.1875,2.25,2.3125
109031936919,-8.5625,-1.625,0.375
109031957947,-9.25,-3.6875,-0.8125
109031986539,1.375,-1.25,-0.375
109031997090,8.0625,-0.25,0.875
109032017922,3.375,0.625,0.5
109032039170,-2.875,-0.4375,0.875
109032056932,-6.0625,-1.375,-1.5
109032086685,-0.25,-1.875,-1.5625
109032099168,7.8125,-0.1875,-2.0625
109032116922,8.3125,4.6875,0.625
109032137937,-4.375,4.6875,0.5625
109032159064,-12.875,1.125,-1.1875
109032176872,-17.5,3.3125,-3.375
109032197911,4.0625,1.25,-1.5625
109032220426,3.625,3.9375,1.875
109032237548,-5.125,5.1875,2.8125
109032259539,-4.0625,3.25,0.125
109032279007,-9,1.375,-1
109032297061,-5.6875,1.625,-2.625
109032319429,5.4375,3.4375,-3.6875
109032339026,-1.375,6.8125,-0.4375
109032356932,-11.1875,8,3.625
109032379382,-16.0625,6.125,2.8125
109032399145,-16.9375,0.1875,-6.125
109032416932,-3.0625,-1.9375,-7.1875
109032439484,9.0625,-2.375,-1.4375
109032459050,15.75,0.6875,2.625
109032476951,11.1875,4,4.9375
109032499642,-1.6875,3.5,2.25
109032519062,-12.3125,2.3125,-2.9375
109032542290,-16.75,1.25,-4.0625
109032559590,-11.3125,1.6875,-1.4375
109032579088,-2.1875,4.25,2.1875
109032597124,1.625,6,5.9375
109032619612,-1.6875,4.5,3.9375
109032638989,-4.8125,-0.8125,-1.3125
109032657034,-0.125,-1.6875,-3.1875
109032679447,2.5625,-0.9375,-5.25
109032699111,2.1875,3.75,-0.1875
109032717026,-2.9375,4.0625,4.25
109032739528,-5,2.6875,1.9375
109032759122,-8.625,-2,-2
109032776154,-6.375,-5.1875,-3.375
109032798674,-2.9375,-2.625,-3.625
109032821149,9.375,-0.6875,-1.5625
109032836171,14.4375,2.375,3.5625
109032858661,6.375,3.75,5.3125
109032879690,-7.0625,0.1875,2.875
109032897091,-11.75,-2.75,-1.9375
109032918700,-7.5,-3.375,-3.25
109032939699,-1.375,-1.75,-1.625
109032956206,2.1875,1.25,-0.625
109032978685,3.3125,1.6875,0.375
109032999634,2.3125,0.9375,0.9375
109033022260,-1.9375,-1.5,-0.3125
109033038699,-3.625,-2.375,-0.8125
109033059880,-1.4375,-1.875,-0.375
109033076234,1.3125,0.375,-0.4375
109033099119,1.375,2,0.75
109033119914,-0.3125,1.4375,1.4375
109033136175,-2.0625,0.25,0.125
109033158608,-1.5625,-0.4375,-1.625
109033181146,1.4375,0,-1.5
109033196138,-1.1875,1.125,-1.25
109033218697,-1,1.0625,0.9375
109033241151,0.0625,-0.1875,1.3125
109033256127,-1.125,-1.25,0.125
109033278771,-0.25,-1.3125,-0.375
109033301292,1.3125,-0.125,-0.25
109033315538,1.6875,0.1875,0.25
109033346141,0.875,0.0625,0.4375
109033361260,-0.25,-0.1875,-0.3125
109033375559,-0.5,-0.5625,-0.4375
109033398685,-0.4375,-0.5,-0.5625
109033421163,0.5,0.3125,-0.0625
109033435481,0.9375,1.0625,0.5625
109033458686,0.4375,1.0625,0.1875
109033481203,-1.4375,0.3125,0.375
109033495501,-0.5625,0.3125,0
109033518719,-0.125,0.125,0.1875
109033541192,0.4375,0.25,0.75
109033555485,-1.0625,-0.3125,0.9375
109033578821,-1.3125,-1.625,0.125
109033601165,-0.25,-2.25,0.3125
109033615483,1.25,-1.875,0.875
109033638675,0.75,-2,1.1875
109033661207,-0.0625,-2.0625,1.125
109033682289,-0.25,-1.9375,1.125
109033698662,-0.125,-1.6875,0.8125
109033721183,0,-1.4375,0.625
109033742247,0.9375,-1,0.3125
109033758702,0.9375,-1,0.5625
109033781234,0.5,0.75,-0.3125
109033809751,-0.0625,0.75,-0.25
109033826212,-1.625,0.3125,0.0625
109033841244,-1.6875,-0.3125,-0.375
109033862187,0.5625,0.0625,-0.5625
109033878849,5.25,2.125,-0.3125
109033901167,-1.25,1.75,0.875
109033929912,-5.4375,1,0.6875
109033938687,0.25,0.0625,1.9375
109033961196,6.6875,0.25,2.1875
109033982318,8.125,-0.0625,-0.1875
109033998726,0.625,1.125,1.0625
109034021248,-3.125,1.9375,3.5
109034042357,-0.75,-0.75,4.375
109034058697,8.75,-4,2.9375
109034088746,4.0625,-3,0.0625
109034102294,2.5,2.8125,2.4375
109034119479,5.5625,2.875,2.9375
109034141223,-3.75,-0.6875,0.1875
109034163715,-12.125,-4.0625,-2.625
109034178720,0.5,-4.375,-1.625
109034201028,16.9375,0.1875,-0.875
109034223754,13.6875,3.3125,-0.875
109034238066,-2.875,-0.4375,0.125
109034261204,-9.8125,-3.8125,0.8125
109034283763,0.25,-4.125,-1.3125
109034298130,13,0,-1.1875
109034321178,9.4375,2.9375,1.6875
109034343799,-4.625,3.375,1.75
109034358047,-13.375,-5.8125,-1.75
109034381203,-4,-8.125,-2.4375
109034403686,18.875,-1.1875,-1.75
109034424784,21.5625,5,2.5625
109034441242,2.6875,6,3.5
109034463711,-19.25,2.625,0.3125
109034484966,-21,-6.5625,-5
109034502623,8.375,-5.9375,-4.0625
109034523688,24.4375,4.75,2.75
109034544895,10,3.75,4.125
109034561314,-10.75,0.5,0.6875
109034583870,-13,-6.125,-4.375
109034604729,1.375,-6.0625,-3.0625
109034622526,16.5625,0.8125,1.75
109034643759,11.1875,4.4375,5.6875
109034664773,-6.625,1.8125,1.625
109034681375,-11.5625,-3.8125,-1
109034703872,-2.5,-3.6875,-2.0625
109034724753,11.1875,-0.1875,0.5625
109034741344,10.8125,3.9375,3.5
109034763730,-5.5,2.125,3.625
109034784756,-11.5625,-3.75,0.3125
109034801203,-2.9375,-3.5625,2.125
109034823742,15.4375,0.875,4.125
109034844895,5.875,2.875,3.9375
109034861255,-5.6875,-0.4375,4.625
109034883714,-10.125,-2.625,1
109034904806,-1,-3.0625,0.1875
109034921349,11.9375,1.8125,1.8125
109034943880,3.3125,2.625,1.375
109034964798,-5.125,1.125,1
109034981289,-11.1875,0.0625,-3
109035011398,-9.5,1.875,-4.625
109035024783,2.0625,2.5,-4.875
109035041744,1.5,4,-1.1875
109035063800,-5.375,2.3125,2.1875
109035086459,-8.875,-0.5625,0.125
109035100577,-6.875,1.5,-4.0625
109035123755,-0.9375,3.0625,-3.5625
109035147716,5.9375,5.0625,-5.5625
109035161286,-1.4375,4.875,-2.3125
109035183738,-1.8125,6.25,3.5625
109035212434,-5.5,0.5625,2
109035220565,-9.5625,-4.125,-7.5625
109035243791,-3.8125,-4.375,-9.1875
109035266344,6.4375,-0.0625,-4.125
109035280552,7.375,4.3125,-2
109035303866,-5.125,4.375,3.25
109035326298,-5.4375,3.5625,6.1875
109035341025,-6.625,1.25,1.125
109035363758,-12.125,0.8125,-3.4375
109035386295,-10.875,1.75,-5.3125
109035400603,-8.6875,3.5625,-1.75
109035423744,-3.3125,4.3125,1.75
109035446318,1.0625,4.3125,3.125
109035460584,-0.6875,2.0625,1.9375
109035483739,-3.625,1.1875,-2
109035506328,-5.5625,-0.0625,-2.0625
109035520683,-5.125,0.625,-0.125
109035543723,-4.375,1.5,0.25
109035566480,-1.0625,1.5,0.6875
109035587055,1.8125,0.75,-0.0625
109035603839,2.6875,0.6875,-0.875
109035626317,3.375,0.25,-1.125
109035647332,0.125,-0.8125,-0.75
109035663794,0.1875,-0.4375,-0.25
109035686281,-0.75,-0.5625,0.125
109035707457,0.5,-0.25,-1
109035723846,1,0.0625,-0.25
109035746276,0.875,0.0625,0.875
109035767573,-0.125,0.4375,0.5
109035783778,-0.1875,0.1875,0.75
109035806475,-0.5625,1.0625,0.9375
109035827401,-1.3125,1.75,-0.4375
109035843734,-3.6875,0.75,0.25
109035873785,-3,0.25,0.3125
109035887318,-1.375,1.125,0.25
109035903812,-0.0625,1.3125,0.4375
109035926318,-0.125,0.875,1.0625
109035947378,-0.25,-0.0625,0.3125
109035963810,-0.125,-0.375,-1.3125
109035986301,0.75,-0.5,-0.5625
109036008855,-0.6875,-0.125,0.625
109036023812,-0.25,-0.0625,0.3125
109036046278,0.8125,0.3125,0.125
109036068877,0.5625,-0.25,0
109036083894,-1.5,-1.375,0
109036106348,-1.0625,-0.8125,-0.25
109036128882,0.625,-0.125,0.5
109036152858,0.75,0.375,0.5625
109036166313,-0.4375,0.6875,0.3125
109036188797,-1.1875,0.625,0.25
109036203090,-1.4375,0.75,0.0625
109036232504,-1.75,0.25,-0.125
109036248780,-1.375,0.4375,-0.125
109036263146,-1.1875,0.5625,0.5
109036286338,-0.75,0.8125,0.0625
109036308788,-1.0625,1,0.4375
109036323163,-0.6875,1.0625,0.5625
109036346301,-1.5625,0.875,-0.125
109036368874,-2.875,0.875,-0.3125
109036389880,-3.4375,-0.1875,-0.5
109036406349,-2.125,-0.5,0
109036428796,0.0625,-0.1875,0.1875
109036443173,0.8125,0.375,0.3125
109036466691,2.25,1.1875,0.125
109036488786,0.5625,0.4375,-0.4375
109036509831,-1.25,-0.3125,-1
109036533820,-0.625,-0.9375,-1.0625
109036548803,0.1875,0.6875,-0.5
109036569890,1.875,0.6875,0.6875
109036586357,-0.9375,-0.5625,0.5625
109036608862,-1.0625,-1.5,0.8125
109036629919,-0.8125,-1.75,0.5
109036646321,2.6875,-1.0625,0.6875
109036669091,0.5,-1.3125,0.5
109036689916,-4.3125,0.0625,2.25
109036706295,0.6875,-1.1875,1.125
109036728901,3.4375,-2.5625,-1.5
109036749828,-0.125,-4.375,-1.8125
109036765656,2.8125,-4,-0.0625
109036788835,5,-2.3125,2.4375
109036811298,13.5,1.5625,3.625
109036826314,4.125,1.9375,-0.75
109036848845,-8.75,-1.25,-0.5
109036870072,-9.5625,-3.5625,-1.6875
109036886365,1.3125,-4.8125,-0.625
109036909276,13.125,-1.375,-0.8125
109036929966,15.4375,-0.625,-0.0625
109036946768,7.3125,-0.375,0.625
109036970420,0.9375,-3.5,0.125
109036991379,0,-5.4375,1.9375
109037006707,8.625,-4.375,-1.8125
109037028897,9.625,-1.0625,-1.9375
109037058053,12.6875,-2.5625,0.5625
109037059675,10.3125,-2.75,1.3125
109037079368,3.6875,-1.0625,2.1875
109037094278,1.625,-2.375,0.125
109037116744,2.5625,-5.9375,-3
109037131843,10,-4.25,-2.625
109037154335,13.4375,-2.9375,-2
109037176650,13.25,-3.375,0.5
109037191696,5.5625,-1.75,-0.5625
109037214171,-2.9375,-1.25,-0.125
109037236714,1,-3.4375,0.4375
109037251800,0.5,-7,1.8125
109037274174,10.75,-5.9375,2.75
109037296761,7.8125,-5.0625,0.875
109037311739,2.625,-7.25,-1.1875
109037334208,6.5,-7.5,-0.125
109037356760,18.8125,-4.9375,1.6875
109037371768,12.5,-1.0625,3.125
109037394384,-2.5,-1.875,2
109037416681,-8.875,-3.0625,-2.8125
109037431703,-1.875,-1.875,-1.9375
109037454377,2.9375,0.75,0.75
109037476691,1.1875,0.6875,2.1875
109037491697,-4.625,3.25,2
109037514226,-9.4375,1.5,-0.0625
109037536776,-8.4375,2.1875,-0.8125
109037553218,-9.125,4.9375,1.25
109037574254,-6.25,8.6875,1.5625
109037596928,-12.5,8.1875,-0.9375
109037613231,-6.625,8.9375,-4.0625
109037641699,-14.5625,8.5,-6.5625
109037656731,-19.5625,1.1875,-4.8125
109037673155,-8.6875,0.4375,-1.75
109037694330,-4.8125,2.8125,-0.4375
109037716729,0.75,-3.5,-0.375
109037740686,10.0625,-2.3125,-3.375
109037754440,5.25,0.125,-2.5625
109037776853,-3.375,1.0625,1.9375
109037793229,-6.4375,0.5,2.125
109037817621,-10.375,0.8125,3.1875
109037836778,-8.4375,-0.6875,0.5
109037853327,-0.5625,0.25,-2.4375
109037874226,2.5625,1.8125,-2.4375
109037896695,-0.125,5.8125,2.4375
109037914852,-2.375,7.875,5.3125
109037934244,-5.125,5.625,2.9375
109037964502,-11.3125,1.6875,-1.5
109037974707,-9.5,0.5625,-3.75
109037994181,-3.3125,1.875,-1.4375
109038016715,0.5,2.1875,-1.0625
109038035534,-2.5,2.125,2.75
109038061776,-2.3125,2.875,5.25
109038076757,-3.375,2.0625,3.125
109038096770,-6.375,1.375,-2.75
109038114210,-7.875,1.375,-4.5
109038136700,-6.375,4.25,-3.1875
109038154706,-6.125,5.8125,-1.25
109038174318,-3.75,6.875,3.875
109038196821,-4.0625,6.1875,4.3125
109038214684,-8.75,2.875,-0.125
109038234306,-10,-0.4375,-2.4375
109038256774,-4.125,-1.3125,-2.125
109038274711,2.6875,0.9375,-1.125
109038294288,4.875,2.0625,0.75
109038316890,1.625,1.0625,1.5625
109038334681,-0.1875,-0.875,-0.5
109038354314,-0.6875,-2.0625,-1.125
109038376811,0.375,-1.8125,-0.4375
109038394685,0.4375,0.25,0.4375
109038414354,1.1875,1.4375,0.75
109038436779,1.3125,0.5625,0.25
109038454779,-0.4375,-0.5,-0.3125
109038474375,-1.375,-0.125,-0.5
109038496906,-0.125,0.8125,-0.0625
109038514797,-0.1875,1.625,0.25
109038535747,-0.6875,1.3125,0.3125
109038556778,-1.375,0.9375,0.25
109038574751,-1.875,0.8125,-0.125
109038595717,-1.4375,0.75,0
109038616738,-0.25,1.3125,-0.1875
109038634646,0.875,1,0.1875
109038655719,0.25,1.1875,-0.0625
109038676773,-0.9375,0.5625,-0.25
109038694677,0.3125,-0.25,-0.25
109038715680,0.6875,-0.8125,-0.5625
109038736774,1.375,-0.9375,0.125
109038754695,0.0625,-0.375,-0.0625
109038775731,0.75,-0.5625,0.1875
109038796758,2.125,-0.75,-0.6875
109038814645,1.375,-0.875,-0.25
109038837166,-0.1875,-0.375,0
109038856763,-0.3125,0.8125,-0.3125
109038874681,0.4375,0.8125,0.125
109038897264,0.1875,-0.4375,-0.375
109038916725,-0.9375,-0.8125,-1.125
109038934691,-0.5,-0.1875,-0.5
109038957279,-1,0.5625,0.25
109038976767,0.375,0,0.6875
109038994739,0.875,-0.8125,0
109039017383,0.3125,-1.1875,-0.5
109039036811,-1.6875,-0.75,-0.25
109039054716,-1.125,0.4375,0.6875
109039077324,0.5,0.1875,0.6875
109039096815,1.4375,-0.0625,0.0625
109039114673,1.625,-0.25,0.125
109039137319,0.375,0.125,1.125
109039156799,-3.4375,0,-0.375
109039174822,-3.75,-0.3125,0.5625
109039203285,0.9375,-1.0625,0.625
109039216794,2.5625,-1.1875,-0.0625
109039234746,3.1875,-1.4375,-0.625
109039257278,4.875,0,-0.3125
109039276994,1.375,0.3125,-0.0625
109039302273,-2.125,-0.875,-1.125
109039317279,1,-2.5,-2.125
109039337536,8.25,-1.9375,-1.5
109039353879,6,0.8125,-1.1875
109039376487,4.9375,0.3125,0.75
109039397507,3.1875,0.75,-1.625
109039415579,-4.25,2.5625,0.375
109039436471,-1.8125,0.375,2.3125
109039457534,4.6875,-1.375,0.8125
109039480021,2.875,-1.25,-1.25
109039496441,6.25,2.25,0.8125
109039517450,1.125,3.3125,2.1875
109039534003,-1.3125,-4.125,2.5
109039556400,5.9375,-9.25,-0.375
109039577556,11.6875,-5.9375,-2.4375
109039593991,16.0625,-0.5,-1.0625
109039616460,7.125,1,1.0625
109039637430,2.4375,-4.875,-1.625
109039653950,-1.9375,-6.5,-4.875
109039676401,-0.0625,-4.5,-3.25
109039697441,15.125,-2.875,-1.375
109039713896,17.625,1.9375,2.375
109039736398,7.5,1.875,2.25
109039758949,-4.9375,-1,-1.5625
109039773939,-9.25,-0.375,-3.5625
109039796409,1.1875,-1.625,-2.0625
109039819907,4.4375,1.9375,2.0625
109039833920,0.5625,0.75,2.25
109039856450,1.625,-1.9375,1.4375
109039879012,-4.5,-2.5625,1.3125
109039893943,0.125,-5.625,0.375
109039918286,6.125,-3.3125,0.0625
109039938917,5.0625,-1.5625,2.625
109039953933,0.125,-1.25,1.8125
109039976508,-6.25,-5.25,-1
109039999004,1.75,-6.0625,-2.875
109040013280,14.125,-0.0625,0.0625
109040036472,5.8125,1.9375,1.5625
109040058920,-9.4375,1.6875,1.75
109040073331,-15.75,-2.3125,-2.4375
109040096488,-11.3125,-3.5,-1.5
109040118939,1.9375,0.0625,-0.625
109040133389,11.5,4.125,0.1875
109040162486,2.5,3.5,1.1875
109040179026,-7.1875,1,1.6875
109040193304,-17.0625,-2.8125,-2.6875
109040216433,-4.5,-4.1875,-4.5625
109040238973,22.8125,3.4375,-4.3125
109040260106,20.1875,8,-1.0625
109040276464,-2.1875,12.625,7.9375
109040299174,-20.125,8.5625,8.875
109040320061,-25.125,1.4375,-2.3125
109040336468,-21.3125,-2,-10.1875
109040359022,-0.375,0.8125,-6.5625
109040380071,3.875,4,-1.5
109040395839,9.6875,5.1875,4.25
109040418969,7.5625,5.25,6.4375
109040441646,-1.4375,1.75,4.6875
109040456522,-8.3125,-1.9375,-2.0625
109040478951,-7.4375,-1.5,-4.125
109040500253,1.5625,5.625,-4.75
109040516496,0.75,8.5,-2.625
109040538952,-1.1875,10.9375,3.625
109040560075,-3.75,11.4375,5.1875
109040576537,-8.625,8.75,1.25
109040599025,-18.125,5.5625,-4.1875
109040619981,-19.625,4.3125,-6.75
109040635803,-14.75,4.25,-5.875
109040659002,-7.3125,4,-1.8125
109040680048,4.1875,4.6875,1.9375
109040695889,6.8125,3.5625,4
109040718949,2.375,1.375,2.625
109040741526,-3.6875,-1.5,0.875
109040756518,-7.1875,-2.25,0.0625
109040779015,-6,-0.875,-0.5
109040801457,-1.3125,1.0625,-0.4375
109040816446,1.8125,1.5625,0.375
109040838973,2.4375,1.25,1
109040861361,0.1875,0.1875,0.8125
109040882539,-2.4375,-0.5,-0.5
109040899042,-2.8125,-1,-0.875
109040921456,0,-0.875,-0.25
109040936768,1.3125,-0.125,0.1875
109040959049,1.9375,0.5625,0.5
109040981463,0.25,0.8125,0.5
109040995895,-1.1875,0,0.6875
109041019012,-1.5625,-0.625,-0.125
109041041505,-0.4375,-0.1875,-0.125
109041062587,0.8125,0.3125,0
109041078965,1.25,0.6875,0.0625
109041101500,0.4375,0.25,0.125
109041115850,-0.375,0.25,0.1875
109041139261,-0.875,-0.375,-0.3125
109041161602,-0.5625,-0.125,-0.25
109041175854,0.25,-0.25,0
109041199032,0.5625,0.0625,0.125
109041229006,0.625,0.125,0
109041242517,-0.0625,-0.1875,0
109041259040,-0.625,0.0625,-0.1875
109041281464,0.125,-0.1875,-0.125
109041302690,0.9375,0.4375,-0.1875
109041319055,0.1875,-0.125,-0.25
109041349171,-0.375,-0.25,0
109041362599,-0.1875,-0.3125,-0.0625
109041379029,0.625,-0.1875,0.25
109041401490,0.5,-0.375,0.3125
109041422569,-0.5625,-0.1875,0.25
109041439008,-0.0625,-0.3125,-0.1875
109041461535,0.1875,0,0.0625
109041482623,-0.375,-0.4375,-0.1875
109041499023,-0.4375,-0.1875,0
109041521565,0,0.1875,0.1875
109041542528,0.5625,0.375,-0.0625
109041559047,-0.625,-0.0625,0.375
109041581546,0.5,0.125,0.375
109041602567,1.0625,-0.4375,0.1875
109041619014,0.5625,-0.5625,-0.625
109041641515,0.5,-0.8125,-0.6875
109041662648,1.6875,-1.0625,0.3125
109041678975,0.9375,-0.625,0.0625
109041701509,-0.5,0.375,0.3125
109041724016,-0.3125,-0.25,0.25
109041739024,-1.5625,-0.75,-0.1875
109041761553,0.5625,-0.75,1.125
109041784126,2.125,0.1875,0.625
109041799039,0.25,0,0.0625
109041821516,-1.5,-0.75,-0.3125
109041844071,0.1875,-2.5,0.4375
109041858364,1.6875,-1.625,0.125
109041881536,1.5,-0.0625,0.75
109041904034,-1.9375,-0.1875,1.125
109041918377,-6.5,-1.1875,2
109041941577,1.1875,-3.6875,1.375
109041964928,3.1875,-6.1875,0.8125
109041978898,7.75,-4.375,2.0625
109042001511,10.9375,-0.5625,4
109042024098,10.5,-0.3125,3.125
109042038446,-1.1875,-4.875,1.25
109042061552,-0.6875,-8.8125,1.125
109042084068,16.6875,-5.375,-2.5625
109042105079,17.3125,1.125,-3.375
109042121555,9.5,2,-1.6875
109042144134,0.4375,-1.4375,-2.6875
109042158406,-4.375,-2.1875,-5.125
109042181602,-1.75,-4.1875,-2.6875
109042203986,13.5,-2.375,-1.125
109042225240,14.1875,2.125,0.5
109042241597,3.875,3.875,2.625
109042264037,-9.375,-0.3125,0.9375
109042285322,-9.3125,-4.5625,-2.5625
109042301521,-2.625,-6.125,-0.3125
109042324033,13.9375,-0.8125,2.1875
109042352596,14.125,2.125,4.625
109042361553,-4.4375,0.1875,3.6875
109042385576,-12.375,-7.875,-2.9375
109042405110,-1.75,-6.1875,-3.6875
109042421578,14.625,-2.875,1.0625
109042444120,12.75,1.4375,4.1875
109042465091,-6.875,-3.3125,0
109042481707,-5.125,-7.4375,-2.9375
109042504050,9.1875,-2.5625,-0.75
109042525095,20.0625,0,1.0625
109042547763,6.8125,0.8125,0.25
109042564083,-11.3125,-2.125,-2.0625
109042585266,-8.1875,-0.1875,-1.75
109042600915,2.5,2.9375,2.5625
109042624025,3.3125,2.9375,2.375
109042646671,-4.1875,2.6875,2.75
109042661556,-9.5,1.375,1.3125
109042684213,1.125,2.8125,0.3125
109042712576,0.1875,6.3125,0.5
109042721682,-10.1875,5.4375,1.375
109042744116,-15.5,4.9375,0.375
109042766585,-9.1875,5.375,-2.6875
109042781652,3.9375,5.1875,-4.75
109042810105,0.9375,7.9375,-3.25
109042826516,-10.5625,5.75,0.125
109042840954,-13.875,-0.4375,0.25
109042865502,-10.125,-2.75,-1.25
109042886599,1.875,-2.3125,-3.0625
109042900927,12.875,0.8125,-4.5625
109042924040,15.6875,5.375,-1.375
109042946638,4.0625,4.3125,1.75
109042960918,-10,0.8125,1.3125
109042985009,-8.9375,-0.0625,0.625
109043006591,-2.5625,3.25,-0.5625
109043020857,0.1875,4.4375,-5.3125
109043044131,-4.3125,5.125,-2.0625
109043066592,-1.1875,8.125,1.875
109043089123,-10.25,6.5,-0.6875
109043104173,-17,4.8125,0.0625
109043126564,-9.0625,6.3125,2.1875
109043147625,-5.3125,6.8125,2.6875
109043164059,-5.1875,6.5625,2.125
109043187401,-7.5625,6.25,1.875
109043207676,-8.0625,5.0625,1.1875
109043224180,-8.1875,5,-0.0625
109043246606,-4.875,4.25,-0.625
109043267605,-0.25,3.75,-0.0625
109043284021,-1.875,3.9375,1.4375
109043306615,-3,3.25,1.875
109043327686,-3.1875,2.6875,1.75
109043344070,-3.4375,1.4375,0.75
109043366617,-2.6875,1.5,0.625
109043388861,-2.5,1.4375,0.4375
109043404135,-1.1875,2.0625,0.5625
109043426568,-0.4375,2.125,1.125
109043447691,0.1875,2.125,1.125
109043470144,-1.6875,0.9375,-0.3125
109043486548,-3.3125,-0.0625,-0.1875
109043507728,-1.375,-0.5,0.1875
109043524098,1.0625,-0.1875,-0.0625
109043546623,2.3125,-0.25,0.5625
109043569101,1.75,-0.6875,0.6875
109043584144,0.875,-1.1875,0.6875
109043606634,0.8125,-1.8125,0.5
109043612145,0.5,-1.6875,-0.25
109043634535,1.5,-0.9375,0.0625
109043649709,1.875,-0.0625,-0.125
109043671995,1.125,-0.3125,-0.375
109043694467,0.8125,-1,-0.8125
109043709477,1.125,-0.25,-1.0625
109043731977,0.8125,-0.25,-1.3125
109043754642,-0.9375,-0.375,-1
109043769809,-0.5625,-0.6875,-0.125
109043791929,0.0625,-0.625,0
109043817542,0.375,-1.3125,-0.3125
109043830966,0.9375,-1.75,-0.3125
109043852148,1.125,-1.625,0.0625
109043874549,1.75,-1.125,0.0625
109043889499,0.875,-1.0625,0.25
109043919706,0.8125,-1.125,0
109043934561,0.5,-1.125,-0.375
109043952445,-0.1875,-1.125,0.1875
109043972054,-0.75,-0.25,-0.3125
109043994560,-0.75,-0.125,0.25
109044009540,-0.625,0.4375,0.0625
109044031990,-0.625,-0.375,0.0625
109044054542,-0.25,-0.1875,0.125
109044069605,-0.6875,0,0.125
109044092075,0.125,0.3125,0.9375
109044114485,-0.4375,-0.125,0.3125
109044129556,-0.25,-0.8125,-0.1875
109044152051,-0.0625,-1.125,-0.5625
109044174610,0,-1.375,0.3125
109044190968,0.9375,-0.625,0.3125
109044212089,1,-0.1875,0
109044234471,1.0625,-0.75,0.375
109044250988,0.125,-1.25,-0.125
109044272158,0.625,-1.4375,0.0625
109044294521,1.4375,-0.8125,-0.0625
109044310902,1.5,0.4375,0.25
109044332081,0.9375,-0.5,0.375
109044354589,-0.3125,-0.9375,0
109044370991,-0.375,-1.0625,-0.0625
109044392027,0.875,-0.5625,0.4375
109044422934,1.375,0.4375,0.875
109044430969,1,0.375,0.9375
109044451991,-1.375,-0.1875,0.625
109044477505,-1.25,-0.625,-0.0625
109044490998,0.0625,-0.375,-0.4375
109044512021,-0.6875,0.75,0.125
109044534581,4.0625,0.8125,1.25
109044552388,-0.6875,0.875,-1.125
109044573461,-12,-1.25,0.5
109044594527,-3.625,-2.8125,-0.375
109044612447,6.3125,-5.25,1.5625
109044632199,14.5,-3.8125,1.4375
109044654515,9,1.125,4
109044672444,3.5,1.625,5.125
109044692054,7.125,-2,1.125
109044714549,-6.625,-11.3125,-2.4375
109044732614,12.375,-9.125,-0.5625
109044754962,29.1875,-1.25,1.8125
109044774576,22.3125,5.4375,-0.8125
109044792493,4.125,4.5,1.1875
109044812120,-12.0625,-5.3125,-4.9375
109044834726,-11.125,-5.375,-4.625
109044852457,5.1875,-1.375,-2.125
109044872248,17.1875,2.1875,2.5
109044894515,17.25,1.0625,4.9375
109044913417,1.25,-1.4375,2.375
109044932192,-7.375,-6.9375,0.125
109044954639,-3.9375,-3.4375,-0.9375
109044972463,2.25,-4.4375,1
109044992092,7.3125,-5.25,1
109045014552,7.75,-6.375,-0.5625
109045032532,9.3125,-4.1875,-0.4375
109045052076,5.9375,-1.0625,1.625
109045074624,1.8125,-1.8125,-1.0625
109045092554,-6.0625,-5.1875,-2.25
109045114962,4.4375,-4.25,-1.75
109045134579,6.0625,-0.75,-0.375
109045152504,3.875,0.625,-0.5
109045175011,-1.9375,-1.75,-0.4375
109045202073,-0.4375,-3.9375,-0.9375
109045212458,3.25,-2.875,0
109045235147,4.8125,0.0625,1.25
109045254599,0.125,0.125,1.6875
109045272486,-5.75,0,1
109045293610,-6.875,-0.1875,-0.3125
109045314550,1.6875,1.5625,0.4375
109045332483,0.9375,6.5,1.9375
109045353524,-7.25,6.6875,1.375
109045374616,-13.1875,3.125,-1.5
109045392499,-18.9375,-0.75,-3.125
109045413507,1.4375,-1.5625,-2.375
109045434519,8.375,4.5625,0.3125
109045452631,1.75,4.6875,3.5
109045473577,-10.5,4.5,2.125
109045494742,-16.125,0,-2.625
109045512508,-11.1875,-1,-4.125
109045536876,-6,1.375,-2.4375
109045554804,7.25,0.8125,-0.5625
109045572476,11.5,4.875,2.1875
109045595109,5.0625,6.4375,4.6875
109045614653,-2.875,1,-1.875
109045632573,-0.875,5.0625,-8.25
109045655109,-6.875,3.5625,-7.3125
109045674613,-10.75,0.625,-2.875
109045692539,-5.8125,0.3125,0.25
109045715039,7.25,1.75,1.3125
109045734566,3.6875,2.5,6.5
109045752601,-5.25,2.5625,5.125
109045774990,-8.5,0.75,-0.125
109045794768,-9.0625,2.5,-3.875
109045813160,-11.875,4.1875,-4.1875
109045834204,-7.625,4.875,-1.375
109045854784,1.375,8.5,3.3125
109045871715,6.625,10.25,4.4375
109045894273,-3.1875,8.75,2.75
109045915401,-16.375,4.1875,-2.375
109045931661,-19.25,1.25,-4.9375
109045954270,-9.8125,1.4375,-3.6875
109045975284,-0.625,3.375,-0.9375
109045991684,5.0625,3.0625,1.625
109046014220,4.25,1.5,3.4375
109046035247,2.0625,-0.3125,2.125
109046051724,-2.125,-2.6875,-0.1875
109046074237,-4.0625,-2.9375,-0.875
109046095347,-0.375,-2.1875,-0.25
109046111864,4,0,-0.1875
109046141686,4.625,0.875,0.3125
109046155235,2.1875,0.4375,0
109046171718,-0.5,-0.625,-0.75
109046194282,-0.9375,-0.8125,-0.5
109046215477,0.3125,-0.3125,-0.125
109046231715,1,0.5625,0.25
109046254238,-0.0625,-0.375,0.875
109046275501,-0.0625,0.5625,0.375
109046292087,-0.0625,0.375,0.125
109046314379,-1,0.625,0.75
109046335232,-1.3125,0.75,0.8125
109046352795,-0.625,1.3125,0.4375
109046374233,0,0.6875,0
109046395265,-0.3125,0.4375,0.125
109046419264,-0.5625,0.3125,0.125
109046434318,-0.625,-0.25,-0.25
109046456715,0.125,-0.4375,-0.1875
109046471745,0.625,-1.375,0
109046494660,0.375,-1.25,-0.375
109046516745,0.375,-1.5,-0.0625
109046531731,1.625,-0.875,0.25
109046555060,0.8125,-0.75,-0.375
109046576702,2.125,-0.6875,0
109046591054,1,-0.75,0.4375
109046614312,-0.25,-1,-0.4375
109046636744,-0.5,-0.9375,-0.625
109046651029,0.8125,-0.0625,-0.1875
109046674323,1.0625,0.5,0.5
109046696702,-0.375,0,-0.25
109046711036,-2.0625,0,-0.3125
109046734215,-1.4375,0.0625,-0.375
109046756687,0.3125,0.25,-0.5625
109046771125,1.25,-0.75,-0.1875
109046794241,1.4375,-0.875,0.4375
109046824358,2,-1.0625,-0.125
109046831104,-0.375,-2.0625,-0.3125
109046855201,-2.625,-2,-0.5625
109046876769,1.3125,-1.6875,0.875
109046891594,5.4375,-0.9375,1.0625
109046914261,2.125,-0.8125,1
109046937177,0.5,-1.4375,-0.8125
109046957808,-0.4375,-2.1875,-1.375
109046974731,-0.125,-2.0625,-1.3125
109046996718,-0.5625,-0.25,0.625
109047017879,1.875,-0.4375,2.625
109047034353,-5.625,-0.0625,2.1875
109047056771,-4.3125,-1.6875,2.375
109047077967,5.0625,-2.25,-0.5625
109047094321,7.375,-2.625,-1.5
109047116715,3.5,-1.625,6.1875
109047138026,11.75,0.4375,10.25
109047154300,15.25,-9.3125,2.3125
109047176765,16.5,-6.625,-4.1875
109047197796,19.4375,1.125,-4.0625
109047214370,10.875,2.9375,0.9375
109047236825,-1.4375,1.375,-0.375
109047257786,-10.3125,-3,-5.375
109047274288,-6.625,-4.625,-4.625
109047296770,9.5625,0,-2.4375
109047317856,19,3.125,1.0625
109047334443,2.8125,0.125,1.25
109047356742,-9.3125,-2.125,1.625
109047379316,-6.9375,-6.875,-1.5
109047394300,3.625,-5.8125,0.5
109047416721,16.5625,-2.9375,2.5
109047439314,10.6875,-1.625,4.875
109047454286,-4.75,-1.8125,2
109047476826,-8.75,-7.125,-2.3125
109047499361,2.5625,-5.1875,-2.625
109047514288,14.4375,-3.5625,-1
109047538279,15.125,-1.375,1.75
109047559290,-3.5625,-0.9375,-0.4375
109047580393,-8.875,-5,-2.5
109047596855,1.625,-5.125,-3.1875
109047619281,15.4375,-3.1875,0.625
109047633637,10.1875,1.4375,3.125
109047656822,-2.9375,0.625,3.125
109047679306,-10.8125,-0.4375,-0.125
109047693645,-8.6875,-0.3125,-0.9375
109047716784,3.9375,3.3125,-0.375
109047739298,0.875,6.125,-0.0625
109047753612,-12.125,2.1875,-0.0625
109047776855,-10.3125,-4.4375,-1
109047799425,1.8125,-2.4375,-1.625
109047813580,9.4375,1.9375,0.6875
109047836813,11.125,1.6875,2.875
109047859313,-1.5,2.9375,1.75
109047874384,-13.8125,1.25,-0.25
109047896797,-13.0625,0.0625,-1
109047919313,-11.4375,0.4375,-0.3125
109047940363,-3.375,3.5,-1.3125
109047956842,0,3.1875,-2.3125
109047985375,-1.4375,4.875,0.6875
109048000611,-4.1875,4.125,-0.4375
109048016818,-2,3.6875,-2.75
109048039359,0.25,5.25,-3.5
109048060465,-1.3125,7.9375,-3.375
109048082845,-5.6875,6.1875,-1.875
109048099421,-5.375,6.4375,0.875
109048120313,-4.4375,4.625,4.0625
109048136770,-8.5625,4.25,0.625
109048166781,-10.375,3.9375,-3.625
109048180366,-13.625,4.125,-1.75
109048196743,-9.75,5.9375,0.3125
109048219297,-4.375,6.25,3
109048240373,-1.4375,6.125,5.75
109048256816,-5.1875,3.8125,3.125
109048279305,-9.875,0.4375,-0.375
109048300352,-7.25,-1.8125,-1.6875
109048316796,-1.5,1.375,-1.1875
109048339336,3.8125,2,-0.1875
109048361646,4.1875,1.6875,0
109048376797,1.375,0.625,0.6875
109048399420,-0.75,0.125,-1.25
109048421797,-1.4375,-1.25,-2.875
109048436806,-2.1875,-1.375,-0.4375
109048459356,-0.5625,-0.6875,0.5625
109048481810,1.9375,-0.5625,1
109048496157,1.8125,0.125,1.0625
109048519323,0,-0.0625,0
109048541817,-0.6875,0.6875,-0.5
109048556198,-2,0.75,-0.4375
109048579327,-2.875,1.25,0.5
109048601766,-2.625,1.375,0.625
109048616202,-1.75,0.8125,0.125
109048639311,-0.25,0.8125,-0.1875
109048669800,0.375,0.3125,-0.1875
109048676118,0.8125,0.5,-0.125
109048699428,-0.75,-0.125,0.1875
109048721790,-1.5625,-0.3125,0.4375
109048736118,-1.4375,-0.75,-0.4375
109048759374,0.625,-0.5625,0.25
109048781820,1.375,-0.6875,-0.4375
109048802903,1.375,-1.0625,-0.375
109048819379,1.375,-1.25,0.1875
109048841838,1,-1.5,0.625
109048862879,0.4375,-0.75,0.4375
109048879316,1.5625,-0.75,0.5
109048901809,1.0625,-1.125,0
109048922838,0.5,-1.125,0.125
109048939288,1.375,-0.375,0.4375
109048969320,0.5,0.5,-0.0625
109048982860,-0.1875,-0.4375,0.375
109048999359,1.6875,0.5625,0.9375
109049021830,-2.375,0.8125,0.375
109049042915,-7,1.125,0.375
109049059374,-9.6875,-2.1875,0.625
109049081846,-1.1875,-1.75,2.4375
109049102893,7.125,0.125,0.75
109049119366,7,-1.6875,0.1875
109049141833,2.1875,1.6875,1
109049163053,-0.5,2.375,0.8125
109049179370,-3.125,0.0625,-0.125
109049202851,-5.375,-2.5,-1.4375
109049223013,-1.25,0,-1
109049239298,2.75,0.6875,0.375
109049262008,1.0625,0.125,1.6875
109049284387,0.375,-0.375,0.875
109049299366,1.25,-1.625,0.625
109049321876,3.9375,-2.3125,-0.5625
109049344448,4.75,-0.6875,1.3125
109049359462,8.625,-0.0625,3.25
109049381840,3.25,-2.375,2.4375
109049404362,5.25,-11.3125,-3.6875
109049419380,8.125,-8.8125,-6.125
109049441857,21.9375,0.5625,-0.3125
109049464396,17.1875,4.3125,2.4375
109049478746,-5.25,-2.875,-1.1875
109049501828,-16,-8,-3.625
109049524413,-7.5,-7.625,-3.5625
109049538683,14.75,-6.4375,0.625
109049561868,24.375,0.875,4.0625
109049584407,7.375,5.875,4
109049605430,-16,0.875,0.3125
109049621848,-17.4375,-6.5625,-4.5625
109049644351,-4.125,-3.5625,-2.3125
109049665583,12.5,0.8125,2.1875
109049681912,11.9375,1.0625,4
109049704384,-0.75,-1.625,1
109049718669,-5.125,-7.1875,-1.375
109049749345,3.9375,-4.9375,-1.5625
109049764371,9.5,-2.1875,2.1875
109049778767,8.3125,-0.4375,3.3125
109049801865,-3.625,-2.25,1.5625
109049824417,-4.4375,-6.4375,-1.625
109049845418,10.5,-3.8125,-0.3125
109049861859,12.8125,1.75,0.25
109049884494,-0.0625,0.875,1.625
109049905445,-12.4375,-3.75,-2.25
109049928032,0.0625,-3.375,-3.1875
109049944441,13.5,0.75,-0.875
109049965369,9.8125,2.3125,-0.125
109049981865,-2.8125,-0.1875,-0.9375
109050004379,-4.8125,-0.875,-0.6875
109050025443,2.6875,1.0625,0.3125
109050041887,-1,1.5,-0.75
109050064358,-6.8125,-0.1875,0.375
109050085571,-2.8125,-1.75,-0.8125
109050101862,1,-0.5,-0.375
109050124115,-1.5,-2.5,-1.3125
109050145492,0.875,-6,-3.125
109050152296,13.125,-5.1875,-4.6875
109050167228,28.0625,-5.25,-0.375
109050191325,13.375,9,-0.5625
109050212309,-6.5625,18.375,8
109050228895,-32.125,13.125,7.125
109050249741,-57.875,2.6875,-2.9375
109050272334,-52.8125,-0.5,-7.25
109050287482,-18,-0.25,-4.375
109050309773,11.0625,6.5625,2.875
109050332440,19.25,11,7.375
109050347361,4.9375,9.125,7.125
109050369794,-12.75,2.1875,-1.6875
109050392445,-19.6875,-5,-6.6875
109050408815,-12.375,-6.25,-9.0625
109050429860,5.25,-2.9375,-6.5625
109050452314,19,2.5,-3.3125
109050467310,12.6875,3.25,-1.3125
109050489843,0.375,3,3.375
109050512308,-4.5,0,3.8125
109050527330,-6.0625,-2.5,-0.75
109050549777,-4.4375,-3.5625,-1.375
109050581120,-0.625,-1.75,0.3125
109050587400,1.6875,1,0.0625
109050609797,1.75,2,0.4375
109050633751,1.375,1.5,-1.0625
109050647448,1.125,1.0625,-1.0625
109050669783,-0.875,1.3125,-0.6875
109050692393,-2.3125,1.5,-0.5
109050707305,-0.875,1.1875,0.8125
109050729744,0.0625,0.3125,0.5625
109050752349,0.0625,-0.4375,-0.875
109050770300,0.8125,-0.25,-1.0625
109050789986,1.1875,0.3125,0.0625
109050812308,0.125,0.4375,0.875
109050828785,-0.3125,0,1
109050849947,-0.1875,-1.125,0.6875
109050872287,-0.125,-1,-1
109050888918,0.3125,-0.0625,-0.875
109050909758,0.125,0.625,-0.1875
109050932501,0.5625,3.4375,-0.1875
109050948902,-1.875,2.0625,-0.1875
109050969798,-1.625,2.6875,1.25
109050992441,-2.9375,1.5625,-0.375
109051008801,-3.25,0.6875,-1.125
109051029766,-1.5625,0.8125,-0.5625
109051052397,1.5625,1.1875,-0.4375
109051068742,1.75,-0.3125,0
109051089778,1.9375,-0.4375,-0.5625
109051112341,0.25,-2.125,-0.5625
109051136318,0.9375,-1.6875,0.5625
109051150018,2.125,-1.25,0.8125
109051172306,3.5,-1.0625,0.375
109051190358,2.625,-0.25,0.5625
109051209974,-0.1875,-0.5625,0.5
109051232338,-1.0625,-0.375,-1.5
109051250432,-2.25,0.0625,-1.0625
109051269796,-0.9375,-0.0625,0.125
109051292380,-1.3125,0.5625,0.5625
109051310343,-3.4375,1.25,1.4375
109051329797,-4.125,-1,0.875
109051352343,-0.875,-2.8125,0
109051370289,1,-2.8125,-0.6875
109051389869,7.125,-2.1875,-0.1875
109051415385,0.4375,0.6875,1.6875
109051430255,-4.3125,-1.125,5.875
109051449863,12.125,-3.5625,7.0625
109051472328,7.9375,-2.8125,0.875
109051490179,-1.6875,2.3125,-2.6875
109051509896,2.5625,-3.875,0.3125
109051532408,3.375,-9.875,5
109051550312,18.125,-11.25,4.1875
109051569870,21.875,-3.875,0.875
109051592384,10.25,3.25,-2
109051610348,-0.4375,-1.0625,2.125
109051639757,-1.3125,-5,1.25
109051652335,-4.25,-1.6875,2.5
109051670331,3.4375,1.5,0.9375
109051689855,3,1.5625,-1.6875
109051712524,-2.9375,-2,-4.1875
109051730326,3.375,-2.1875,0.125
109051749785,7.8125,0,3.375
109051772502,0.25,-0.0625,1.375
109051790288,1.125,-0.9375,-0.5625
109051811429,0.5,-1.25,-0.1875
109051832335,1.375,-2.1875,0.75
109051852613,-1.0625,0.0625,2.8125
109051871361,-9.6875,-2.625,-1.625
109051892340,5.3125,-8.375,-2.625
109051910333,20.9375,-2.25,-0.25
109051932793,13.75,-0.625,0.75
109051952257,-0.375,-3,-1.4375
109051970767,-10.9375,-3.25,-1.125
109051992763,2.0625,-2.3125,-0.125
109052012363,8.6875,2.125,1.75
109052030341,0.875,2.75,1.4375
109052051292,-4.875,1,-0.125
109052072510,-7.9375,1,-0.0625
109052090282,-2,0.1875,0.625
109052111350,0.75,1.125,-0.375
109052132360,2.0625,0.8125,-1.5
109052150316,5.625,2.75,0.125
109052172908,1.1875,5.8125,0.6875
109052192331,-8.4375,4.6875,2.0625
109052210304,-12.8125,3.4375,0.0625
109052232766,-10.6875,0.1875,-0.5625
109052252345,1.25,-0.8125,-3.9375
109052270457,5.3125,1.375,-7.25
109052292780,-2.8125,3.125,-2.9375
109052312397,-4.125,5.125,2.6875
109052330446,-6.0625,3.75,2.5625
109052353372,-10.25,0.8125,-1.875
109052372441,-6.5625,-0.75,-5.75
109052396294,9.8125,2,-4.4375
109052412852,11.9375,2.375,-1.4375
109052433086,1.5,4.625,2
109052449480,-5.8125,4.125,4.25
109052472132,-7.5,3,0.875
109052493030,-10.3125,0.375,-4.9375
109052509509,-6.75,-0.9375,-4.3125
109052532025,-2.5625,1.125,-2.75
109052553047,2.75,4.5,-2.25
109052569494,-0.1875,4.625,2.5
109052592031,-3.5,4.875,2.75
109052613090,-8.9375,1.5,-0.0625
109052629469,-9.6875,-1,-2.25
109052652440,-6.875,-1.3125,-2.125
109052673274,-2,1.625,-0.3125
109052689578,4.25,3.5625,1.4375
109052712023,4.0625,4,1.8125
109052733161,-2.1875,1.625,-0.1875
109052749477,-7.5625,-0.0625,-1.0625
109052772027,-5.5,-0.125,-0.75
109052800564,-1.4375,-0.25,-0.75
109052809494,2.8125,0.375,0.1875
109052832450,3.0625,1.25,1.5
109052853046,0.6875,0.3125,0.3125
109052869488,-2.8125,-0.6875,-0.4375
109052892098,0.125,-0.6875,-0.4375
109052913060,0.8125,0.75,-0.5625
109052929506,-0.8125,1.0625,-0.25
109052952430,-0.3125,1.6875,1.25
109052973069,-0.3125,0.1875,1.0625
109052989520,-1.875,-0.1875,-0.5
109053011964,-0.75,-0.6875,-0.125
109053033247,-0.375,-1,-0.3125
109053049548,0.0625,0,0.1875
109053079568,2,0.5,0.8125
109053094548,2.0625,0.3125,0.5625
109053109478,0.4375,0,-0.1875
109053131931,-1.625,-0.9375,-0.125
109053154499,-1.1875,-0.0625,0
109053170452,-0.1875,0.75,0.3125
109053192104,1.1875,0.9375,0.3125
109053214478,0.0625,0.375,-0.125
109053229027,-0.625,0.4375,-0.25
109053251999,0.25,0.4375,0.0625
109053274471,-0.9375,0.9375,0.0625
109053288854,-0.625,1.375,0.6875
109053312494,-1,0.6875,0.1875
109053334536,-1.0625,-0.0625,-0.4375
109053355553,-0.9375,0.125,-0.6875
109053373181,0.75,0.5,-0.125
109053394546,-0.3125,0.9375,-0.0625
109053408860,1,0.75,0.3125
109053432103,0.9375,0.0625,-0.375
109053454535,-0.625,-0.6875,-0.75
109053468906,0,-0.875,-0.5625
109053492020,0.0625,0,-0.125
109053514534,1,0.5,0.5625
109053528885,2.3125,0.4375,-0.25
109053552027,0.9375,-0.375,-0.75
109053575762,-0.875,-0.3125,-0.5625
109053595719,-0.5625,0.4375,-0.125
109053612018,1.625,0.125,1.4375
109053634544,2.9375,0.5625,0.4375
109053655392,-6,0.5,-0.75
109053672039,-11.4375,1.125,1.4375
109053694517,-1.5,-2.1875,3.4375
109053717030,4.0625,-1.1875,1.875
109053732017,9.75,-0.8125,0.125
109053762115,11.8125,-0.875,-2.5
109053775596,1.8125,0.875,-0.8125
109053792094,-7.5625,-0.5,0.9375
109053814592,0.4375,-4.5625,3.4375
109053835627,7.4375,-5.5625,-0.1875
109053852103,15.9375,-3.75,-2.3125
109053874603,17.125,2.4375,-0.1875
109053896972,6.875,9.4375,3.375
109053912540,-5.25,0.0625,3.75
109053934588,-15.0625,-9.5,1.4375
109053955756,6.25,-5.9375,-1.0625
109053971363,34.8125,1.6875,2
109053994641,17.5625,4.5,0.6875
109054015821,-18.5,-2,-3.3125
109054031416,-18.0625,-5.5625,-6.6875
109054054609,9.1875,-6.0625,-2.875
109054077023,30.5625,0.375,2.875
109054091421,14.8125,3.3125,3.4375
109054116151,-14.9375,0.5,1.875
109054137072,-22.25,-7.125,-4.625
109054151633,-1.4375,-3.75,-5.4375
109054174576,13.875,-0.9375,1.5625
109054197140,16.8125,2.375,3.8125
109054211412,-1.6875,1.5,2.4375
109054234540,-12.875,-4,-2
109054257038,-5.5,-4.9375,-2.3125
109054271442,15.625,-0.3125,2.5625
109054294528,4.8125,5.5625,6.4375
109054317125,-17.5,0.1875,1.875
109054331420,-13.25,-3.875,-2.625
109054354731,2.375,-1.375,0.5625
109054377054,13.625,1.625,2.125
109054392365,1.625,2.25,1.8125
109054414703,-9.6875,-1.125,0.5
109054437055,-4.125,-2,-0.1875
109054451387,4,0.125,-0.4375
109054474562,6.6875,1.25,-0.8125
109054497717,1.5,2.3125,1.9375
109054511535,0.5,1.25,-0.5625
109054534602,8.75,1.5,-5.375
109054557131,-4.4375,6.0625,-3.625
109054578141,-11.125,6.1875,-2.75
109054594535,-11.9375,5.3125,-2.4375
109054617102,-18,1.8125,-0.625
109054638089,-7.5625,-0.625,-0.1875
109054654526,8.5,1.4375,-1.1875
109054677128,9.875,4.3125,-0.0625
109054698129,-2.5,4.625,2.5
109054714700,-6.75,2,0.875
109054745992,-6.625,1.375,-2.125
109054758128,-7,0.8125,-4.25
109054774636,0.6875,1.625,-3.4375
109054797120,-0.375,2.5,-1.1875
109054818313,-4.875,2,1.3125
109054834634,-2.8125,1.5,2.5625
109054857093,0.3125,-1.3125,1.25
109054878261,-0.75,-1.625,-3.5625
109054895278,2,-1.5625,-4.375
109054917115,3.0625,3.0625,-3.9375
109054939623,-1.375,6.375,-3.625
109054954533,-9.75,7,0.5
109054977145,-9.5,6.9375,2.625
109054999557,-9.5,3.625,0.3125
109055020682,-10.6875,1.5,-2.8125
109055037140,-6.5,1.5,-1.5625
109055059576,-0.8125,3.25,0.0625
109055074635,-0.8125,3.6875,1
109055097077,-0.75,3.8125,2.625
109055119784,-1.0625,3.1875,1.5
109055133992,-1.6875,1.25,-0.75
109055157105,-4.3125,-0.0625,-0.9375
109055180045,-2.6875,0.375,-1.375
109055193997,-0.8125,0.5625,-0.8125
109055217058,0.8125,0.9375,0.5
109055239689,1.25,0.4375,0.125
109055253946,1.4375,-0.375,0.4375
109055277271,0.5625,-0.9375,0.1875
109055300032,-0.0625,-0.875,-0.1875
109055314074,0,-0.75,-0.3125
109055337169,-1.125,-0.125,0.0625
109055359558,-0.4375,0.125,0.4375
109055374139,-0.25,0.3125,0.1875
109055397172,0.5,-0.0625,0.25
109055425626,0.6875,0.25,-0.0625
109055434132,-0.25,-0.125,0.25
109055457063,-0.25,-0.4375,0.5
109055479665,-0.75,-0.5,0.5
109055500649,-0.75,-0.6875,0.3125
109055518570,-1.375,-1,0.8125
109055539623,-0.0625,-0.9375,1
109055560652,1.6875,-0.625,1.125
109055577635,0.9375,-0.6875,0.75
109055599618,0,-0.25,0.125
109055620614,-0.6875,-0.1875,-0.25
109055637108,-0.5,-0.1875,0.0625
109055659602,0.5625,-1.1875,0
109055680878,1.0625,-2.625,-2
109055697121,-4.1875,-1.9375,-0.875
109055720467,1.6875,-1.75,1.5
109055740772,4.5,-0.5625,1.0625
109055757094,1.5625,-0.875,0.3125
109055779794,0.25,-0.8125,0.5625
109055802123,1.5,-0.5625,0.125
109055817083,0.75,0.25,0.25
109055839765,1.375,1.0625,0.5625
109055860685,0.375,1,-0.1875
109055877143,-1.1875,0.125,-0.375
109055899646,-2.0625,-0.875,-0.9375
109055923648,0.5,0,0
109055937149,0.125,0.125,0.4375
109055959601,-0.9375,1.3125,0.25
109055982163,-5,-0.5,2.6875
109055997190,-3.0625,-1.0625,1.375
109056019596,-2.1875,-0.8125,1.0625
109056042221,1.3125,-0.9375,1.3125
109056057109,6.125,-1.875,0.125
109056079708,5.0625,0.875,1.0625
109056102303,-0.3125,0.9375,0.9375
109056125439,-2.9375,-0.0625,3
109056139821,5.75,-4.5,2.25
109056162155,4.25,-5.5625,-0.3125
109056176443,5.9375,0.6875,-0.1875
109056199727,7.9375,0.125,2.8125
109056222126,4.375,-6.1875,2.3125
109056236586,6.4375,-7.5,2.375
109056259699,10.625,-6.125,0.0625
109056282107,15.5,3.25,1.6875
109056296495,9.5,1.5625,0
109056319639,-6.875,-4.5625,-4.0625
109056342141,-6.25,-5.5,-2.4375
109056356544,5.125,-0.75,0.0625
109056379637,8.75,2.8125,1.75
109056401918,6.5625,0.4375,0.25
109056417956,-3.0625,-3.125,0.4375
109056439682,-8.6875,-3.9375,4.5625
109056462131,-0.875,-1.875,4.9375
109056483180,2.1875,1.8125,3.25
109056499637,-0.625,1.3125,3.8125
109056522135,-6.3125,0,3
109056543213,-7.75,-2.5,1.0625
109056559698,1.4375,-4.125,-1.6875
109056583572,6.125,-2.4375,-1.0625
109056603347,8.875,-2.5,1.6875
109056619674,3.125,-0.75,1.375
109056642123,-8.8125,-3.75,0.75
109056663240,0.75,-5.25,0.5
109056685713,8.25,0.6875,3.0625
109056702129,4,-1.25,2.6875
109056707552,-1.9375,-4.375,-0.125
109056730031,0.6875,-2.875,-2.875
109056745034,3.625,0.625,-0.25
109056767698,0.3125,0.4375,-1.0625
109056790086,-5.3125,-1.4375,-0.4375
109056805075,-6.5625,-1.25,-0.5625
109056827563,0,-1.1875,-0.4375
109056850061,-0.3125,0.75,-0.1875
109056865088,-1.9375,1.1875,0.5
109056887551,0.375,1.5625,-0.4375
109056910044,-2.875,3.6875,-1.25
109056925076,-3.5625,4.5,-0.9375
109056947527,-6.375,2.8125,-1.8125
109056970306,-5.625,1.8125,1.25
109056985149,5.25,0.875,-0.0625
109057007615,11.25,4.1875,-4.0625
109057030062,2.6875,4.6875,-0.6875
109057045079,-12.1875,2.0625,1.6875
109057067814,-10.8125,-1.875,0.9375
109057090077,-2.875,-3.125,0.1875
109057105059,5.5,-1.6875,-2.3125
109057127602,15.875,2.25,-3.4375
109057150069,14.75,4.6875,-2.875
109057165067,-0.75,4.625,0.5
109057187540,-6.6875,3.375,1.1875
109057210249,-6.375,-0.5,-0.1875
109057225062,-0.9375,0.1875,-3.6875
109057247535,10.4375,5.4375,-3.0625
109057270216,3.5625,9.4375,-3.25
109057285074,-9.875,10,1.4375
109057307648,-15.6875,8,3.0625
109057330125,-13.125,4.75,1.9375
109057345084,-6.125,5.375,0.625
109057367833,-5.625,9.125,-1.0625
109057390072,-9.625,9.25,-0.625
109057405038,-10.1875,7.625,0.9375
109057427608,-8.375,4.75,-0.4375
109057450204,-3,2.0625,-1.9375
109057466644,3.8125,0.8125,-1.75
109057487572,6.375,-0.3125,-1.125
109057518399,4.4375,-1.8125,-0.5625
109057526539,2.375,-2.375,-0.375
109057547545,2.625,-2,-0.5
109057570167,3,-1.5625,-0.4375
109057586530,0.5,-1,-0.125
109057607657,-0.5625,-0.1875,0.4375
109057630160,-0.625,-0.5,-0.4375
109057646534,-0.5,-0.6875,-1.5625
109057667616,-0.75,-0.4375,-1.125
109057690087,0.9375,-0.375,-0.5
109057706526,0.9375,-0.875,-0.5
109057727664,0.375,0.1875,0.0625
109057750051,1.25,0.6875,-0.125
109057766655,-0.3125,0.9375,0.375
109057787642,-1.125,0.75,0.5625
109057810162,-0.9375,0.375,-0.3125
109057828034,-0.375,-0.3125,-0.1875
109057847582,-0.3125,-1.1875,-0.3125
109057870220,0.4375,-1.0625,-0.5
109057888098,2.5,-0.4375,-0.375
109057907618,2.875,-0.25,-0.25
109057930283,0.625,-0.75,0.125
109057948017,-0.0625,-1.625,-0.25
109057967579,1.0625,-1.3125,-0.125
109057990274,2.0625,-0.5625,-0.3125
109058007967,-0.125,-0.4375,0.3125
109058027646,-0.1875,-1.5625,0.5
109058050113,1.6875,-1.8125,0.375
109058074000,0.6875,-1.75,-0.375
109058087789,-1.5,-2.1875,-0.1875
109058110129,-0.125,-1.8125,0
109058128115,2.25,-0.5,0.25
109058147662,2.375,-0.375,1
109058170203,1.25,-1.875,1.5625
109058188017,1.4375,-0.375,-0.75
109058207572,-0.875,-0.375,0.3125
109058230171,-4.8125,-0.5,0.5625
109058248053,-1.1875,-1.8125,0.6875
109058267600,8.8125,0.625,-1.3125
109058290225,-2.375,-1.75,0.375
109058308036,-14.6875,0.5625,2.0625
109058327625,-2.1875,-4.5625,2.75
109058351621,9.375,-5.9375,-2.0625
109058367986,9.875,-5.375,0.9375
109058387690,1.5625,-7.625,-1.5
109058410091,11.375,-7.25,0.75
109058427994,19.375,-7.0625,-4.6875
109058449124,12.125,-2.1875,-3.875
109058470142,-1.25,0.8125,-1.5625
109058488209,-12.3125,1.9375,-2.4375
109058509047,-3.875,0.25,-2.375
109058530130,8,0.5,-1.75
109058548210,8.5625,-0.625,2.5625
109058569061,2.3125,-2.25,3.1875
109058590148,0.0625,-0.75,1.0625
109058608229,-2.8125,0.0625,-0.25
109058629087,-3.1875,-2.3125,0.375
109058650338,0,-2.6875,1.4375
109058668053,9.0625,-1.6875,4.5
109058690121,3.5625,-1.5,1.125
109058710187,0.5,-7,-2.5625
109058728025,11.75,-8.75,-1.4375
109058752096,12.5,-9.125,-1.6875
109058770099,13.5625,-4.8125,2.125
109058787990,0.4375,-3.75,1.375
109058810599,-0.5,-6.75,1.25
109058830193,-2.125,-4.4375,0.5625
109058848025,3.3125,-4.75,1.5625
109058870623,9.25,0.125,2.5625
109058890174,2.3125,2.6875,2.75
109058908044,-5.5,-0.125,0.4375
109058930537,-4,-1,-1.625
109058950335,2.1875,0.8125,-1
109058968258,5.875,1.875,-0.1875
109058990543,-2.0625,1.1875,-0.25
109059010816,-4,-0.125,0.375
109059027348,-2,-0.1875,-0.375
109059049753,2.625,-0.625,1.125
109059071037,4.8125,4.3125,3.25
109059087283,-4.375,6.875,2.1875
109059109921,-4.5,2.5,-2
109059130841,-13.9375,0.4375,-3.6875
109059147264,-12.6875,-3.375,-4.75
109059169788,8.25,-3.1875,-5.9375
109059190794,17.3125,5.8125,0.5625
109059207435,4.75,15.0625,4.0625
109059229759,-14.4375,8.625,-1.625
109059250826,-23.25,-2.25,-6.3125
109059267371,-31.75,-3.125,-6.5
109059289747,-6.625,1.5,-3
109059310949,22,6.8125,-1.125
109059327341,20.1875,8.4375,6.75
109059349825,7.75,10.5,6.3125
109059370992,-3.4375,5.75,-1.4375
109059387313,-17.3125,2.375,-6.9375
109059409766,-26.8125,1.125,-4
109059432417,-12.1875,2.5625,-0.0625
109059447311,8.75,5.875,2.75
109059469842,12.625,6.75,0.25
109059490802,-3.1875,5.625,1.6875
109059513386,-8.0625,2.9375,1.3125
109059543998,-13.25,3.125,-1.75
109059550883,-13.0625,1.875,-1.3125
109059567414,-8.25,1.8125,0.375
109059589768,-0.5625,2,0.125
109059610889,2.9375,2.125,0.25
109059627343,3.375,1.625,0.8125
109059649737,-0.4375,1.4375,0.5625
109059671033,-2.6875,1.4375,0.3125
109059686683,-2.3125,1.25,0.125
109059709762,-3,0.1875,0.0625
109059738350,-1.9375,-0.1875,-0.4375
109059747313,0.9375,0.1875,-0.4375
109059769968,1.4375,0.125,0
109059792294,0.4375,-0.3125,0.6875
109059808268,-0.625,-1.3125,0.4375
109059829787,-1,-1.375,0.1875
109059852273,1.875,-0.9375,0.0625
109059866567,2,-0.5,0
109059889817,1,0.0625,0.5
109059912329,-1,-0.0625,0.375
109059926634,-1.0625,0.75,-0.0625
109059949826,-1.3125,-0.125,-0.3125
109059972317,-1.125,0.1875,0.375
109059986737,-0.0625,0.0625,0.4375
109060017281,0.875,0.6875,0.5
109060032394,0.625,0.0625,0.6875
109060053301,-0.5625,-0.875,0.1875
109060069830,-0.4375,-1.375,-0.125
109060092341,1.125,-1,0
109060106684,2.25,-0.5625,-0.3125
109060129854,1.125,-1.25,-0.4375
109060152282,1.1875,-3,-0.125
109060166703,1.5,-2.25,-0.625
109060189855,-3.8125,-2.75,-0.4375
109060212369,-0.8125,-0.8125,2.5625
109060233428,3.125,0.6875,2
109060249850,2.5,-1,2.125
109060272325,0.625,-0.75,0.125
109060293439,0.4375,-2.0625,0.75
109060309796,0.9375,0.8125,0.8125
109060332361,2.375,-1.5625,2.0625
109060353352,3.1875,-0.1875,1.6875
109060369786,8,0.4375,0.375
109060392363,0.375,-0.3125,1.375
109060413385,-0.1875,-0.375,2.125
109060429833,1.9375,-3.1875,2.4375
109060452340,6.5625,-4.9375,0.1875
109060473470,5.625,-2.6875,-2.1875
109060489841,2.5,-0.8125,-2.3125
109060512982,2.5,0.5625,-1.375
109060533541,-2.3125,1.3125,-2
109060549897,0.5625,-1.125,-5
109060572303,6.0625,0,-5.5625
109060594838,3.6875,1.6875,-2.5625
109060610298,-4,2.1875,-0.4375
109060632372,-8.25,-11,-5.3125
109060654838,6.5,-10.375,-5.5
109060669844,19.4375,2.5,-1.75
109060700002,18.25,3.25,8.3125
109060714874,3.4375,-1.75,4.9375
109060729230,-14.6875,-7.5625,-1.5
109060752371,-5.1875,-10.375,-4.0625
109060774846,7.9375,-1,3.0625
109060789828,13.375,2.0625,7.375
109060812310,-3.25,3.125,4.4375
109060834997,-16.625,-5.1875,-1.1875
109060849183,-9.75,-7.6875,-2.5625
109060872324,15.6875,-1.8125,0.6875
109060901059,15.3125,7.0625,4.375
109060909198,-5.4375,2.9375,2
109060932354,-16.1875,-2.625,-2.8125
109060954881,-5.4375,-1,-2.25
109060969215,10.0625,1.875,1
109060992373,6.5,2.375,1.1875
109061014825,-4.125,-1.375,1
109061029229,-5.8125,-2.6875,-0.5625
109061052420,8.0625,-1.125,0.25
109061074837,8.4375,1.75,0.6875
109061095782,0,-0.8125,0.5
109061112339,-4.5,-1.75,-1.5
109061134914,2,-0.5,0.25
109061149170,5.25,1.375,1.5
109061172324,2.9375,1.9375,1.3125
109061194943,-4.9375,2,1.375
109061215877,-7.75,1.1875,-0.5625
109061232326,-5.9375,2.875,-1
109061254862,-6.5,4.5625,-0.125
109061275871,-9.8125,4.8125,-1
109061292795,-8.6875,2,-0.625
109061314830,-2.0625,2.875,0.5
109061335916,14.375,6,-0.4375
109061353324,19.8125,8.6875,-3.375
109061374854,11,8.625,-4.0625
109061396008,-2.25,10.0625,-1.625
109061412364,-18.3125,5.9375,-2.5625
109061434930,-24.25,1.8125,-0.9375
109061455983,-13.9375,0.75,-0.625
109061472342,-2,4.1875,-1.4375
109061495029,7.5,8.5625,3.3125
109061515984,3.125,6.5625,3.5625
109061531687,-11.3125,-0.8125,-0.5
109061554974,-12.125,-5.625,-1.5
109061575896,0.6875,-2.625,-1.5
109061592416,12.0625,4.5,-1.8125
109061614883,10.125,6.3125,-1.5
109061637358,-1.5625,4.1875,0.375
109061652365,-7.875,1.0625,0.4375
109061682345,-11.125,-0.125,-1
109061697498,-5.4375,1.625,-0.3125
109061712399,1.0625,2.75,0.875
109061734856,-0.125,4.4375,0.0625
109061757461,-3.8125,3.5625,-0.25
109061771799,-6.8125,2.5,0.5625
109061794861,-5.25,2.1875,1.75
109061817527,-3.25,1.875,0.625
109061831743,-1.5625,1.75,-0.375
109061854873,-2.75,0.5,0.125
109061877406,-2.3125,-0.3125,-0.0625
109061891729,-0.25,-1,-0.25
109061914867,1.75,0.1875,-0.1875
109061937373,1.625,-0.9375,0.25
109061959895,-0.125,-1.75,0.1875
109061974896,-0.5625,-3.125,-0.4375
109061997433,2.375,-2,-1.1875
109062011923,4.9375,-0.5625,-0.9375
109062034905,3.8125,0.4375,0.5625
109062057456,-0.6875,-0.875,0.8125
109062071783,-1.9375,-1.9375,0.0625
109062094867,-0.75,-2.4375,-0.4375
109062117364,1.875,-1,-0.3125
109062138486,2.375,0.5625,0.4375
109062154868,1.4375,0.5625,0.875
109062177387,-0.8125,-0.3125,0.1875
109062198509,-1.3125,-1.25,-0.125
109062215073,-0.25,-0.875,0.125
109062237367,1,0,0.3125
109062258918,2.1875,0.0625,0.625
109062275036,0,-0.375,0.125
109062297389,-0.9375,-1.3125,-0.1875
109062318527,-1.625,-1,0
109062334746,0.25,-0.5,0.0625
109062358605,1.1875,0.375,0.375
109062378543,1.4375,0,0.0625
109062394917,0.5,-0.4375,-0.8125
109062417471,-0.125,-0.5,-1.25
109062438509,4.4375,-0.875,0.5
109062454914,-0.75,-3.8125,-0.125
109062477417,-4.875,-3.8125,-0.8125
109062498481,1.75,-3.6875,0.9375
109062515422,7.875,-2.3125,0.5
109062537425,3.125,-0.6875,0.125
109062560784,1.125,-2.4375,-0.625
109062574977,-0.1875,-3.5,-2.8125
109062597417,-0.625,-3.8125,-1.125
109062619887,-0.6875,-2.6875,0.75
109062634954,0.3125,-2.0625,3.8125
109062657414,7.3125,-1.4375,2.8125
109062679973,-2.5625,1.25,3.0625
109062695004,-1.75,-0.75,2.125
109062717380,-3.1875,-3.125,-0.8125
109062740450,2.25,-5.5625,-1.625
109062762448,4.6875,0.5,0.3125
109062777387,11.9375,3.5625,6.4375
109062799980,7.3125,2.375,2.875
109062814320,-1.9375,-5.625,-3.0625
109062837416,-3.4375,-6.625,-3.3125
109062859906,11.625,-1.4375,-0.25
109062874475,17.75,4.625,3.5625
109062897473,0.25,1.8125,0.25
109062919928,-12.25,-8.0625,-2.75
109062934367,-0.9375,-9.625,-1.5625
109062957813,19.125,-6.1875,0.1875
109062979963,26.5625,1.125,7
109063001106,0.25,3.0625,6.8125
109063017410,-14.1875,-6.1875,-0.625
109063039948,-9.5625,-6.8125,-6.0625
109063068587,-0.875,-1.5625,-2.0625
109063077451,16.5625,-1,1.5
109063099963,7.1875,2,3.125
109063121039,-4.5625,-5.0625,0.125
109063137459,-1.6875,-5.8125,-1.5
109063159931,-0.125,-1.25,1
109063181060,3.1875,-0.1875,3.8125
109063197558,-6.25,-3.875,0.125
109063219916,0.6875,-5.25,-0.1875
109063240833,14.125,2.125,1.3125
109063257420,3.625,4.4375,0.6875
109063262803,-12.3125,2.0625,-0.8125
109063285332,-15.5625,-2.25,-1.9375
109063307841,5.5625,-1.375,-0.8125
109063322838,13.75,2.5,1
109063346803,0.8125,1.6875,0.4375
109063367853,-8.375,-1.5625,0.125
109063382823,-5.75,-1.9375,-0.75
109063405393,3.875,-0.9375,0.6875
109063427804,8.5625,1.8125,1.0625
109063442824,0.1875,2.6875,1.0625
109063465350,-6.25,3.75,1.8125
109063488518,-12.625,1.375,-0.625
109063502974,0.875,-0.9375,-3
109063525301,11.875,5.1875,-5.25
109063548019,9.4375,12.8125,-3.375
109063562900,-4.25,13.5625,-0.8125
109063585386,-22.9375,13.75,3.375
109063607993,-21.625,4.0625,4
109063625720,-16.75,2.25,-0.6875
109063645536,-5.3125,6.6875,-3.25
109063667900,-7,7.5,-1.75
109063682789,-6.8125,5.9375,2.0625
109063705528,-1,4.1875,3.3125
109063727863,4.75,-1,0.5
109063742857,4.875,-2.875,-3.75
109063765394,4.875,-1.4375,-3.0625
109063787813,1.375,0.6875,-2.1875
109063802857,-4.125,0.0625,-1.5625
109063825322,-4.6875,-0.5625,-1.125
109063847880,-3.625,-1.5625,-1.375
109063862906,1.25,0.875,-2.625
109063885326,-0.25,3.6875,-0.4375
109063907959,-6.125,5.125,1.5
109063922882,-10.5,4.375,1.5625
109063945357,-10.6875,2.5625,0.875
109063968055,-8.125,1.375,0.3125
109063982873,-5.625,2.9375,0.375
109064005384,-3,3.6875,0.25
109064027869,-4.375,2.625,0.875
109064042842,-4.0625,2.125,1.5625
109064065551,-1.75,2.5,1.5625
109064087840,0.625,3.375,0.875
109064104394,-2,2.8125,-0.4375
109064125423,-7.5,-0.75,-1.0625
109064147884,-4.875,-1.8125,-1.1875
109064164530,3.6875,-1,0.1875
109064185345,8.25,0.0625,0.875
109064208006,4.75,0.125,1.4375
109064224337,1.5625,-1.4375,1
109064245338,1.9375,-2.5,-0.625
109064268004,2.5,-2.375,-1.375
109064284333,3.25,-1.6875,-1.3125
109064305393,3.25,-0.6875,-0.9375
109064327938,3.0625,-0.1875,-0.125
109064344328,2.375,-0.1875,0.125
109064365582,0.9375,-0.0625,-0.75
109064387867,-0.6875,0.375,-0.6875
109064410390,-1.0625,1.25,-0.4375
109064425517,-1.4375,1.5625,0.1875
109064447924,-0.75,2.4375,0.8125
109064465844,-3.125,2.375,0.9375
109064485331,-2.9375,1.0625,0.4375
109064507884,-4.6875,1.6875,-0.375
109064525874,-3.375,0.8125,0.5625
109064545384,-1.625,0.8125,0.0625
109064567932,-3.125,-0.75,-0.5625
109064585805,-0.125,-1.8125,-1.625
109064606178,3.3125,-1.9375,-0.9375
109064627956,4.125,-1.6875,-0.1875
109064645779,-0.8125,-3.3125,-0.4375
109064665524,-3.375,-5.125,-2
109064687902,4.0625,-5.8125,-2.8125
109064706768,12.875,-6.5,-0.125
109064725573,5.3125,-2.5625,1.625
109064747883,0.875,-1.8125,0.6875
109064765894,3.3125,-2.125,2.4375
109064785488,-1.6875,-2.375,1.25
109064815406,-3.125,-5.125,1.625
109064826029,0.125,1.8125,-1.8125
109064845377,2.5,3.125,0
109064867963,4.0625,-0.625,-0.25
109064893296,-4.1875,-7,-2.3125
109064905349,2.875,-3.125,-1.0625
109064927967,8.625,1.75,0.9375
109064945818,8.25,-0.875,1.3125
109064965352,0.125,-4.5,-3.875
109064988014,-1.0625,-3.5,-1.875
109065010386,6,-1,1.875
109065025517,-0.375,0.3125,2.375
109065047931,-1.375,-4.9375,0.625
109065065895,3.1875,-8.6875,3.5
109065086999,8.1875,-0.6875,4.6875
109065107912,4.875,-0.4375,2.8125
109065125886,-2.0625,-1.1875,2.875
109065146848,-11.0625,-1,1.5
109065167932,-3.6875,-2.5625,-0.25
109065190475,4.875,-0.8125,-0.8125
109065209744,7.6875,1.125,0.3125
109065227902,-1.25,3.1875,-0.0625
109065246007,-5.75,-0.3125,-1
109065266866,-5.4375,-3.3125,-1.875
109065290959,3.125,-3.625,-0.125
109065310393,10.25,-0.0625,2.0625
109065326833,1.4375,0.125,0.5625
109065343279,-4.4375,-3.5,-0.25
109065365902,-3.875,-3.3125,-1.5
109065386853,5.375,-2.5625,-0.3125
109065403344,12.875,3.8125,2.4375
109065426643,-0.1875,3.5625,-0.375
109065448371,-4.9375,-0.125,-1.375
109065463370,-12.4375,-1.25,-2.5625
109065485857,3.75,-2.875,-0.875
109065515837,9.75,2.1875,0.5625
109065524332,7.4375,8.9375,6.4375
109065545072,-6.75,7.4375,7.875
109065568003,-15.75,1.1875,-2.125
109065589088,-10.75,-0.875,-8.8125
109065605062,5.5625,4.0625,-7.6875
109065627527,21.3125,8.875,-8.625
109065648835,14.0625,12.25,-1.9375
109065665048,1.9375,14.125,5.875
109065687604,-8.125,10.0625,5.75
109065708666,-16.5,3.4375,-1.3125
109065725039,-17.3125,0.0625,-6.875
109065747620,-8.25,-0.3125,-4.875
109065761943,2.6875,2.1875,-2.125
109065785097,8.0625,3.4375,0.9375
109065807687,4.875,1.9375,3.875
109065821931,0.1875,-0.8125,2.25
109065845527,-2.625,-3.4375,-2.0625
109065867572,-3.3125,-4.5,-3.375
109065881915,-3.3125,-3.0625,-1.5625
109065905048,-1,-0.5,-0.3125
109065927574,1.1875,1.6875,-0.125
109065948818,-0.375,2.375,-0.375
109065965142,-2,1.75,-1.125
109065987529,-3,1.875,-2.75
109066008763,-5.125,1.8125,-3.75
109066025069,-4.625,4.375,-3
109066047711,-4,7.8125,-1.75
109066068776,1.8125,9.75,-2.5625
109066085067,-1.9375,10.0625,-3.4375
109066107618,-14.6875,7.1875,-3.3125
109066128582,-19.375,4.125,-2.5
109066145048,-12.75,3.375,-0.1875
109066167745,-0.9375,4.5,2.6875
109066188597,1,3,2.1875
109066205189,-3.125,0.5,1.25
109066227569,-2.25,-1.5,0.1875
109066248595,2.4375,-2.3125,-0.5
109066265168,5.4375,-1.5625,-0.4375
109066287561,3.5625,-1.125,-0.4375
109066308761,1.4375,-1.625,-0.375
109066325098,1.8125,-2.3125,-0.9375
109066347526,2.5625,-3.3125,-0.5625
109066370110,3.1875,-3.4375,-0.4375
109066385055,3.0625,-3.5,-0.4375
109066407543,4.5625,-2.75,0.375
109066430070,4.4375,-2.0625,0.1875
109066446052,3,-1.625,0.1875
109066467646,0.75,-1.3125,-0.125
109066490103,-0.3125,-1.125,-0.1875
109066504415,0.25,-0.1875,-0.25
109066527611,0,0,0.375
109066551076,-1,0.3125,0.1875
109066564426,-0.1875,0.3125,-0.25
109066587527,0.4375,0.1875,0
109066610115,-0.75,-0.4375,-0.0625
109066624461,-1,-0.3125,0.1875
109066647545,0.25,0.1875,0.5625
109066670139,1.3125,-0.5,1.3125
109066684386,0.5625,-0.1875,-0.125
109066707625,-4.8125,0.6875,0.5625
109066730102,-3.0625,0.0625,1.5
109066744434,1.3125,0.875,0.3125
109066767633,2.9375,1,-0.0625
109066790106,6.25,2.625,2.1875
109066804450,1.5,-0.25,-0.9375
109066827593,-20.0625,1.5625,2.25
109066850150,-7.6875,1.25,4.125
109066871246,7.5,-1.8125,4.0625
109066887590,13.4375,-2.5625,-0.25
109066910091,5.625,-1.625,-1.6875
109066931199,7.8125,-0.125,-0.125
109066947681,10.625,-7.0625,0.75
109066970176,-1,-10.5,0.8125
109066991147,10.3125,-7.1875,0.5
109067007594,19.1875,5.4375,-0.375
109067030053,10.5,5.0625,1.1875
109067051183,-12.5,-4.0625,-2.1875
109067067676,-10.25,-9.5625,-1.625
109067090077,2.4375,-6.125,-0.375
109067111187,10.8125,2.625,3.75
109067127651,11.1875,2.4375,4.9375
109067150084,0.625,-2.125,4.25
109067171333,-8.9375,-4.25,1.125
109067187648,-4.6875,-2.8125,0.0625
109067211566,0.8125,-1.6875,0.6875
109067231230,3.75,-1.5,-1.1875
109067247567,6.25,-2.5625,0.25
109067270143,8.125,-1.6875,1.375
109067291171,2.125,-3.0625,-0.75
109067307623,-1.25,-4.1875,-1.0625
109067330120,3.6875,-1.5,-0.3125
109067352556,5,-4.75,1.0625
109067367601,4.9375,-4.3125,1.75
109067390071,1.9375,-2.25,1.6875
109067412617,1.5625,-0.4375,1.3125
109067426976,2.8125,-0.5,1
109067450118,-2.6875,-0.4375,0.4375
109067472667,-1.8125,-0.5625,0
109067486966,2.6875,1.25,0.125
109067510106,4.75,3.9375,0.5
109067538889,-1.6875,1.1875,0.625
109067546977,-6.375,-0.375,1.25
109067570142,-2,0.375,0.875
109067592598,3.0625,0.9375,0.8125
109067607012,5.375,1.25,1
109067637677,-0.625,1.625,0.25
109067652729,-6.1875,0.5625,-0.0625
109067666924,-7.6875,0.8125,-1.1875
109067690155,-4.5625,-1.875,-1.1875
109067712583,4.4375,-2.0625,-0.5625
109067726949,7.5,1.25,-0.3125
109067750225,-0.1875,3.5625,0.5625
109067772610,-8.1875,1.1875,0.5
109067787021,-12,-1.6875,-2.0625
109067810147,-0.8125,1.5,-5.25
109067832596,8.1875,0.4375,-5.6875
109067853848,9.625,5.9375,1.4375
109067871584,4.625,8.6875,3.9375
109067892641,-5.1875,7.5,4.75
109067913697,-13.0625,3.5625,0.5
109067930107,-15.9375,-0.6875,-3.1875
109067952810,-7.875,-2,-4.5625
109067973680,3.5625,2,-4.0625
109067990097,10.375,6.6875,-1.9375
109068012666,5.6875,6.8125,0.75
109068033730,-4.125,7.875,4.8125
109068050129,-9.5,6.4375,3.0625
109068072652,-13.875,3.6875,-1.6875
109068093645,-15.5,1.4375,-4.9375
109068110124,-10.5,2.125,-5.3125
109068132642,-0.125,3.375,-4.875
109068153796,4.5,4.4375,-2.0625
109068170133,6.375,4,0.0625
109068192708,2.125,1.4375,-1.625
109068213753,-3.75,-1.6875,-3.75
109068230138,-4,-2.625,-3.75
109068252705,-0.0625,-0.6875,-2.1875
109068275122,8.125,2.625,-1.125
109068290220,5.8125,1.875,-1.125
109068312708,-3.75,-1,-0.3125
109068342681,-8.3125,-2.125,-0.125
109068350328,-4,-0.8125,-0.3125
109068372637,1.375,1.625,0.5
109068395187,0.1875,0.375,1.1875
109068409549,-3,-1.3125,0
109068432687,-0.5625,-1,-0.5625
109068455174,3.625,0.75,0
109068469545,2.8125,1.5625,0.0625
109068500253,-1.25,1.3125,0.25
109068515198,-2.375,-0.1875,0.125
109068529532,-1.625,-1.1875,0.25
109068552748,-0.1875,-1.3125,0.4375
109068575132,1.5625,-0.875,0.1875
109068590795,2,-0.25,-0.125
109068620228,1.75,-0.375,0.375
109068642690,0.75,-0.875,0.0625
109068649494,0.4375,-0.875,-0.375
109068672694,1.125,-0.25,-0.4375
109068695149,1.75,0.375,-0.5
109068709546,0.4375,-0.125,0.125
109068732659,-0.6875,-0.125,-0.125
109068755172,0.75,-0.4375,-0.1875
109068777685,1.1875,-0.4375,0.1875
109068793149,0.6875,-0.1875,0.375
109068814982,0.6875,0.75,0.0625
109068836180,0,0.5625,0
109068852652,-0.625,0.1875,-0.1875
109068875234,-0.3125,-0.0625,-0.125
109068896175,0.375,0.375,-0.125
109068912660,0.875,1.125,-0.375
109068935181,0.3125,0.4375,0
109068956389,-0.4375,-0.1875,-0.0625
109068978813,-1.125,-0.625,-0.125
109068995152,3.125,-2.6875,0.4375
109069016258,-2.3125,-0.8125,0.4375
109069032690,-5.5625,-1.1875,-0.125
109069055173,-3,-2.3125,0.875
109069076401,2,-1.625,1.25
109069092670,6.125,-1.75,2
109069115138,3.1875,-0.75,0.6875
109069136256,1.5625,-0.5625,-0.1875
109069152690,-4.625,-1,-0.0625
109069175646,-4.125,-2.6875,1.5
109069197748,3.375,-5.3125,1.6875
109069212823,0.8125,-5.9375,2.0625
109069235197,13.9375,-1,0.9375
109069257688,-1.125,-2.75,1.5
109069272691,1,-6.875,2.8125
109069295193,4.5625,-7.375,1.1875
109069317812,9.5,-2.125,0.25
109069332085,9.3125,2.8125,0.3125
109069355198,5.375,3.0625,2.3125
109069377678,-9.1875,-2.0625,-0.6875
109069391989,-13.25,-5.0625,-2
109069415198,5.5625,-2.75,-1.5
109069437719,14.375,3.5625,-0.375
109069452054,4.5625,3.8125,3.375
109069482704,-11.9375,-2.6875,1.8125
109069497710,-13,-8.0625,-0.9375
109069512053,4.8125,-1.5,-1.75
109069535322,14.6875,3.9375,2.875
109069557693,1.8125,3.75,3.25
109069572171,-10,-3.4375,0.1875
109069595227,-9.0625,-5.6875,-4.25
109069617672,4.5,-4.5,-0.75
109069632096,17.1875,-0.1875,3.1875
109069655162,13.375,4,3.9375
109069678350,-5.75,1.6875,0.4375
109069698806,-18.4375,-4.0625,-3.3125
109069716819,-10,-3.6875,-1.4375
109069739171,8.4375,1.125,2.5625
109069758761,9.6875,4.25,3.625
109069775235,3.5625,0.8125,1.5
109069797728,2.5,-3.625,-0.25
109069819992,6.0625,-2.9375,1.25
109069825627,7.75,-1,1.375
109069840871,8.4375,-1.25,1.625
109069863126,3.5625,2.8125,1.25
109069885730,-5.5,1.375,0.5
109069900701,-9.3125,-0.9375,-1.25
109069923047,-6.125,-4.25,-2.4375
109069945626,7.3125,-2.75,2.1875
109069960599,13.375,5.25,3.5
109069983130,-0.1875,1.75,1.5625
109070008550,-13.375,-1.5,0.25
109070020655,-9.5625,-0.8125,-1.375
109070043275,3.9375,-0.6875,-0.25
109070065612,5.875,2.25,2
109070080663,0.1875,1.8125,2.125
109070103128,-7.625,-0.1875,0.375
109070126729,-8.6875,-1.6875,-1.125
109070140802,0.6875,-0.9375,-1.8125
109070163156,5.375,1.875,-1.25
109070185788,0.4375,5.5625,2.25
109070200715,-9.1875,7.3125,1.6875
109070223093,-13.75,0.125,-2.4375
109070245676,-10.625,-3.375,-4.3125
109070260644,-5.5,-0.125,-4.8125
109070284600,16.625,0,-2.25
109070305802,10.8125,7.875,3.25
109070320602,-0.8125,10.5,5.25
109070343259,-6.4375,2.6875,-1.5
109070365647,-12.75,-1.1875,-3.625
109070380658,-10.75,1.375,-1.0625
109070403146,12.625,2.75,-0.6875
109070425746,16,10.8125,0.125
109070440608,14.8125,12.1875,2.6875
109070463160,0.4375,8.25,-0.1875
109070485620,-19.25,3.4375,-7.25
109070500653,-26.3125,1.125,-10
109070523111,-20.875,2.6875,-7.0625
109070545725,-8.9375,5.9375,-3.625
109070560628,-4.6875,6.5625,-0.3125
109070583246,-5.125,5.1875,2.375
109070605662,-7.375,3.125,2.3125
109070620677,-7.75,1.4375,0.125
109070643100,-9.6875,-0.625,-0.375
109070665773,-7.3125,0.375,0.0625
109070680638,-1.4375,1.0625,0.25
109070703307,3.875,1.125,-0.5625
109070733759,3.125,-0.6875,-0.625
109070743135,0.9375,-1.9375,-0.5
109070763279,1.3125,-1.8125,-0.875
109070785662,2.75,-1,-1
109070802147,1.875,-1.1875,-0.125
109070823162,0.375,-1,0.75
109070845673,0.4375,-0.625,0.375
109070862195,0.125,-0.625,0.375
109070883169,-0.625,-0.125,0.0625
109070905654,-1.4375,0.1875,0.3125
109070922099,-0.3125,0.6875,0
109070944332,0.9375,0.8125,-0.125
109070965719,0.75,0.625,0.125
109070982117,0.5,0.25,0.0625
109071003191,0.3125,-0.0625,-0.375
109071025901,0.375,-0.75,0.125
109071043555,-0.5625,-1.0625,-0.0625
109071064673,0.4375,-1.0625,0.0625
109071085676,2,-0.625,0.1875
109071103586,2.25,-0.1875,0.0625
109071123318,1.5625,-0.625,-0.125
109071145664,0.1875,-1.1875,-0.0625
109071163565,0.6875,-0.875,-0.125
109071183329,0.875,-0.1875,-0.3125
109071205761,1.5,0.3125,-0.25
109071223593,0.75,0.125,-0.4375
109071243149,-0.4375,0,-0.1875
109071260994,-1,0.5625,0
109071283785,-1,0.375,-0.4375
109071303122,-0.6875,0.4375,-0.125
109071325833,0.1875,-0.1875,-0.125
109071343578,1.5625,0.1875,-0.5
109071363158,3.5625,0.3125,-0.1875
109071381185,4.25,-1.3125,1.0625
109071403571,8.5625,-4.875,2.8125
109071423306,-2.5625,-3.5,0.3125
109071441113,-3.75,-1.3125,-0.5
109071463540,-4.375,-3.0625,2.6875
109071483360,3.4375,-7.0625,6.1875
109071501086,12.125,-9,3.5
109071523758,10.1875,-10.75,-0.1875
109071543128,17.125,-8.8125,0.5
109071561983,11.375,-4.4375,1.4375
109071583651,14.625,-3.125,2.5
109071603200,13.0625,1.75,0.6875
109071625851,-9.1875,1.75,-0.5
109071643698,-10.8125,-3.3125,-2.75
109071663196,-6.5625,0.375,-3.5
109071681129,4.0625,2.0625,-1.8125
109071703615,8.0625,0,-0.125
109071724762,3.8125,-7.5,4.0625
109071741202,6.8125,-9.875,3.3125
109071764433,8.875,-2.25,2.5
109071784815,6.375,-0.5,2.625
109071801113,0.6875,-2.75,2.625
109071823650,-4.25,-4.75,-0.875
109071844657,3.4375,-3.875,-0.5
109071861108,6.125,-0.9375,1.0625
109071885031,6.75,-1.75,0.6875
109071904669,4.125,1.8125,0.5
109071925726,-1.625,-0.4375,-1.125
109071943622,-7.625,-2.25,-1.5625
109071964623,-8.8125,-3.4375,-0.1875
109071981161,3.3125,-1.6875,0.8125
109072003599,8.875,1,2.125
109072024609,3.125,1.6875,1.8125
109072041242,0.75,1.4375,0.3125
109072063686,-6.8125,0.6875,-0.6875
109072086189,-1.5625,0.75,-0.4375
109072106373,1.375,1.75,-0.5625
109072122808,-0.6875,1.5625,-0.0625
109072145303,-2.75,0.1875,-0.9375
109072166385,3.9375,0.4375,0.3125
109072182853,0.5,2.125,1
109072205377,-0.6875,1.5625,1.5625
109072227830,-5.6875,3.9375,1.4375
109072242868,-8.6875,3.625,0.9375
109072265747,-4.4375,3.1875,-1.5
109072279714,-5.1875,5.375,-3.375
109072302902,-1.4375,6.25,-3.0625
109072326759,10.4375,7.875,-2.6875
109072339624,9.8125,10.625,0.1875
109072362849,-1.5,11.9375,0.625
109072385400,-11.4375,9.25,-0.5625
109072399652,-15,6.125,-2.5625
109072422819,-8.25,7.25,-6
109072445327,-4.375,7.1875,-8
109072459744,-3.125,8.75,-2.25
109072482842,-0.5,7.6875,0.375
109072505812,-4.5,5.375,-2.875
109072527836,-9.3125,1.4375,-4.1875
109072542843,-9.1875,-1.125,-3.5625
109072565360,-3.1875,-0.9375,-2.125
109072586365,1.4375,0.25,-0.6875
109072602861,2.6875,1.1875,1.75
109072632833,1.5625,0.5,1.875
109072646584,-0.625,-1.5,-0.625
109072662881,-1.9375,-2.625,-2.4375
109072685305,-0.625,-2.1875,-1.5
109072706427,0.5625,-1.125,-0.375
109072722845,1.9375,0.6875,-0.1875
109072745341,0.125,1.3125,0.75
109072766451,-1.6875,1.0625,1.375
109072782786,-3.1875,0.8125,0.25
109072805314,-3.0625,-0.0625,-0.0625
109072826388,-2,0.3125,0.6875
109072842840,-0.5625,1.375,0.1875
109072865891,-0.25,1.9375,0.125
109072886377,-1.5625,1.5625,0.4375
109072902857,-2.25,0.4375,0.1875
109072925484,-1.125,-0.4375,0.1875
109072947823,0.5,-0.8125,0.3125
109072962826,2.5,-0.25,0.125
109072985371,2.5,-0.25,0
109073007899,0.875,-0.875,0
109073022891,0.1875,-1.25,-0.375
109073045358,1.375,-0.9375,-0.5625
109073067994,2.9375,-0.1875,-0.4375
109073082227,2.125,-0.1875,0.1875
109073105740,-0.5625,0.0625,0.375
109073127891,-0.875,-1.125,0.875
109073142197,-0.3125,0.125,-0.875
109073165366,-5.75,1.3125,0.5
109073187882,-4.375,0.125,1.0625
109073202270,-2.875,-0.375,0.25
109073225369,3.1875,-2.375,0
109073247853,6.4375,-1.4375,1
109073262241,0.5625,1.4375,0.9375
109073285374,-3.1875,0.75,1.625
109073309092,-2.1875,-2.25,0.375
109073322232,0.3125,-5.375,-1.125
109073345376,5.8125,-4.4375,-1.5625
109073367965,6.5625,-1.0625,0.625
109073382360,6.8125,1.1875,0.9375
109073405407,6.3125,-1.5,2.75
109073427954,-0.5625,-4,-2.1875
109073442304,-4,-5.9375,0
109073465438,14,-4.5,-1.4375
109073487933,13.375,0.1875,-3.4375
109073508969,13.75,-1.125,-3.0625
109073525420,-6.625,-0.9375,0.125
109073547848,-6.4375,-3.75,-0.1875
109073569087,-4.4375,-5.4375,-2.3125
109073585392,6.9375,-0.5625,1.625
109073615409,10.125,0.625,2
109073629036,0.125,-1.5625,2.375
109073645395,-11.6875,-7,1.1875
109073668044,-4,-9.375,1.0625
109073691018,16.875,-7,0.8125
109073705357,20.375,-0.9375,6.25
109073727925,0.5,-1.0625,6.125
