timestamp,roll,pitch,yaw
109000433310,0.535298,0.254935,1.16998
109000449837,0.535025,0.257824,1.17046
109000472365,0.533174,0.259913,1.17048
109000486690,0.532127,0.260541,1.17009
109000509758,0.531841,0.260952,1.16969
109000532296,0.531949,0.260889,1.16971
109000553432,0.532446,0.261038,1.17051
109000569802,0.532809,0.26168,1.17174
109000592365,0.532386,0.262915,1.1725
109000613428,0.530615,0.264102,1.17281
109000630382,0.528476,0.265655,1.1736
109000652383,0.525607,0.266732,1.17355
109000673480,0.523287,0.267799,1.17337
109000689884,0.521373,0.268698,1.17339
109000712360,0.520652,0.269206,1.17336
109000733445,0.519504,0.2697,1.17288
109000749820,0.519397,0.269764,1.17286
109000772366,0.520365,0.269616,1.17296
109000793549,0.521583,0.269548,1.17316
109000809819,0.521583,0.269548,1.17316
109000832322,0.521604,0.269381,1.1731
109000853478,0.522262,0.26962,1.17474
109000869746,0.521576,0.270847,1.17661
109000892773,0.520881,0.272303,1.17689
109000913462,0.521116,0.273156,1.17577
109000929848,0.522845,0.273579,1.17511
109000952345,0.52516,0.274019,1.17583
109000974792,0.527187,0.274432,1.1766
109000989799,0.527193,0.275203,1.17688
109001012341,0.52538,0.275893,1.1767
109001034793,0.523882,0.276154,1.17708
109001049826,0.523533,0.276273,1.17761
109001072314,0.523419,0.276721,1.17818
109001094827,0.522946,0.277154,1.17864
109001109172,0.521536,0.277609,1.17836
109001132308,0.519942,0.277633,1.17803
109001154794,0.519041,0.277163,1.17758
109001169128,0.519183,0.276429,1.17677
109001192358,0.520522,0.275369,1.17622
109001214862,0.522946,0.274856,1.17649
109001229150,0.523924,0.274842,1.17723
109001259852,0.523356,0.275021,1.17741
109001274821,0.521595,0.275342,1.17684
109001289169,0.52034,0.27528,1.17627
109001312367,0.519673,0.275405,1.17626
109001334844,0.519601,0.275334,1.17622
109001349184,0.520503,0.274914,1.1762
109001372324,0.521276,0.275347,1.17629
109001394816,0.52074,0.275665,1.17623
109001409179,0.52074,0.275665,1.17623
109001432343,0.52074,0.275665,1.17623
109001454871,0.520769,0.275025,1.17632
109001475962,0.520666,0.273577,1.17577
109001492374,0.519333,0.271557,1.17452
109001514772,0.517382,0.269415,1.17243
109001536026,0.518404,0.267423,1.1719
109001552304,0.519459,0.265898,1.17244
109001574883,0.517344,0.263797,1.17167
109001596007,0.513641,0.261008,1.16916
109001612386,0.512633,0.257823,1.16703
109001634863,0.515431,0.255407,1.16688
109001655736,0.517892,0.253075,1.16697
109001672421,0.517605,0.250921,1.16436
109001694891,0.518293,0.247689,1.16093
109001715931,0.522859,0.244392,1.15816
109001739899,0.526834,0.24173,1.15648
109001754852,0.531117,0.238783,1.15596
109001775966,0.534404,0.23634,1.15549
109001792402,0.536282,0.234644,1.1556
109001814901,0.536925,0.23333,1.15622
109001835954,0.536639,0.232018,1.15674
109001852342,0.534312,0.230966,1.1563
109001874840,0.532545,0.229406,1.15481
109001897357,0.532211,0.228314,1.1536
109001912361,0.533624,0.227587,1.15345
109001934922,0.535588,0.227163,1.15402
109001957452,0.537017,0.22729,1.15507
109001972391,0.53649,0.227937,1.15589
109001994927,0.533882,0.227097,1.15605
109002017314,0.529676,0.224825,1.15496
109002031630,0.528364,0.222609,1.154
109002054817,0.53101,0.221306,1.1543
109002077483,0.534463,0.221066,1.1555
109002091741,0.537843,0.222177,1.1564
109002114840,0.540124,0.224673,1.15745
109002137375,0.544254,0.22928,1.1595
109002151776,0.548191,0.23544,1.16132
109002174874,0.547235,0.240111,1.16357
109002197405,0.543205,0.243156,1.16567
109002211715,0.541777,0.244833,1.16764
109002234877,0.542755,0.245272,1.16838
109002257345,0.543444,0.24611,1.16829
109002271765,0.542156,0.24724,1.16739
109002294833,0.541508,0.248253,1.16696
109002317378,0.542339,0.249381,1.16716
109002331692,0.542062,0.250718,1.1677
109002354846,0.540833,0.251465,1.16789
109002377394,0.538689,0.251909,1.16769
109002398534,0.536731,0.252086,1.16777
109002414878,0.537186,0.252303,1.16828
109002437349,0.53743,0.252793,1.16897
109002458630,0.537389,0.253694,1.16927
109002474906,0.535921,0.254523,1.16897
109002497345,0.534455,0.254929,1.16867
109002518566,0.534875,0.25515,1.16858
109002534942,0.535585,0.255529,1.16908
109002557428,0.535858,0.256358,1.1696
109002578443,0.535048,0.257182,1.16949
109002594891,0.534956,0.257276,1.1695
109002617399,0.535026,0.257348,1.16954
109002638608,0.535042,0.257379,1.16957
109002654867,0.534956,0.257276,1.1695
109002677416,0.535253,0.257106,1.16938
109002698632,0.535717,0.256995,1.16918
109002714895,0.536209,0.257222,1.16881
109002737339,0.536209,0.257222,1.16881
109002758590,0.536209,0.257222,1.16881
109002774936,0.536209,0.257222,1.16881
109002797367,0.536209,0.257222,1.16881
109002818596,0.535406,0.257295,1.168
109002834249,0.535145,0.256708,1.16697
109002857387,0.536431,0.256081,1.16669
109002879923,0.538058,0.255722,1.16646
109002894878,0.539123,0.25542,1.16623
109002917399,0.539788,0.255153,1.16603
109002939875,0.540098,0.254869,1.16573
109002954854,0.539638,0.254505,1.16501
109002977432,0.539264,0.253887,1.16468
109002999918,0.539662,0.253004,1.16448
109003014320,0.541186,0.252856,1.16445
109003037428,0.541842,0.252642,1.16412
109003059916,0.542022,0.252228,1.16418
109003074224,0.543291,0.251982,1.16448
109003097364,0.545534,0.251953,1.16455
109003127375,0.549131,0.251636,1.16479
109003134213,0.552837,0.25132,1.16535
109003157450,0.554838,0.25051,1.16537
109003179914,0.555852,0.249327,1.16496
109003194323,0.556653,0.247847,1.16453
109003217448,0.558347,0.246351,1.16405
109003239922,0.56117,0.245087,1.16387
109003262390,0.56486,0.244169,1.16377
109003277395,0.569764,0.242741,1.16385
109003299920,0.574631,0.240316,1.16312
109003321024,0.579966,0.237223,1.16092
109003337427,0.584666,0.233389,1.15781
109003359873,0.589296,0.228603,1.15506
109003381041,0.594966,0.223853,1.15263
109003403616,0.600806,0.219491,1.15039
109003419962,0.605256,0.216481,1.14747
109003440983,0.60723,0.213685,1.14477
109003457395,0.607203,0.212002,1.14294
109003479969,0.606097,0.211205,1.14201
109003500983,0.604293,0.210705,1.14158
109003517420,0.600686,0.210349,1.14082
109003539925,0.595794,0.210222,1.14021
109003561060,0.590999,0.210872,1.14023
109003577467,0.586023,0.212022,1.14052
109003599958,0.580144,0.213512,1.14053
109003620957,0.573071,0.21471,1.13964
109003637442,0.565857,0.216004,1.13802
109003659924,0.56039,0.21757,1.13714
109003682445,0.555817,0.21951,1.13695
109003697488,0.551902,0.220735,1.13759
109003719978,0.547028,0.222025,1.13991
109003741089,0.54723,0.223359,1.14326
109003757442,0.549113,0.224893,1.14731
109003779983,0.543554,0.226357,1.15097
109003802438,0.535454,0.227696,1.15491
109003816795,0.528827,0.229802,1.15909
109003839995,0.52081,0.234156,1.16304
109003862474,0.507481,0.237642,1.16501
109003876752,0.49146,0.239044,1.16722
109003900065,0.478877,0.240263,1.16931
109003922415,0.470171,0.24068,1.1718
109003936772,0.46427,0.240368,1.17441
109003960389,0.458696,0.241222,1.17644
109003982443,0.453644,0.243242,1.17851
109003996770,0.44928,0.247216,1.18153
109004020005,0.448025,0.252594,1.18522
109004042443,0.442289,0.258264,1.18701
109004063641,0.434613,0.260652,1.18623
109004079914,0.434993,0.261521,1.18704
109004102419,0.437194,0.26246,1.18675
109004123490,0.433629,0.259793,1.18481
109004139929,0.428223,0.251734,1.18034
109004162385,0.429654,0.244208,1.17536
109004183490,0.441241,0.240228,1.17323
109004199684,0.453205,0.239881,1.17216
109004222439,0.458356,0.23924,1.16858
109004244935,0.461027,0.235222,1.16377
109004259934,0.469801,0.230749,1.15954
109004282416,0.482408,0.225755,1.15707
109004303400,0.493528,0.219081,1.15484
109004310293,0.503512,0.211168,1.15246
109004325321,0.51307,0.204124,1.15128
109004347809,0.522358,0.198036,1.15165
109004370336,0.52879,0.193396,1.15216
109004385301,0.534043,0.189522,1.15243
109004407806,0.536266,0.18682,1.15183
109004439248,0.535366,0.185114,1.15103
109004445292,0.534582,0.184888,1.1509
109004467825,0.536102,0.186353,1.15238
109004490378,0.537324,0.189028,1.15419
109004512827,0.537592,0.191872,1.15536
109004528008,0.536547,0.194644,1.1557
109004550335,0.534874,0.196677,1.15607
109004565356,0.535571,0.19815,1.15719
109004587868,0.537948,0.199699,1.15881
109004610339,0.53928,0.200816,1.15986
109004625503,0.537882,0.200833,1.15963
109004647845,0.53653,0.200332,1.15863
109004670394,0.537817,0.199314,1.1582
109004685367,0.542273,0.197766,1.15861
109004707819,0.54859,0.196338,1.15899
109004730520,0.55187,0.195359,1.15807
109004745335,0.551968,0.194781,1.15551
109004767801,0.550645,0.194238,1.15256
109004791820,0.551167,0.192933,1.15002
109004805310,0.553601,0.191899,1.1478
109004827898,0.556819,0.19111,1.14514
109004850328,0.56089,0.191548,1.14209
109004865346,0.56428,0.193578,1.13822
109004888047,0.566084,0.196801,1.13284
109004910330,0.566235,0.200731,1.12474
109004925377,0.56717,0.203429,1.11603
109004950743,0.573674,0.202467,1.10656
109004970395,0.584709,0.194225,1.09654
109004985328,0.593293,0.168902,1.09038
109005007887,0.613914,0.141042,1.07988
109005030505,0.648177,0.111302,1.07763
109005046087,0.672909,0.0765596,1.07312
109005067817,0.674755,0.0372092,1.06143
109005090381,0.661534,-0.00304682,1.04794
109005105336,0.645306,-0.0448442,1.03509
109005127880,0.637722,-0.0872711,1.02288
109005150397,0.639113,-0.129581,1.01293
109005165342,0.646566,-0.171244,1.00321
109005187868,0.656789,-0.211061,0.992263
109005210365,0.668908,-0.247447,0.980061
109005225358,0.686601,-0.276237,0.966351
109005248583,0.706707,-0.296899,0.95143
109005270349,0.728596,-0.307234,0.933719
109005285507,0.75101,-0.304447,0.913404
109005307857,0.776887,-0.288717,0.893143
109005330361,0.803292,-0.261106,0.873602
109005346959,0.825607,-0.221699,0.85864
109005367847,0.843375,-0.166495,0.851127
109005390572,0.868495,-0.0905479,0.85096
109005406871,0.894335,0.00227675,0.85312
109005427934,0.911481,0.0926903,0.859156
109005450512,0.939248,0.163243,0.871307
109005466809,0.963961,0.21537,0.882501
109005487950,0.965847,0.248082,0.884121
109005510354,0.936113,0.25069,0.879396
109005526853,0.90691,0.23007,0.876838
109005548061,0.895915,0.198867,0.875056
109005570458,0.888536,0.163619,0.874047
109005588488,0.8693,0.127394,0.872865
109005607881,0.842098,0.0882144,0.869482
109005630362,0.815635,0.0446224,0.866757
109005648477,0.794623,-0.00510555,0.866599
109005667836,0.771628,-0.0585342,0.868409
109005690509,0.741917,-0.11448,0.87184
109005708515,0.709296,-0.17043,0.87519
109005727857,0.680717,-0.222537,0.878917
109005750407,0.658343,-0.270438,0.882686
109005768330,0.649337,-0.307893,0.886035
109005788036,0.648082,-0.33726,0.888929
109005810448,0.652107,-0.358071,0.888487
109005828294,0.655503,-0.369193,0.886581
109005848043,0.655101,-0.370847,0.886305
109005871117,0.653105,-0.363468,0.888729
109005893718,0.64925,-0.349613,0.893897
109005907877,0.647409,-0.327644,0.899772
109005930436,0.658159,-0.308001,0.900177
109005945564,0.664938,-0.287317,0.900092
109005967886,0.667593,-0.27784,0.898376
109005990479,0.678715,-0.266375,0.8923
109006005371,0.697724,-0.248033,0.885046
109006027886,0.718625,-0.224349,0.880217
109006059349,0.726667,-0.20607,0.878606
109006065413,0.735469,-0.192852,0.875428
109006088497,0.7348,-0.184679,0.874068
109006110650,0.733445,-0.178596,0.873688
109006125403,0.732266,-0.175606,0.873741
109006147961,0.733099,-0.17454,0.87435
109006170394,0.733885,-0.174682,0.874071
109006185406,0.722517,-0.182958,0.875172
109006208001,0.716812,-0.18894,0.875182
109006224338,0.711494,-0.182962,0.87498
109006245330,0.705225,-0.180431,0.875767
109006267897,0.703811,-0.191109,0.875047
109006284346,0.704569,-0.179002,0.874692
109006305482,0.703146,-0.187803,0.874039
109006327883,0.699122,-0.178401,0.874588
109006344347,0.701587,-0.180897,0.873527
109006365540,0.695038,-0.180332,0.874495
109006387914,0.70355,-0.173298,0.872421
109006404334,0.697339,-0.178899,0.873129
109006425379,0.705357,-0.165391,0.871694
109006447889,0.69937,-0.17682,0.872511
109006464427,0.705151,-0.161257,0.871619
109006486834,0.704765,-0.171311,0.871285
109006508060,0.704757,-0.159806,0.871616
109006524457,0.706774,-0.164285,0.870725
109006546860,0.706625,-0.158444,0.871214
109006567896,0.706365,-0.157046,0.871219
109006584406,0.707196,-0.156238,0.871439
109006606850,0.707954,-0.155716,0.870948
109006628197,0.707226,-0.154979,0.870417
109006644364,0.705953,-0.154751,0.86992
109006666858,0.704831,-0.155239,0.869644
109006687944,0.70445,-0.155788,0.869451
109006704373,0.703201,-0.155778,0.868732
109006734417,0.70099,-0.155679,0.867978
109006747931,0.69909,-0.155986,0.86784
109006765876,0.698863,-0.155915,0.868007
109006787548,0.698655,-0.155751,0.868182
109006810033,0.697689,-0.155619,0.868268
109006824439,0.696198,-0.155635,0.867978
109006847565,0.694634,-0.155538,0.86787
109006870078,0.693785,-0.155551,0.868222
109006884416,0.694732,-0.155196,0.868734
109006907542,0.694581,-0.154657,0.869328
109006930074,0.69382,-0.1538,0.869545
109006944397,0.69306,-0.152943,0.869762
109006967597,0.692461,-0.152085,0.870139
109006990092,0.692071,-0.151391,0.870607
109007011107,0.69184,-0.150698,0.870969
109007027571,0.690971,-0.150006,0.870956
109007050078,0.690001,-0.149253,0.87097
109007064396,0.689308,-0.148643,0.871409
109007087592,0.689711,-0.147731,0.87145
109007110032,0.690083,-0.14714,0.871227
109007131238,0.690647,-0.146539,0.871198
109007147521,0.690302,-0.145701,0.871296
109007170024,0.690529,-0.144882,0.871437
109007191223,0.690648,-0.143961,0.871459
109007207509,0.690622,-0.143123,0.871611
109007230055,0.690507,-0.142667,0.871579
109007251120,0.690431,-0.142243,0.871725
109007268657,0.69042,-0.141892,0.871544
109007290131,0.690426,-0.141448,0.871106
109007312517,0.690394,-0.14119,0.870916
109007327572,0.690721,-0.140744,0.8708
109007350012,0.691387,-0.140205,0.870748
109007371116,0.691859,-0.139851,0.871052
109007387595,0.691992,-0.139902,0.871058
109007410015,0.691787,-0.139737,0.871233
109007431184,0.690469,-0.139481,0.871473
109007447619,0.690424,-0.139626,0.871576
109007470067,0.691138,-0.139427,0.872005
109007491209,0.693477,-0.138955,0.872975
109007507557,0.694116,-0.138467,0.874223
109007530069,0.694138,-0.137929,0.874981
109007552554,0.693717,-0.137557,0.874917
109007567505,0.691381,-0.136648,0.875124
109007590027,0.689906,-0.135944,0.875949
109007612589,0.689806,-0.135394,0.876845
109007626928,0.690512,-0.134978,0.877768
109007650079,0.692027,-0.13412,0.878796
109007672568,0.693969,-0.133191,0.879454
109007687603,0.695736,-0.132533,0.879573
109007710109,0.695075,-0.132004,0.879382
109007732574,0.692669,-0.131597,0.879564
109007746920,0.691483,-0.130726,0.879861
109007770515,0.692565,-0.13052,0.880921
109007792592,0.693344,-0.131152,0.882689
109007806918,0.692459,-0.131749,0.883841
109007829998,0.69165,-0.132365,0.884286
109007852661,0.690655,-0.132723,0.884647
109007866955,0.68868,-0.133344,0.885113
109007890030,0.687663,-0.133752,0.88559
109007912583,0.68761,-0.133989,0.886222
109007926915,0.687998,-0.13406,0.887409
109007950107,0.689048,-0.133423,0.887727
109007972603,0.688537,-0.132365,0.887887
109007986928,0.686377,-0.131442,0.888253
109008010162,0.684852,-0.13048,0.888855
109008032645,0.684892,-0.129497,0.889174
109008046971,0.685595,-0.128291,0.889211
109008070097,0.686321,-0.127345,0.889172
109008092610,0.687048,-0.126398,0.889133
109008121132,0.687411,-0.125905,0.889176
109008130047,0.686016,-0.125482,0.889176
109008152697,0.685736,-0.125027,0.888713
109008173667,0.68708,-0.123961,0.888622
109008191839,0.687902,-0.12321,0.888965
109008212612,0.687606,-0.12232,0.889221
109008233666,0.686774,-0.121571,0.889089
109008250151,0.686142,-0.120679,0.888749
109008272621,0.685633,-0.119759,0.888394
109008293376,0.685314,-0.11896,0.888639
109008310058,0.684848,-0.118028,0.888585
109008332580,0.684161,-0.117241,0.888202
109008353802,0.684023,-0.116528,0.887981
109008370572,0.68503,-0.114933,0.887762
109008394788,0.68457,-0.11325,0.887239
109008413804,0.683898,-0.111533,0.887025
109008430081,0.682403,-0.110349,0.886956
109008452620,0.682137,-0.109276,0.886696
109008473668,0.682583,-0.108496,0.886271
109008496124,0.684012,-0.107624,0.886304
109008512650,0.684729,-0.106769,0.886536
109008535102,0.684371,-0.106471,0.886143
109008550163,0.682038,-0.10635,0.885484
109008572692,0.681333,-0.105704,0.884317
109008596333,0.684024,-0.104975,0.883424
109008610197,0.685739,-0.104112,0.883489
109008632596,0.686452,-0.104583,0.882955
109008655045,0.685542,-0.104342,0.882798
109008676159,0.682743,-0.103209,0.882982
109008692624,0.683414,-0.102893,0.882453
109008715164,0.685522,-0.102845,0.880413
109008729484,0.687003,-0.103409,0.879235
109008752632,0.691008,-0.104576,0.88207
109008775149,0.692778,-0.103671,0.88491
109008789463,0.689678,-0.10542,0.881477
109008812728,0.68498,-0.110059,0.870387
109008835104,0.677544,-0.113877,0.866736
109008856388,0.683107,-0.117478,0.868901
109008872751,0.702594,-0.118328,0.866686
109008895097,0.708935,-0.118625,0.863663
109008916304,0.700479,-0.119551,0.858942
109008932651,0.688353,-0.120342,0.855632
109008955183,0.689416,-0.121326,0.854699
109008976208,0.703445,-0.122063,0.853771
109008992590,0.71279,-0.121927,0.852657
109009015170,0.708677,-0.121896,0.852067
109009036147,0.702141,-0.121451,0.85124
109009052628,0.698832,-0.122091,0.851381
109009082582,0.702588,-0.12279,0.851538
109009096169,0.709233,-0.123956,0.852007
109009112812,0.712534,-0.123821,0.852682
109009135141,0.708746,-0.122901,0.852741
109009156305,0.702896,-0.122438,0.852862
109009172695,0.699094,-0.121571,0.851599
109009195511,0.700797,-0.12037,0.849281
109009216399,0.709379,-0.118968,0.849274
109009232690,0.71684,-0.118571,0.849799
109009255161,0.729707,-0.119009,0.847453
109009277717,0.734419,-0.117541,0.849986
109009292638,0.729057,-0.114173,0.857398
109009315218,0.719189,-0.110643,0.863881
109009339068,0.707797,-0.106586,0.871328
109009351930,0.700678,-0.101368,0.879243
109009375235,0.694663,-0.0977169,0.886288
109009403725,0.691347,-0.0946105,0.8936
109009411943,0.688712,-0.0917505,0.900046
109009435185,0.686452,-0.0887807,0.905415
109009457705,0.686278,-0.0868407,0.909249
109009478851,0.689897,-0.0853852,0.91269
109009495166,0.697231,-0.0843481,0.915539
109009517627,0.705606,-0.0832974,0.917504
109009538777,0.714872,-0.082104,0.919844
109009555145,0.725856,-0.0793176,0.922462
109009583764,0.73511,-0.0757591,0.924575
109009592020,0.740886,-0.0724997,0.926835
109009615535,0.745089,-0.0694426,0.929844
109009637728,0.750006,-0.0658425,0.932756
109009651967,0.756222,-0.0616025,0.935267
109009675278,0.761008,-0.0577612,0.938933
109009697657,0.763926,-0.054955,0.94335
109009711944,0.765962,-0.0530683,0.948606
109009735230,0.767444,-0.0515425,0.954095
109009757635,0.768935,-0.0502368,0.959358
109009778703,0.76905,-0.0478896,0.964643
109009795181,0.768772,-0.0447518,0.969565
109009817934,0.770383,-0.0427609,0.974101
109009838841,0.77402,-0.0403169,0.979232
109009855151,0.776725,-0.0362154,0.984874
109009877756,0.778431,-0.0318569,0.990724
109009898734,0.781565,-0.0275898,0.996877
109009915332,0.784314,-0.0226491,1.00218
109009937754,0.784501,-0.0185066,1.0065
109009958728,0.784802,-0.0166918,1.01155
109009975321,0.788393,-0.0163401,1.01733
109009997663,0.793841,-0.0166211,1.02194
109010020188,0.796925,-0.0170996,1.02396
109010035200,0.796682,-0.0184892,1.025
109010065163,0.798036,-0.0209338,1.02689
109010078839,0.804898,-0.0242089,1.02891
109010095182,0.813829,-0.028153,1.02945
109010117634,0.821657,-0.0313874,1.02804
109010138787,0.829134,-0.0333374,1.02524
109010155234,0.838718,-0.036017,1.02323
109010177668,0.849319,-0.0385278,1.02183
109010198859,0.856512,-0.0393153,1.02009
109010215182,0.859453,-0.0398109,1.01733
109010237666,0.864134,-0.0368644,1.01653
109010258751,0.872476,-0.0329753,1.01846
109010275186,0.881305,-0.0309514,1.0208
109010297689,0.888155,-0.0314211,1.02184
109010318728,0.895662,-0.0342742,1.02145
109010342730,0.905509,-0.0387281,1.02074
109010357692,0.916471,-0.0436683,1.01975
109010378751,0.924808,-0.0479407,1.01855
109010394560,0.928581,-0.0509932,1.01645
109010417683,0.929612,-0.0528664,1.01342
109010440230,0.930447,-0.0529903,1.01012
109010454572,0.930698,-0.0517439,1.00656
109010477732,0.930436,-0.0496001,1.00345
109010500195,0.928972,-0.047464,1.00178
109010515174,0.926702,-0.0460103,1.00146
109010537689,0.922714,-0.045373,1.00232
109010560276,0.91778,-0.0452804,1.00363
109010574532,0.912899,-0.045769,1.00515
109010597712,0.908788,-0.0465741,1.00671
109010620141,0.905048,-0.0473856,1.00853
109010634532,0.901363,-0.0482927,1.01015
109010657744,0.897937,-0.0492555,1.01167
109010680134,0.895735,-0.0496552,1.01313
109010694629,0.894331,-0.0501745,1.01364
109010717723,0.892719,-0.0505077,1.01293
109010740222,0.891163,-0.0508062,1.01164
109010754565,0.891085,-0.0515804,1.01048
109010777770,0.889686,-0.0517474,1.01022
109010800215,0.891546,-0.0523473,1.00961
109010814515,0.894176,-0.0514403,1.00879
109010837723,0.888106,-0.0515219,1.00964
109010860277,0.890489,-0.0528703,1.01223
109010865555,0.889161,-0.0543562,1.01075
109010897103,0.889686,-0.0545002,1.00801
109010903139,0.88907,-0.0537596,1.00835
109010925548,0.890182,-0.0530309,1.01068
109010948183,0.891112,-0.0545443,1.01019
109010963136,0.88905,-0.0555206,1.00832
109010985579,0.885363,-0.0549537,1.00724
109011008245,0.889946,-0.056095,1.00686
109011025979,0.894842,-0.0561729,1.00799
109011045686,0.894426,-0.0559598,1.00642
109011068110,0.892368,-0.0568286,1.00366
109011083052,0.893955,-0.0574917,1.00264
109011105788,0.89831,-0.0580699,1.00262
109011128086,0.900451,-0.0595751,1.00195
109011143110,0.898218,-0.0610621,0.999797
109011165715,0.903271,-0.0621205,0.99784
109011182029,0.909569,-0.0628255,0.998368
109011203254,0.911809,-0.0626285,0.999462
109011225609,0.907804,-0.0626165,0.998359
109011242153,0.901264,-0.0631515,0.995632
109011263388,0.90321,-0.0647483,0.994247
109011285606,0.907737,-0.0658469,0.994782
109011302095,0.909886,-0.0665521,0.994941
109011323290,0.908856,-0.0675221,0.994714
109011345990,0.906683,-0.0681105,0.994719
109011363625,0.907757,-0.0684629,0.994797
109011383126,0.907514,-0.0673453,0.995894
109011405650,0.905315,-0.0668468,0.996707
109011431026,0.902686,-0.0677941,0.995643
109011450610,0.903694,-0.0688046,0.993536
109011465878,0.913708,-0.0703938,0.991209
109011488127,0.925276,-0.0694185,0.993619
109011503189,0.927251,-0.0674088,0.996153
109011525783,0.920577,-0.0675188,0.997326
109011549654,0.913142,-0.0683623,0.996887
109011563242,0.909101,-0.0669164,0.995057
109011585738,0.911594,-0.0656909,0.993576
109011603562,0.916728,-0.0643197,0.993725
109011623120,0.919441,-0.0620134,0.994073
109011645621,0.91907,-0.0601699,0.993629
109011663602,0.916459,-0.0585926,0.993598
109011683118,0.916322,-0.0581649,0.995333
109011707081,0.91779,-0.0573488,0.998276
109011723638,0.914455,-0.0558502,1.00054
109011743172,0.908008,-0.0545276,1.00195
109011765761,0.901027,-0.0540609,1.00298
109011783523,0.895425,-0.0532654,1.0045
109011803107,0.893113,-0.0518258,1.0065
109011825845,0.891483,-0.049967,1.00852
109011843592,0.888215,-0.0480724,1.01002
109011863163,0.883347,-0.0468625,1.01159
109011887125,0.879556,-0.0457591,1.01336
109011903536,0.87772,-0.0441737,1.01505
109011923154,0.87584,-0.0426735,1.01606
109011953172,0.873339,-0.0423106,1.01641
109011963576,0.871045,-0.0422183,1.01698
109011984599,0.869995,-0.0426299,1.01809
109012008599,0.870656,-0.0427289,1.01914
109012023609,0.871527,-0.0435881,1.01957
109012044610,0.872198,-0.0450917,1.01936
109012065616,0.872092,-0.0467173,1.01875
109012083598,0.872508,-0.0482885,1.01828
109012104614,0.873875,-0.0492909,1.01785
109012125650,0.875293,-0.0499724,1.01756
109012143623,0.876427,-0.050841,1.01712
109012164535,0.877263,-0.0514253,1.01675
109012185674,0.878107,-0.0512218,1.01657
109012203573,0.879116,-0.0513633,1.01659
109012224597,0.87925,-0.0514183,1.0166
109012245675,0.878203,-0.0515465,1.01644
109012265416,0.877414,-0.0517236,1.01679
109012284594,0.876876,-0.0516554,1.01763
109012305696,0.875976,-0.0516924,1.0185
109012323584,0.874991,-0.0517781,1.01915
109012346098,0.874629,-0.0514586,1.01952
109012368579,0.8744,-0.0511943,1.0199
109012383790,0.873399,-0.0510355,1.02052
109012406005,0.872652,-0.0511371,1.02091
109012425763,0.872667,-0.050874,1.02166
109012443717,0.872306,-0.0505537,1.02203
109012470702,0.871906,-0.0501909,1.0221
109012485717,0.871231,-0.0499648,1.02203
109012503552,0.871231,-0.0499648,1.02203
109012526099,0.871161,-0.0500607,1.02197
109012545818,0.871828,-0.0502244,1.02253
109012563563,0.871828,-0.0502244,1.02253
109012586140,0.870972,-0.0502632,1.0223
109012605665,0.870507,-0.0502899,1.02234
109012623543,0.870507,-0.0502899,1.02234
109012646273,0.870547,-0.050332,1.02264
109012665686,0.870547,-0.050332,1.02264
109012683711,0.870547,-0.050332,1.02264
109012706159,0.870547,-0.050332,1.02264
109012725674,0.870005,-0.0502764,1.02284
109012743643,0.869652,-0.0501338,1.02298
109012766069,0.869682,-0.050111,1.02301
109012788699,0.869682,-0.050111,1.02301
109012803554,0.869682,-0.050111,1.02301
109012826100,0.869479,-0.0501517,1.02293
109012845903,0.869611,-0.050207,1.02295
109012869651,0.869611,-0.050207,1.02295
109012886121,0.869196,-0.0497978,1.02287
109012907154,0.868647,-0.0497591,1.02245
109012923649,0.867831,-0.0495282,1.02237
109012946283,0.867831,-0.0495282,1.02237
109012967078,0.867831,-0.0495282,1.02237
109012983678,0.867831,-0.0495282,1.02237
109013006132,0.86776,-0.0496242,1.0223
109013027096,0.867337,-0.0494627,1.02212
109013043764,0.867281,-0.0496048,1.0222
109013066096,0.869209,-0.0478108,1.02222
109013087147,0.865523,-0.0475794,1.02253
109013103656,0.863747,-0.0489333,1.02275
109013125283,0.865769,-0.0493497,1.0218
109013146416,0.867236,-0.0490398,1.02135
109013162793,0.864773,-0.0489584,1.0219
109013185032,0.864182,-0.0507007,1.02082
109013206452,0.868421,-0.0519813,1.01876
109013222751,0.870795,-0.0513867,1.01756
109013245445,0.878358,-0.049542,1.0157
109013267801,0.88329,-0.0510145,1.01634
109013283820,0.890544,-0.0540129,1.01701
109013305410,0.892871,-0.0545909,1.01636
109013327792,0.895611,-0.0541169,1.01693
109013342196,0.894798,-0.054052,1.01724
109013365304,0.896747,-0.0550433,1.01724
109013394049,0.895803,-0.0544938,1.01853
109013402873,0.893417,-0.0542634,1.01852
109013425284,0.893426,-0.0543205,1.01803
109013447885,0.893739,-0.0543063,1.0167
109013462184,0.895729,-0.0550934,1.01573
109013492982,0.897352,-0.0558016,1.01563
109013507815,0.898327,-0.0572354,1.01582
109013522139,0.897227,-0.0581097,1.01452
109013545361,0.899364,-0.0604768,1.01251
109013567845,0.903619,-0.062465,1.0126
109013583133,0.906681,-0.0637918,1.0127
109013605358,0.905581,-0.0642371,1.01239
109013627843,0.900781,-0.0644002,1.01038
109013642231,0.899572,-0.0652851,1.00795
109013672804,0.904754,-0.0672052,1.00781
109013688504,0.906928,-0.067771,1.009
109013702228,0.905186,-0.0688272,1.00871
109013726779,0.901266,-0.0692451,1.0076
109013754064,0.896848,-0.0691895,1.00596
109013768899,0.899287,-0.0691024,1.00485
109013785309,0.906086,-0.0689126,1.00606
109013807883,0.909951,-0.0700262,1.00834
109013828839,0.911626,-0.0713301,1.00983
109013845370,0.907043,-0.0725796,1.01052
109013867861,0.900615,-0.0729872,1.01148
109013888990,0.898284,-0.0711873,1.01272
109013906798,0.893482,-0.0694338,1.01491
109013927793,0.890784,-0.069355,1.01854
109013948901,0.889508,-0.0687159,1.01963
109013965359,0.886558,-0.0668744,1.01807
109013988534,0.880176,-0.0644344,1.01708
109014009047,0.875128,-0.0616087,1.01751
109014025415,0.872352,-0.0589509,1.01807
109014047857,0.871252,-0.0570386,1.01821
109014068960,0.873738,-0.0572766,1.01807
109014085307,0.875734,-0.0578737,1.01733
109014107889,0.876252,-0.0583746,1.01675
109014128944,0.877499,-0.0590879,1.01578
109014145318,0.879313,-0.0577787,1.01448
109014167896,0.881195,-0.0569309,1.01327
109014188891,0.882204,-0.0558667,1.01245
109014205307,0.880008,-0.0548325,1.01194
109014227947,0.879645,-0.0546179,1.0132
109014250383,0.880311,-0.0545766,1.01525
109014279104,0.879038,-0.0537712,1.01593
109014287800,0.874791,-0.0528382,1.01551
109014310369,0.871598,-0.0527466,1.01558
109014325334,0.870879,-0.0524012,1.01634
109014347868,0.871488,-0.0518544,1.01766
109014370405,0.871452,-0.0516015,1.01887
109014384700,0.870777,-0.0514917,1.01906
109014408584,0.869841,-0.0511379,1.01885
109014430369,0.869841,-0.0511379,1.01885
109014444715,0.869701,-0.0509043,1.01907
109014467871,0.869048,-0.0505932,1.01952
109014490370,0.868348,-0.0506027,1.01983
109014504661,0.868216,-0.0505475,1.01982
109014527898,0.868216,-0.0505475,1.01982
109014550342,0.868216,-0.0505475,1.01982
109014571583,0.868804,-0.0505119,1.02028
109014587854,0.868797,-0.0504486,1.02077
109014611079,0.868325,-0.0502972,1.02104
109014624722,0.867179,-0.0503461,1.0209
109014647887,0.866598,-0.0502492,1.02082
109014670492,0.866598,-0.0502492,1.02082
109014691475,0.866584,-0.0500065,1.02153
109014707837,0.866584,-0.0500065,1.02153
109014730365,0.866584,-0.0500065,1.02153
109014751387,0.86626,-0.0498413,1.0217
109014767866,0.865719,-0.0497855,1.02191
109014790395,0.865117,-0.0495781,1.02217
109014811424,0.865172,-0.049436,1.02209
109014835421,0.865172,-0.049436,1.02209
109014850368,0.864678,-0.0496001,1.02236
109014871534,0.864693,-0.0496461,1.0225
109014887898,0.864693,-0.0496461,1.0225
109014910410,0.864623,-0.0497423,1.02244
109014931422,0.864623,-0.0497423,1.02244
109014947692,0.864389,-0.0493796,1.02193
109014970394,0.864389,-0.0493796,1.02193
109014991507,0.864327,-0.0492281,1.02198
109015007838,0.864256,-0.0493243,1.02191
109015030435,0.864883,-0.0492154,1.02165
109015058964,0.865297,-0.0495095,1.02146
109015067849,0.86543,-0.0495648,1.02148
109015090478,0.865297,-0.0495095,1.02146
109015111458,0.865297,-0.0495095,1.02146
109015128002,0.86543,-0.0495648,1.02148
109015156445,0.865359,-0.049661,1.02141
109015172843,0.865359,-0.049661,1.02141
109015187924,0.865359,-0.049661,1.02141
109015210391,0.865782,-0.0498222,1.0216
109015232990,0.865782,-0.0498222,1.0216
109015247974,0.865782,-0.0498222,1.0216
109015270377,0.865712,-0.0499183,1.02154
109015292935,0.865712,-0.0499183,1.02154
109015307277,0.865752,-0.0498448,1.02157
109015330572,0.86619,-0.0499374,1.02164
109015360384,0.86619,-0.0499374,1.02164
109015367287,0.866293,-0.0500154,1.02162
109015390606,0.866293,-0.0500154,1.02162
109015412859,0.866293,-0.0500154,1.02162
109015427317,0.866293,-0.0500154,1.02162
109015450448,0.866425,-0.0500707,1.02163
109015472883,0.866425,-0.0500707,1.02163
109015487368,0.865712,-0.0498035,1.02128
109015510421,0.865712,-0.0498035,1.02128
109015539040,0.865682,-0.0498262,1.02125
109015547375,0.865627,-0.0499684,1.02133
109015570406,0.865713,-0.0496888,1.02101
109015593087,0.865972,-0.0493909,1.02075
109015613977,0.865942,-0.0494136,1.02072
109015630427,0.867723,-0.0488114,1.02157
109015652922,0.867468,-0.0474044,1.02246
109015673922,0.857539,-0.0472247,1.02268
109015690530,0.856804,-0.050383,1.02372
109015712946,0.865702,-0.0511661,1.02314
109015733769,0.871313,-0.0479966,1.02171
109015750463,0.872971,-0.0475233,1.01844
109015778991,0.882195,-0.0518855,1.01568
109015793917,0.889331,-0.054718,1.01421
109015810411,0.89792,-0.0537393,1.01268
109015834060,0.897221,-0.0520652,1.01313
109015853977,0.891026,-0.0528634,1.01252
109015870404,0.886977,-0.052923,1.01199
109015892969,0.883327,-0.0528623,1.01223
109015913997,0.886611,-0.0543648,1.01247
109015930460,0.893858,-0.0548203,1.01384
109015952945,0.89747,-0.0544789,1.01441
109015975385,0.892772,-0.0547751,1.01376
109015990521,0.884906,-0.0550472,1.01144
109016012986,0.883545,-0.0563896,1.00879
109016033932,0.890316,-0.056623,1.00965
109016049812,0.899152,-0.0574281,1.01124
109016072964,0.901207,-0.0575174,1.0109
109016095464,0.897664,-0.0575342,1.00787
109016109792,0.894632,-0.0587276,1.00503
109016132913,0.896789,-0.059801,1.0041
109016156923,0.902847,-0.0603204,1.00451
109016171061,0.905687,-0.0604014,1.00483
109016192956,0.904918,-0.0605705,1.00458
109016215485,0.90196,-0.0603648,1.00413
109016230423,0.899343,-0.0598215,1.00438
109016252938,0.899278,-0.0596635,1.00507
109016275447,0.898843,-0.0590737,1.00586
109016289816,0.897333,-0.0594029,1.00613
109016319060,0.89706,-0.0595399,1.00599
109016335446,0.896595,-0.0593246,1.00615
109016349819,0.897972,-0.0583642,1.00709
109016372980,0.898297,-0.0574216,1.009
109016396868,0.895931,-0.0555656,1.01244
109016416670,0.891069,-0.0537919,1.01413
109016432934,0.883316,-0.0529195,1.01298
109016455513,0.877178,-0.0524029,1.01145
109016469846,0.877748,-0.0517896,1.01047
109016493012,0.883895,-0.0510415,1.01042
109016515493,0.890547,-0.0506154,1.01126
109016529801,0.893769,-0.0506154,1.01361
109016552942,0.894704,-0.0510318,1.01457
109016575586,0.892198,-0.051652,1.01336
109016589789,0.889129,-0.0513229,1.01215
109016613098,0.885699,-0.0506818,1.01132
109016636084,0.88623,-0.0507204,1.01298
109016656627,0.888592,-0.0508642,1.01598
109016679004,0.888343,-0.050721,1.01785
109016695434,0.884581,-0.0505842,1.01747
109016716380,0.879085,-0.0502998,1.01597
109016732948,0.87672,-0.0499378,1.01559
109016755508,0.877742,-0.0480746,1.0156
109016776713,0.877622,-0.0476827,1.01746
109016792925,0.877024,-0.0483573,1.01979
109016815546,0.875802,-0.0489661,1.02063
109016836532,0.873748,-0.0492583,1.01985
109016852926,0.871327,-0.049674,1.01847
109016875575,0.870034,-0.0498178,1.01731
109016896502,0.870795,-0.0496464,1.0168
109016913016,0.872917,-0.0494475,1.01677
109016935486,0.874775,-0.0495634,1.01638
109016956487,0.875359,-0.0499684,1.01587
109016973010,0.875582,-0.0504792,1.01537
109016995290,0.875018,-0.0510513,1.01498
109017016928,0.874774,-0.0512817,1.01513
109017033011,0.874828,-0.0513708,1.01556
109017057098,0.874053,-0.0511693,1.01641
109017077971,0.872667,-0.0508935,1.01714
109017092941,0.870701,-0.0504051,1.01752
109017115507,0.869318,-0.0500123,1.01799
109017137785,0.86843,-0.0495685,1.01845
109017153394,0.867715,-0.049106,1.01895
109017175496,0.866405,-0.0486154,1.01949
109017198012,0.866107,-0.0485606,1.02006
109017218996,0.866005,-0.0484827,1.02008
109017235425,0.866225,-0.0485697,1.01993
109017264657,0.866453,-0.0488356,1.01955
109017272439,0.866523,-0.0490509,1.01901
109017295509,0.867049,-0.0490597,1.01866
109017318012,0.867793,-0.0491884,1.01879
109017332332,0.867763,-0.0492111,1.01876
109017355488,0.867763,-0.0492111,1.01876
109017377989,0.868264,-0.0493393,1.01852
109017392357,0.869285,-0.0494125,1.01841
109017399860,0.869285,-0.0494125,1.01841
109017420903,0.869034,-0.0493485,1.01853
109017443376,0.86857,-0.0493762,1.01857
109017459812,0.868194,-0.0494355,1.01845
109017483835,0.868194,-0.0494355,1.01845
109017503388,0.868194,-0.0494355,1.01845
109017519840,0.868186,-0.049372,1.01894
109017540945,0.868186,-0.049372,1.01894
109017563375,0.867731,-0.0489221,1.01858
109017579909,0.867864,-0.0489773,1.01859
109017600886,0.867864,-0.0489773,1.01859
109017623420,0.867731,-0.0489221,1.01858
109017639810,0.868194,-0.0494355,1.01845
109017660878,0.868541,-0.0497097,1.01794
109017683541,0.868714,-0.0500022,1.01738
109017699907,0.868847,-0.0500573,1.0174
109017720918,0.86811,-0.0502226,1.0173
109017743555,0.867757,-0.0505071,1.0171
109017759869,0.867476,-0.0508918,1.01684
109017780851,0.867609,-0.050947,1.01686
109017804881,0.867421,-0.0510343,1.01693
109017819849,0.866988,-0.0514662,1.01741
109017840896,0.866611,-0.0517556,1.01781
109017863372,0.866148,-0.0517836,1.01785
109017879853,0.865467,-0.0518066,1.01767
109017900952,0.865467,-0.0518066,1.01767
109017923405,0.865467,-0.0518066,1.01767
109017939797,0.865467,-0.0518066,1.01767
109017963792,0.865114,-0.0515499,1.01755
109017983400,0.864683,-0.0517519,1.01751
109018001284,0.865135,-0.0514631,1.01807
109018020911,0.86436,-0.0521277,1.01835
109018043427,0.864587,-0.0532792,1.01867
109018061388,0.865644,-0.0540498,1.01904
109018080887,0.869082,-0.0536694,1.01892
109018103475,0.868366,-0.0536329,1.01908
109018121365,0.871909,-0.0557282,1.0199
109018140973,0.883747,-0.059671,1.01854
109018163473,0.890247,-0.0635912,1.01812
109018185886,0.894261,-0.0626136,1.01701
109018201073,0.89613,-0.0612138,1.01639
109018223442,0.899287,-0.0638368,1.01529
109018245930,0.901636,-0.0649363,1.01581
109018262452,0.901315,-0.0653971,1.01489
109018283476,0.899322,-0.0662628,1.01307
109018301339,0.899817,-0.0664645,1.01232
109018320925,0.904908,-0.0673482,1.01138
109018343380,0.910465,-0.0682618,1.0118
109018361355,0.909555,-0.0687471,1.01041
109018388425,0.909339,-0.0693464,1.00757
109018403448,0.90963,-0.0700744,1.0065
109018421400,0.911319,-0.0713669,1.00598
109018440946,0.913148,-0.0728375,1.00509
109018463441,0.911927,-0.07402,1.00393
109018481320,0.916666,-0.0759157,1.00304
109018500875,0.920787,-0.0765099,1.00388
109018523581,0.920302,-0.0763697,1.00352
109018542758,0.917504,-0.0771238,1.00203
109018560951,0.915381,-0.0785419,1.00086
109018583413,0.920434,-0.0789473,1.00058
109018602015,0.923124,-0.078312,1.00057
109018622395,0.922006,-0.0787107,1.00075
109018643397,0.917066,-0.0790423,1.00117
109018674160,0.91067,-0.080133,1.00043
109018682412,0.912862,-0.0813169,0.999743
109018703430,0.922289,-0.0807751,1.00124
109018721357,0.933599,-0.0787337,1.00318
109018742338,0.93343,-0.0780476,1.00947
109018763748,0.929385,-0.0797694,1.02014
109018781387,0.919263,-0.0805763,1.02982
109018803348,0.902036,-0.0801512,1.03552
109018823445,0.881988,-0.0787834,1.03679
109018841343,0.86265,-0.0762737,1.03521
109018862448,0.8567,-0.0728078,1.03352
109018883497,0.858525,-0.0692818,1.03425
109018901361,0.864584,-0.0661999,1.03748
109018922498,0.870612,-0.0645237,1.03917
109018944862,0.870794,-0.0628448,1.0373
109018961301,0.868079,-0.0624922,1.03418
109018984050,0.866504,-0.0630099,1.03202
109019003465,0.866775,-0.0629734,1.03114
109019021514,0.869865,-0.0632257,1.03223
109019043877,0.873272,-0.0638176,1.03417
109019063443,0.8753,-0.0643973,1.03486
109019081493,0.87313,-0.0644338,1.0337
109019103863,0.871246,-0.0647127,1.03235
109019123562,0.871555,-0.0645205,1.03188
109019141366,0.872373,-0.0639023,1.03189
109019163885,0.872978,-0.0638023,1.03223
109019183602,0.874024,-0.063682,1.03238
109019201355,0.875806,-0.0628763,1.03207
109019223904,0.876556,-0.0622374,1.03176
109019250939,0.875431,-0.061422,1.0317
109019261384,0.874426,-0.0604232,1.03238
109019284080,0.873891,-0.0599251,1.03357
109019303451,0.873293,-0.0598155,1.03473
109019321354,0.87154,-0.0596456,1.03486
109019343947,0.870525,-0.0597424,1.03474
109019363487,0.870454,-0.0598379,1.03468
109019381547,0.870918,-0.0599296,1.03489
109019403854,0.872245,-0.0601662,1.03511
109019423498,0.873039,-0.0602907,1.03477
109019441445,0.873457,-0.0602392,1.0338
109019463905,0.873513,-0.0602904,1.03285
109019483599,0.874661,-0.0605579,1.03238
109019501396,0.875684,-0.0607541,1.03253
109019523822,0.876345,-0.0609372,1.03245
109019545077,0.876448,-0.0610159,1.03243
109019561388,0.876305,-0.0610101,1.03242
109019584029,0.87585,-0.0608681,1.0322
109019604905,0.87585,-0.0608681,1.0322
109019621415,0.875464,-0.06055,1.03242
109019643983,0.875221,-0.0602376,1.03266
109019664879,0.874921,-0.0601834,1.03324
109019680609,0.874323,-0.0601516,1.03327
109019703078,0.873787,-0.0601554,1.03298
109019724154,0.873584,-0.0601948,1.03291
109019740647,0.873598,-0.0602415,1.03305
109019763076,0.873584,-0.0601948,1.03291
109019784297,0.873001,-0.0600938,1.03282
109019800555,0.872262,-0.0602533,1.03273
109019823931,0.871593,-0.0603171,1.0327
109019844216,0.871363,-0.0604762,1.03274
109019860576,0.87116,-0.0605157,1.03266
109019883065,0.871693,-0.0609368,1.0326
109019905548,0.872071,-0.0607646,1.03246
109019920561,0.872882,-0.0603938,1.03235
109019943111,0.87209,-0.0600388,1.03216
109019965616,0.87146,-0.0598331,1.03227
109019980616,0.871327,-0.059777,1.03226
109020003108,0.871327,-0.059777,1.03226
109020025786,0.87146,-0.0598331,1.03227
109020039940,0.871249,-0.0598101,1.03269
109020063066,0.871249,-0.0598101,1.03269
109020085630,0.871452,-0.0597705,1.03276
109020100025,0.870102,-0.0597365,1.03229
109020123128,0.86944,-0.0600943,1.03229
109020145583,0.8697,-0.0596023,1.03289
109020159941,0.870233,-0.0598287,1.0337
109020183092,0.869668,-0.059971,1.03365
109020205647,0.867971,-0.060086,1.03335
109020219936,0.867211,-0.0595935,1.03293
109020243200,0.867226,-0.0596398,1.03307
109020265628,0.867556,-0.0597896,1.03354
109020279930,0.868053,-0.0593169,1.03387
109020303147,0.866298,-0.0583457,1.03468
109020325552,0.863964,-0.0576664,1.03443
109020339973,0.860539,-0.0593462,1.03444
109020363126,0.861382,-0.0602975,1.03436
109020385561,0.865998,-0.0609931,1.0331
109020406700,0.870891,-0.0613701,1.03221
109020423164,0.875535,-0.0611921,1.03229
109020445665,0.876771,-0.0606776,1.03298
109020466664,0.878868,-0.0602053,1.03276
109020483187,0.88064,-0.0600399,1.02998
109020505633,0.883729,-0.0614626,1.02661
109020526732,0.889608,-0.0635625,1.02658
109020543183,0.893496,-0.0648601,1.02942
109020565589,0.89301,-0.0645341,1.02993
109020586713,0.890293,-0.0648711,1.02787
109020610615,0.888732,-0.0662709,1.0259
109020625574,0.889612,-0.0676783,1.02625
109020646667,0.891427,-0.0681807,1.02785
109020663187,0.892227,-0.0678777,1.02787
109020685586,0.895273,-0.0677784,1.0266
109020708187,0.899013,-0.0672303,1.0265
109020723142,0.899605,-0.067324,1.02722
109020746990,0.89717,-0.0678215,1.02672
109020766813,0.888308,-0.0687212,1.02452
109020783120,0.893784,-0.0703051,1.02288
109020805643,0.903641,-0.0701708,1.02435
109020826704,0.907957,-0.0696176,1.0247
109020842455,0.905197,-0.0703333,1.02275
109020865638,0.898181,-0.0708736,1.01957
109020888141,0.899416,-0.0719535,1.01796
109020903128,0.905523,-0.0724437,1.01838
109020925609,0.910762,-0.0724834,1.01867
109020948166,0.91116,-0.072796,1.01846
109020963160,0.906732,-0.0727444,1.01821
109020985662,0.901313,-0.073588,1.01717
109021008140,0.898261,-0.074403,1.01544
109021022458,0.902252,-0.0747729,1.01322
109021045676,0.912598,-0.0741026,1.01095
109021068194,0.919874,-0.0724706,1.01268
109021082534,0.925134,-0.0715004,1.01916
109021113168,0.92289,-0.0713452,1.02642
109021128188,0.908826,-0.0695271,1.02937
109021149209,0.887091,-0.0656718,1.02751
109021165701,0.871504,-0.0624518,1.02672
109021188138,0.866372,-0.058854,1.02824
109021209359,0.869638,-0.0560746,1.0329
109021227150,0.875508,-0.0541103,1.03974
109021248786,0.877193,-0.0531872,1.04449
109021269209,0.871602,-0.0522677,1.04385
109021285635,0.861698,-0.0515316,1.04055
109021308321,0.857161,-0.0519927,1.03895
109021329253,0.859273,-0.0506049,1.03929
109021345684,0.863009,-0.0491382,1.04037
109021368198,0.867028,-0.0494093,1.04216
109021389210,0.869175,-0.0502457,1.04199
109021405712,0.867259,-0.0509627,1.03964
109021428163,0.865338,-0.0520466,1.03744
109021449197,0.865983,-0.052854,1.03614
109021465673,0.867645,-0.0530746,1.03581
109021488201,0.869262,-0.0533045,1.03594
109021509254,0.870027,-0.0538614,1.03587
109021525671,0.870466,-0.0537261,1.03542
109021548154,0.870936,-0.0537652,1.03488
109021569340,0.871068,-0.0538212,1.03489
109021585704,0.870936,-0.0537652,1.03488
109021608285,0.870936,-0.0537652,1.03488
109021629455,0.871068,-0.0538212,1.03489
109021645672,0.870001,-0.0535189,1.03493
109021668200,0.869196,-0.0533479,1.03512
109021689245,0.869226,-0.053325,1.03515
109021705697,0.869226,-0.053325,1.03515
109021728215,0.869093,-0.0532689,1.03514
109021749242,0.869093,-0.0532689,1.03514
109021765699,0.869093,-0.0532689,1.03514
109021788175,0.869634,-0.0535585,1.03545
109021810726,0.869634,-0.0535585,1.03545
109021825697,0.869501,-0.0535025,1.03544
109021848212,0.869303,-0.0537203,1.03513
109021870694,0.869303,-0.0537203,1.03513
109021885664,0.869303,-0.0537203,1.03513
109021908201,0.869232,-0.0538159,1.03507
109021930652,0.869247,-0.0538621,1.03522
109021945012,0.870023,-0.0540561,1.035
109021968225,0.870023,-0.0540561,1.035
109021998218,0.870023,-0.0540561,1.035
109022004975,0.870544,-0.0547248,1.03482
109022028221,0.871444,-0.0551062,1.03425
109022050670,0.870262,-0.0555954,1.03374
109022065025,0.869417,-0.0561015,1.03331
109022088250,0.870333,-0.0568414,1.03303
109022110661,0.872202,-0.0572505,1.0333
109022125058,0.8735,-0.0575089,1.03348
109022148152,0.873633,-0.057565,1.03349
109022170676,0.873286,-0.0574827,1.03314
109022185044,0.872736,-0.0574402,1.03271
109022208276,0.872736,-0.0574402,1.03271
109022230751,0.872736,-0.0574402,1.03271
109022245094,0.873027,-0.0574328,1.03262
109022275689,0.871761,-0.057465,1.03262
109022290696,0.868952,-0.0583211,1.03266
109022311703,0.869931,-0.059133,1.03346
109022328193,0.872722,-0.0590038,1.03371
109022350701,0.872237,-0.0586877,1.03358
109022371743,0.871164,-0.0590426,1.0338
109022388218,0.871481,-0.0586034,1.03345
109022410687,0.872361,-0.0588752,1.03322
109022431820,0.874356,-0.0594721,1.03312
109022448194,0.876805,-0.0598061,1.0337
109022470701,0.879996,-0.0602167,1.0349
109022491763,0.880999,-0.0603077,1.03541
109022508184,0.881259,-0.0602431,1.03566
109022530891,0.879672,-0.06048,1.03549
109022551776,0.879672,-0.06048,1.03549
109022569056,0.8796,-0.0608085,1.03595
109022590749,0.88105,-0.0610561,1.03603
109022611759,0.88285,-0.0613436,1.03507
109022628223,0.884368,-0.0612733,1.03406
109022651180,0.888006,-0.0612568,1.03479
109022672347,0.887795,-0.0605005,1.0354
109022688258,0.885228,-0.0613585,1.03454
109022710736,0.882818,-0.0625913,1.03261
109022733350,0.884975,-0.063253,1.03204
109022748219,0.889816,-0.0634147,1.03297
109022770716,0.892223,-0.0638971,1.03364
109022793284,0.891147,-0.0650572,1.03253
109022808348,0.889477,-0.0661377,1.03006
109022831174,0.889893,-0.0671,1.0294
109022853306,0.893919,-0.0677583,1.03006
109022868276,0.897512,-0.0677631,1.03061
109022890732,0.896822,-0.0680891,1.02918
109022913348,0.895482,-0.0692524,1.02691
109022927549,0.899602,-0.0701776,1.02589
109022952201,0.906307,-0.0704287,1.02627
109022973337,0.910235,-0.0701055,1.02676
109022987509,0.90734,-0.0708655,1.02696
109023010742,0.903906,-0.0716319,1.02624
109023033346,0.902936,-0.0721386,1.02466
109023047628,0.90358,-0.0728809,1.02447
109023070723,0.905879,-0.0740167,1.02481
109023093463,0.907434,-0.0745286,1.02525
109023107562,0.904789,-0.0746298,1.02427
109023130729,0.904792,-0.0751868,1.02227
109023153323,0.907353,-0.0759187,1.02221
109023167589,0.910783,-0.0761765,1.0226
109023190708,0.910888,-0.0762548,1.02258
109023213401,0.909221,-0.075911,1.02204
109023227569,0.907275,-0.0760784,1.02023
109023258371,0.907718,-0.0764226,1.01955
109023273313,0.910255,-0.076488,1.0198
109023294347,0.913316,-0.0763117,1.01967
109023310872,0.915524,-0.0763424,1.01908
109023333292,0.915029,-0.0759053,1.01869
109023354375,0.913536,-0.0764517,1.01825
109023370752,0.912958,-0.0769629,1.01833
109023393271,0.913124,-0.077557,1.01841
109023414572,0.915788,-0.0776281,1.01853
109023430742,0.916116,-0.0775947,1.01847
109023459474,0.914559,-0.0774022,1.01818
109023474372,0.912102,-0.0771678,1.01851
109023490747,0.910716,-0.0771962,1.01941
109023513304,0.910402,-0.0772742,1.02025
109023534307,0.910588,-0.0765179,1.02128
109023550739,0.909662,-0.075466,1.0222
109023573361,0.909765,-0.0748759,1.02328
109023594325,0.908736,-0.0748585,1.02556
109023612363,0.904534,-0.0732251,1.02659
109023633287,0.903634,-0.0712047,1.02606
109023654334,0.9045,-0.0688665,1.0269
109023670822,0.902589,-0.0673601,1.02856
109023693305,0.898277,-0.0677302,1.03049
109023715759,0.896751,-0.0683409,1.03204
109023736846,0.894734,-0.0663504,1.03216
109023753289,0.893102,-0.0646501,1.03382
109023775811,0.891273,-0.0627502,1.03488
109023790728,0.889075,-0.0614328,1.03637
109023813343,0.887458,-0.0621504,1.03785
109023835765,0.885639,-0.062003,1.03779
109023850089,0.885473,-0.0618431,1.03672
109023873323,0.887973,-0.0616813,1.03694
109023895732,0.889213,-0.0607629,1.03734
109023910111,0.888335,-0.0604795,1.03821
109023939376,0.886782,-0.061229,1.03937
109023955738,0.885957,-0.0618441,1.03936
109023961200,0.884861,-0.0623374,1.03855
109023977676,0.884172,-0.0626575,1.03776
109023998661,0.883682,-0.0627626,1.03728
109024022646,0.884036,-0.0631413,1.03767
109024037664,0.884509,-0.063341,1.03879
109024058675,0.884155,-0.0630079,1.0398
109024081294,0.881756,-0.0625656,1.04053
109024097599,0.879382,-0.062543,1.04106
109024118708,0.877214,-0.0623643,1.0414
109024141232,0.875738,-0.0617464,1.04228
109024157569,0.876008,-0.0608334,1.04322
109024178802,0.876085,-0.0603141,1.04363
109024201135,0.875083,-0.0595022,1.04344
109024219056,0.873457,-0.0596902,1.04297
109024238805,0.872589,-0.0599671,1.04263
109024261203,0.873105,-0.0603442,1.04243
109024277714,0.874684,-0.0606525,1.04252
109024298739,0.875957,-0.0609203,1.04255
109024321136,0.87646,-0.0611342,1.04193
109024337688,0.87617,-0.0609079,1.0415
109024358674,0.87553,-0.0608297,1.04123
109024381224,0.87553,-0.0608297,1.04123
109024397666,0.87553,-0.0608297,1.04123
109024418659,0.87553,-0.0608297,1.04123
109024441186,0.875524,-0.0607683,1.04172
109024457674,0.875242,-0.0606435,1.04219
109024478690,0.874265,-0.0607795,1.04236
109024501256,0.873478,-0.0607143,1.0422
109024519122,0.873345,-0.0606578,1.04219
109024538685,0.873345,-0.0606578,1.04219
109024561148,0.873345,-0.0606578,1.04219
109024577643,0.87403,-0.0606437,1.04237
109024598878,0.87403,-0.0606437,1.04237
109024621175,0.87403,-0.0606437,1.04237
109024639142,0.873958,-0.0607389,1.0423
109024658715,0.87403,-0.0606437,1.04237
109024681220,0.873958,-0.0607389,1.0423
109024699240,0.874542,-0.060727,1.04213
109024718680,0.874542,-0.060727,1.04213
109024741263,0.874613,-0.0606318,1.04219
109024759148,0.874204,-0.0606278,1.04241
109024778681,0.874132,-0.060723,1.04235
109024801333,0.874132,-0.060723,1.04235
109024819081,0.874132,-0.060723,1.04235
109024838734,0.873968,-0.0604919,1.04242
109024861209,0.873365,-0.0602795,1.04268
109024879120,0.873365,-0.0602795,1.04268
109024898677,0.87335,-0.0602331,1.04253
109024921169,0.872921,-0.0606072,1.04227
109024939139,0.87291,-0.0610859,1.04268
109024958734,0.872588,-0.0612303,1.043
109024981195,0.871616,-0.0616593,1.04321
109024999883,0.87219,-0.0626135,1.0426
109025018714,0.874286,-0.063183,1.04222
109025048887,0.876497,-0.0637004,1.0422
109025059167,0.878487,-0.0634114,1.04264
109025078691,0.878157,-0.0631822,1.04331
109025101233,0.877826,-0.0633413,1.04299
109025119093,0.876571,-0.0634135,1.04313
109025138772,0.876884,-0.0639453,1.04311
109025161221,0.878981,-0.0642636,1.0441
109025179119,0.880122,-0.0636782,1.04481
109025206296,0.880271,-0.0639793,1.04486
109025221173,0.881144,-0.0639542,1.04383
109025239116,0.880223,-0.0637143,1.04339
109025260206,0.882373,-0.0645051,1.04308
109025281164,0.885229,-0.0641909,1.04376
109025299194,0.884812,-0.0640112,1.04421
109025326190,0.883849,-0.0637251,1.04348
109025342802,0.884728,-0.063275,1.0428
109025359214,0.886493,-0.0631467,1.04329
109025380174,0.889239,-0.062875,1.04551
109025401207,0.889498,-0.061922,1.04632
109025419212,0.887999,-0.0618161,1.04316
109025440154,0.886946,-0.0631478,1.03931
109025461239,0.891496,-0.0642574,1.03927
109025486614,0.900414,-0.0645691,1.04037
109025506210,0.906314,-0.0632207,1.03947
109025521313,0.903987,-0.0624342,1.03658
109025539194,0.902036,-0.064096,1.03373
109025561793,0.905874,-0.0666034,1.03319
109025581231,0.907404,-0.0671403,1.03425
109025605217,0.906571,-0.068181,1.03323
109025622352,0.908293,-0.0685547,1.03143
109025641227,0.911801,-0.069649,1.0302
109025659230,0.915466,-0.0706858,1.03203
109025681658,0.913728,-0.0695854,1.03339
109025701302,0.909692,-0.0698724,1.03178
109025719177,0.907985,-0.0707563,1.02937
109025741673,0.911728,-0.0719257,1.02925
109025762652,0.917263,-0.0724217,1.03101
109025779254,0.917384,-0.0717686,1.03071
109025806259,0.912998,-0.0725071,1.02866
109025821293,0.911743,-0.0740434,1.02699
109025839204,0.917485,-0.0760162,1.02713
109025861804,0.921141,-0.076442,1.02814
109025881520,0.921387,-0.0763326,1.02762
109025899159,0.917738,-0.0762033,1.026
109025921685,0.914216,-0.076992,1.0243
109025941234,0.91708,-0.0788696,1.02346
109025959187,0.922074,-0.0786927,1.02475
109025982269,0.924104,-0.0784496,1.026
109026001320,0.922033,-0.0779809,1.02556
109026019143,0.919235,-0.0781399,1.02417
109026041699,0.921062,-0.0784731,1.02398
109026061208,0.923619,-0.0781811,1.02537
109026079385,0.922933,-0.077707,1.02606
109026101628,0.918835,-0.0783848,1.02633
109026130223,0.918483,-0.0784181,1.0256
109026139178,0.918756,-0.0789672,1.02667
109026161713,0.917379,-0.0785022,1.02844
109026181403,0.915441,-0.0785734,1.02906
109026199196,0.912807,-0.0775667,1.02764
109026221820,0.911448,-0.0786145,1.02507
109026241963,0.913743,-0.0797069,1.02463
109026258348,0.91614,-0.0798995,1.02385
109026280904,0.918541,-0.0815577,1.02316
109026301885,0.920233,-0.0815889,1.0237
109026318402,0.921804,-0.0825201,1.02507
109026341418,0.921104,-0.0818731,1.02599
109026361927,0.916906,-0.0814461,1.02598
109026378420,0.912794,-0.0817844,1.02546
109026401304,0.911984,-0.0809833,1.02613
109026421963,0.912289,-0.0804736,1.02819
109026438852,0.912941,-0.0795179,1.03006
109026460864,0.909333,-0.0785902,1.03136
109026481956,0.902941,-0.0771976,1.03239
109026498369,0.899455,-0.0753649,1.03335
109026520824,0.90076,-0.0740441,1.03507
109026543448,0.901726,-0.0720913,1.03717
109026558364,0.900295,-0.0703695,1.03967
109026580917,0.895724,-0.0687721,1.04119
109026603404,0.889872,-0.0678718,1.04161
109026618333,0.885595,-0.0677133,1.04239
109026642364,0.884545,-0.067451,1.04398
109026664060,0.885236,-0.0670629,1.04591
109026677755,0.883869,-0.0659264,1.04609
109026700903,0.883855,-0.0653301,1.04527
109026723363,0.884028,-0.065386,1.04418
109026738415,0.883949,-0.0654929,1.04347
109026760892,0.885653,-0.0659297,1.04369
109026783388,0.888337,-0.0663015,1.04527
109026797868,0.890103,-0.0665305,1.04655
109026820884,0.889054,-0.0669357,1.04642
109026843428,0.889045,-0.0669461,1.04578
109026864421,0.889595,-0.0665844,1.04592
109026881510,0.890148,-0.0662733,1.04746
109026903392,0.890418,-0.0656043,1.04894
109026917688,0.888505,-0.0647586,1.05012
109026941096,0.885924,-0.0646246,1.05019
109026963447,0.882623,-0.0648305,1.04944
109026977708,0.881238,-0.0650182,1.04933
109027000923,0.881711,-0.0646921,1.0499
109027023382,0.883155,-0.0638004,1.05114
109027044552,0.882841,-0.0629596,1.05303
109027060882,0.879641,-0.0627908,1.055
109027084443,0.875736,-0.0628864,1.05605
109027104482,0.872613,-0.0626349,1.05619
109027120902,0.870267,-0.0625854,1.05612
109027143419,0.868911,-0.0625888,1.05641
109027164482,0.869646,-0.0621145,1.0576
109027180862,0.870846,-0.0616438,1.05888
109027203467,0.871701,-0.0616124,1.06037
109027224425,0.871468,-0.0617056,1.0609
109027240848,0.86985,-0.0611089,1.05998
109027263540,0.868118,-0.0607955,1.05923
109027284472,0.868205,-0.0605163,1.05891
109027301064,0.869295,-0.0603373,1.0591
109027323427,0.870676,-0.0603241,1.06022
109027344542,0.871476,-0.0603804,1.06103
109027360960,0.870676,-0.0605551,1.06075
109027383460,0.869149,-0.0606951,1.06
109027404520,0.869164,-0.0607412,1.06015
109027420912,0.869541,-0.0605116,1.0605
109027443463,0.869407,-0.0602763,1.06072
109027464628,0.86913,-0.0601474,1.06119
109027480911,0.86913,-0.0601474,1.06119
109027503477,0.868896,-0.0600094,1.0612
109027525907,0.868342,-0.0598973,1.06126
109027540889,0.868342,-0.0598973,1.06126
109027563444,0.868342,-0.0598973,1.06126
109027585925,0.868415,-0.0598025,1.06133
109027600944,0.86792,-0.0598427,1.06134
109027623471,0.86744,-0.0599288,1.0615
109027645934,0.867396,-0.0599376,1.06197
109027660350,0.867525,-0.059639,1.06244
109027683423,0.867525,-0.059639,1.06244
109027706010,0.866973,-0.0597046,1.06228
109027720314,0.867104,-0.0597621,1.06229
109027743917,0.867104,-0.0597621,1.06229
109027765930,0.867147,-0.0596904,1.06232
109027780316,0.867075,-0.0597853,1.06226
109027809568,0.867104,-0.0597621,1.06229
109027825900,0.867104,-0.0597621,1.06229
109027840362,0.866973,-0.0597046,1.06228
109027863502,0.867104,-0.0597621,1.06229
109027885941,0.867075,-0.0597853,1.06226
109027901013,0.866595,-0.0598712,1.06242
109027923456,0.866595,-0.0598712,1.06242
109027945961,0.866595,-0.0598712,1.06242
109027960383,0.866522,-0.0599661,1.06236
109027983419,0.866522,-0.0599661,1.06236
109028006010,0.866522,-0.0599661,1.06236
109028027001,0.866522,-0.0599661,1.06236
109028043416,0.866522,-0.0599661,1.06236
109028065987,0.866522,-0.0599661,1.06236
109028086985,0.866522,-0.0599661,1.06236
109028103864,0.866522,-0.0599661,1.06236
109028126027,0.866522,-0.0599661,1.06236
109028146989,0.867206,-0.0599579,1.06254
109028163492,0.867206,-0.0599579,1.06254
109028185974,0.866537,-0.060012,1.06251
109028207005,0.866537,-0.060012,1.06251
109028223474,0.866465,-0.0601069,1.06244
109028245977,0.867628,-0.0600128,1.06246
109028267187,0.867265,-0.0601103,1.06248
109028283483,0.866031,-0.0604775,1.06217
109028305979,0.864984,-0.0604686,1.06176
109028327060,0.864187,-0.0609372,1.06152
109028343425,0.864407,-0.0614374,1.06166
109028365985,0.865018,-0.0616386,1.06204
109028387062,0.865105,-0.0616733,1.06188
109028403848,0.864481,-0.0620638,1.06218
109028426009,0.863591,-0.0616685,1.06277
109028448412,0.862591,-0.0617972,1.0628
109028463505,0.860517,-0.0621195,1.06215
109028485958,0.861231,-0.0623509,1.06175
109028508439,0.864931,-0.0615728,1.06157
109028523569,0.864319,-0.0609947,1.06153
109028545918,0.863583,-0.0624519,1.06196
109028568469,0.865932,-0.0635977,1.06076
109028582828,0.867618,-0.0645656,1.05899
109028605910,0.872027,-0.065699,1.05844
109028628472,0.87453,-0.0653151,1.05875
109028642848,0.875366,-0.065786,1.05875
109028665939,0.876023,-0.0669541,1.05774
109028688519,0.875236,-0.0673129,1.05597
109028702786,0.876326,-0.067269,1.05452
109028726105,0.882861,-0.0675756,1.05487
109028748481,0.887318,-0.0681476,1.05506
109028762774,0.88704,-0.068642,1.05381
109028786017,0.886079,-0.0691245,1.05226
109028808483,0.885931,-0.0696186,1.05152
109028822839,0.89099,-0.0704006,1.05271
109028845940,0.893608,-0.0714272,1.05224
109028868529,0.891267,-0.072279,1.05112
109028882896,0.887943,-0.073689,1.04983
109028905995,0.889192,-0.074593,1.04861
109028934734,0.892421,-0.0743743,1.04838
109028957029,0.895377,-0.0742873,1.04802
109028965974,0.894457,-0.0737175,1.04807
109028988534,0.890041,-0.0735065,1.04631
109029009503,0.892218,-0.0737652,1.04418
109029026027,0.896973,-0.0743662,1.04364
109029048483,0.90208,-0.075317,1.04412
109029071071,0.901514,-0.0753296,1.04444
109029085944,0.897642,-0.0757098,1.04302
109029108487,0.893908,-0.0764773,1.04113
109029129615,0.896412,-0.0781549,1.03969
109029146025,0.906254,-0.0797754,1.04034
109029168486,0.912713,-0.0795844,1.0436
109029189644,0.910009,-0.0790319,1.0443
109029212763,0.903023,-0.0793237,1.04295
109029228443,0.898201,-0.0786146,1.04228
109029249620,0.903176,-0.0793198,1.04425
109029266008,0.907031,-0.0776088,1.04759
109029288519,0.904052,-0.0762711,1.04858
109029309518,0.898067,-0.0755777,1.04776
109029326055,0.89593,-0.0749431,1.04723
109029348556,0.899086,-0.0749997,1.04797
109029369511,0.900476,-0.0736016,1.04912
109029386044,0.897759,-0.0728644,1.0499
109029408486,0.893473,-0.0720974,1.04937
109029431295,0.892202,-0.0709077,1.04851
109029445405,0.894678,-0.0710871,1.04808
109029468484,0.897668,-0.0707943,1.04863
109029491688,0.898709,-0.0708749,1.04917
109029506019,0.898686,-0.072222,1.049
109029528534,0.89675,-0.0726416,1.04913
109029551016,0.898961,-0.0714957,1.04972
109029566800,0.90121,-0.0700281,1.05097
109029588516,0.898232,-0.068439,1.05382
109029611017,0.892076,-0.0676291,1.05584
109029625325,0.886016,-0.0661848,1.05612
109029648565,0.882304,-0.0640764,1.05665
109029671005,0.880223,-0.0619218,1.05728
109029685366,0.879186,-0.0610371,1.05995
109029709263,0.879791,-0.0607052,1.06356
109029731110,0.879511,-0.0596135,1.06557
109029745542,0.876907,-0.0581727,1.0651
109029768525,0.873826,-0.0570573,1.06406
109029791060,0.872235,-0.0561945,1.06389
109029805399,0.87416,-0.0553524,1.0646
109029828524,0.876442,-0.0557903,1.06717
109029851003,0.876664,-0.0554463,1.06787
109029872025,0.873858,-0.0556496,1.0666
109029896051,0.870793,-0.0559811,1.06457
109029911067,0.870414,-0.0554245,1.06426
109029932087,0.871859,-0.0546058,1.06563
109029948621,0.873794,-0.0539292,1.06863
109029971037,0.874054,-0.0536931,1.071
109029992088,0.871083,-0.0531135,1.071
109030008520,0.86693,-0.051396,1.06931
109030031011,0.865505,-0.0499271,1.06836
109030052145,0.866963,-0.0487568,1.06831
109030068507,0.868923,-0.047308,1.06898
109030091109,0.87026,-0.0472652,1.07044
109030113514,0.870776,-0.0480496,1.07179
109030128540,0.869665,-0.0484681,1.07148
109030151040,0.867152,-0.0487849,1.07039
109030172110,0.867037,-0.0487727,1.07052
109030188534,0.867666,-0.048322,1.07072
109030211030,0.86824,-0.0482417,1.07154
109030232101,0.868711,-0.0482804,1.07227
109030248617,0.868696,-0.0482348,1.07212
109030271011,0.868142,-0.0479825,1.07179
109030292111,0.868243,-0.0476566,1.07148
109030308486,0.868272,-0.0476326,1.07151
109030331058,0.868277,-0.0475702,1.07201
109030353550,0.868602,-0.047483,1.07245
109030368572,0.868602,-0.047483,1.07245
109030390988,0.868602,-0.047483,1.07245
109030413616,0.869065,-0.047354,1.07215
109030427869,0.869065,-0.047354,1.07215
109030451018,0.869065,-0.047354,1.07215
109030473603,0.869065,-0.047354,1.07215
109030487857,0.869065,-0.047354,1.07215
109030495377,0.869065,-0.047354,1.07215
109030516465,0.869065,-0.047354,1.07215
109030538917,0.869065,-0.047354,1.07215
109030555524,0.869007,-0.0474942,1.07223
109030576436,0.869007,-0.0474942,1.07223
109030598935,0.868876,-0.0474366,1.07222
109030615429,0.868876,-0.0474366,1.07222
109030636413,0.868876,-0.0474366,1.07222
109030659153,0.869007,-0.0474942,1.07223
109030675402,0.869007,-0.0474942,1.07223
109030696453,0.868466,-0.0474876,1.07194
109030718993,0.867953,-0.0476576,1.07157
109030735403,0.868388,-0.0476447,1.07137
109030756448,0.869214,-0.0477123,1.07108
109030778960,0.869214,-0.0477123,1.07108
109030795361,0.869214,-0.0477123,1.07108
109030816514,0.869214,-0.0477123,1.07108
109030838957,0.869345,-0.04777,1.07109
109030855373,0.869345,-0.04777,1.07109
109030876531,0.869345,-0.04777,1.07109
109030898962,0.869563,-0.0479787,1.0712
109030915576,0.870697,-0.0484986,1.07126
109030936468,0.870009,-0.0487966,1.07111
109030960496,0.868534,-0.0489037,1.07052
109030975463,0.868108,-0.0492024,1.07013
109030996416,0.868588,-0.0491184,1.06997
109031019161,0.869341,-0.0496879,1.0699
109031035397,0.87069,-0.0504777,1.06957
109031056502,0.870734,-0.0504069,1.06961
109031079023,0.870107,-0.0506804,1.06964
109031095367,0.869608,-0.0510736,1.06918
109031124073,0.870342,-0.051721,1.06797
109031138966,0.871635,-0.0512255,1.06694
109031155431,0.870847,-0.0504277,1.06633
109031176600,0.871005,-0.0515617,1.06647
109031198931,0.876384,-0.0538357,1.06679
109031215460,0.877897,-0.0548598,1.06513
109031236467,0.878113,-0.0552487,1.06375
109031258956,0.880028,-0.0555,1.06379
109031277059,0.883039,-0.0554021,1.06301
109031296447,0.884736,-0.0559125,1.06148
109031319001,0.88711,-0.0562724,1.05985
109031336974,0.889162,-0.0562849,1.05988
109031356458,0.890478,-0.0549803,1.05957
109031378985,0.89018,-0.0536703,1.05915
109031396943,0.889032,-0.0531534,1.05783
109031416450,0.8901,-0.0525622,1.05633
109031439026,0.891121,-0.0512837,1.05624
109031456870,0.891587,-0.0504199,1.05549
109031476530,0.892229,-0.0499481,1.05383
109031499017,0.892403,-0.0496933,1.0521
109031516881,0.89524,-0.0501893,1.05197
109031536750,0.897665,-0.0499211,1.05223
109031558969,0.89764,-0.0506413,1.05126
109031577003,0.896587,-0.0511471,1.04887
109031596702,0.895575,-0.0524968,1.04608
109031618937,0.900042,-0.0545562,1.0453
109031637005,0.907238,-0.0560263,1.0458
109031656485,0.908816,-0.0570275,1.04556
109031679030,0.909578,-0.0589707,1.04357
109031697105,0.910583,-0.0601397,1.042
109031716483,0.913448,-0.0625076,1.04175
109031739122,0.917485,-0.0642474,1.04401
109031756945,0.916212,-0.0648808,1.0448
109031776455,0.914422,-0.0661259,1.04361
109031799079,0.912722,-0.0671117,1.04223
109031816923,0.916527,-0.0682815,1.04295
109031836618,0.917375,-0.0675694,1.04412
109031859010,0.912617,-0.0678335,1.04344
109031876899,0.910439,-0.0689663,1.04172
109031897973,0.914257,-0.0699409,1.04206
109031918965,0.918349,-0.0699035,1.0431
109031936919,0.915969,-0.0700361,1.04276
109031957947,0.911801,-0.070415,1.04154
109031986539,0.912009,-0.0709921,1.04115
109031997090,0.914992,-0.0714295,1.04137
109032017922,0.917051,-0.0714977,1.04153
109032039170,0.916553,-0.0718361,1.04156
109032056932,0.913568,-0.0718154,1.04099
109032086685,0.912904,-0.0720996,1.04022
109032099168,0.91578,-0.071799,1.03964
109032116922,0.919745,-0.0715788,1.04106
109032137937,0.918823,-0.0701773,1.04245
109032159064,0.914432,-0.0701685,1.04263
109032176872,0.907141,-0.0687948,1.04272
109032197911,0.908484,-0.0678918,1.04286
109032220426,0.911097,-0.0678376,1.04433
109032237548,0.908621,-0.0669445,1.04635
109032259539,0.906825,-0.0660473,1.04727
109032279007,0.903568,-0.0654831,1.04752
109032297061,0.900787,-0.0647791,1.04746
109032319429,0.902907,-0.0636076,1.0476
109032339026,0.903965,-0.0619413,1.04928
109032356932,0.901151,-0.0609546,1.0522
109032379382,0.89612,-0.0608064,1.05449
109032399145,0.888297,-0.0590598,1.05334
109032416932,0.885477,-0.057354,1.05138
109032439484,0.887838,-0.0572225,1.05044
109032459050,0.893401,-0.0577237,1.05113
109032476951,0.89863,-0.0578466,1.05334
109032499642,0.899774,-0.0577817,1.05461
109032519062,0.896071,-0.0565663,1.05471
109032542290,0.890261,-0.0551316,1.05407
109032559590,0.885801,-0.0545029,1.05435
109032579088,0.884247,-0.0543953,1.05606
109032597124,0.884775,-0.0547635,1.05901
109032619612,0.884044,-0.0547248,1.06105
109032638989,0.881541,-0.0542483,1.06065
109032657034,0.880822,-0.0539067,1.05952
109032679447,0.882528,-0.0525061,1.05807
109032699111,0.88415,-0.0514436,1.05896
109032717026,0.88376,-0.0514239,1.06109
109032739528,0.88211,-0.0514872,1.06221
109032759122,0.878673,-0.0513022,1.06127
109032776154,0.875691,-0.0517651,1.05922
109032798674,0.87356,-0.0518104,1.05772
109032821149,0.876285,-0.051462,1.05714
109032836171,0.881766,-0.051882,1.05863
109032858661,0.885898,-0.0522327,1.06079
109032879690,0.884642,-0.0530195,1.06136
109032897091,0.880368,-0.0533248,1.06014
109032918700,0.876861,-0.0532999,1.05865
109032939699,0.875825,-0.0533978,1.05787
109032956206,0.87632,-0.0531798,1.0581
109032978685,0.877618,-0.0524942,1.05857
109032999634,0.87886,-0.0525362,1.05919
109033022260,0.878466,-0.052718,1.05869
109033038699,0.87702,-0.0531838,1.05779
109033059880,0.876586,-0.0540234,1.05731
109033076234,0.877126,-0.0539108,1.05733
109033099119,0.877883,-0.0534536,1.05805
109033119914,0.877737,-0.0534062,1.05865
109033136175,0.877081,-0.0535076,1.05876
109033158608,0.876452,-0.05306,1.05834
109033181146,0.87718,-0.0527475,1.05803
109033196138,0.876944,-0.0518248,1.05809
109033218697,0.876638,-0.0517214,1.05852
109033241151,0.876421,-0.0522381,1.05886
109033256127,0.875983,-0.0526077,1.05859
109033278771,0.875795,-0.0530454,1.05819
109033301292,0.876248,-0.0532746,1.05803
109033315538,0.876962,-0.0531482,1.0581
109033346141,0.877094,-0.0532052,1.05812
109033361260,0.877094,-0.0532052,1.05812
109033375559,0.877094,-0.0532052,1.05812
109033398685,0.877094,-0.0532052,1.05812
109033421163,0.877094,-0.0532052,1.05812
109033435481,0.877299,-0.053107,1.05869
109033458686,0.877663,-0.0528323,1.0589
109033481203,0.877065,-0.0529087,1.05919
109033495501,0.877065,-0.0529087,1.05919
109033518719,0.877065,-0.0529087,1.05919
109033541192,0.877197,-0.0529658,1.0592
109033555485,0.876745,-0.0532285,1.05928
109033578821,0.876235,-0.0536928,1.05894
109033601165,0.876076,-0.054306,1.05846
109033615483,0.876634,-0.0550856,1.05809
109033638675,0.876973,-0.0557737,1.05786
109033661207,0.877107,-0.0564996,1.05756
109033682289,0.87701,-0.0573807,1.0573
109033698662,0.876912,-0.057969,1.057
109033721183,0.876945,-0.0586142,1.05672
109033742247,0.87696,-0.0586607,1.05687
109033758702,0.876931,-0.0586841,1.05684
109033781234,0.876931,-0.0586841,1.05684
109033809751,0.876916,-0.0586376,1.05669
109033826212,0.876434,-0.0587254,1.05685
109033841244,0.875589,-0.0587954,1.05677
109033862187,0.875414,-0.0588098,1.05672
109033878849,0.878286,-0.0584426,1.05729
109033901167,0.878722,-0.0581893,1.05782
109033929912,0.876487,-0.0582033,1.05837
109033938687,0.875218,-0.0586498,1.05878
109033961196,0.87725,-0.0595488,1.05951
109033982318,0.881166,-0.0594685,1.05925
109033998726,0.8821,-0.0591759,1.05978
109034021248,0.880709,-0.0591774,1.06117
109034042357,0.87915,-0.0606218,1.06203
109034058697,0.88267,-0.062578,1.06168
109034088746,0.88474,-0.0632478,1.06078
109034102294,0.885514,-0.0635684,1.06209
109034119479,0.888074,-0.0632992,1.06349
109034141223,0.887181,-0.0634363,1.06337
109034163715,0.881826,-0.0635476,1.06182
109034178720,0.880082,-0.0646119,1.06043
109034201028,0.885998,-0.0649803,1.0603
109034223754,0.892134,-0.0636384,1.06087
109034238066,0.892277,-0.0630386,1.0607
109034261204,0.888295,-0.0641578,1.05999
109034283763,0.88736,-0.0657132,1.05856
109034298130,0.892337,-0.0657714,1.05835
109034321178,0.89752,-0.0655073,1.05945
109034343799,0.896656,-0.0647975,1.06068
109034358047,0.890563,-0.0646213,1.05875
109034381203,0.886937,-0.0660206,1.05626
109034403686,0.892584,-0.0669301,1.05565
109034424784,0.902031,-0.0664371,1.05745
109034441242,0.905041,-0.0660491,1.05967
109034463711,0.898926,-0.0651475,1.06045
109034484966,0.889628,-0.0644777,1.0578
109034502623,0.889817,-0.066098,1.05535
109034523688,0.899612,-0.0661598,1.05729
109034544895,0.90522,-0.0659696,1.05896
109034561314,0.901987,-0.0659259,1.05927
109034583870,0.895871,-0.0655575,1.05679
109034604729,0.895233,-0.0665504,1.05459
109034622526,0.901377,-0.0673749,1.0551
109034643759,0.906947,-0.0681024,1.05744
109034664773,0.905828,-0.0673858,1.05829
109034681375,0.900426,-0.0679773,1.05712
109034703872,0.898599,-0.0683413,1.0557
109034724753,0.901967,-0.069167,1.05584
109034741344,0.907063,-0.0693813,1.05765
109034763730,0.906045,-0.0689855,1.05902
109034784756,0.901248,-0.0697338,1.05809
109034801203,0.898823,-0.0713184,1.0577
109034823742,0.904866,-0.07317,1.05882
109034844895,0.907924,-0.0729431,1.06033
109034861255,0.90623,-0.0740961,1.06128
109034883714,0.902023,-0.0750704,1.06072
109034904806,0.900448,-0.0761722,1.06013
109034921349,0.90529,-0.0769747,1.06096
109034943880,0.9074,-0.0762504,1.06199
109034964798,0.905907,-0.0765388,1.06243
109034981289,0.902097,-0.0759465,1.06176
109035011398,0.898212,-0.0747854,1.06134
109035024783,0.899024,-0.0732272,1.06099
109035041744,0.900018,-0.071594,1.06185
109035063800,0.898458,-0.0708897,1.06289
109035086459,0.894815,-0.071626,1.06275
109035100577,0.891603,-0.0704832,1.06248
109035123755,0.890814,-0.069084,1.06245
109035147716,0.893658,-0.0661622,1.06262
109035161286,0.893482,-0.0643275,1.06342
109035183738,0.893358,-0.0637187,1.0659
109035212434,0.892181,-0.0637535,1.06637
109035220565,0.888129,-0.0624905,1.06372
109035243791,0.885638,-0.0613514,1.06061
109035266344,0.887967,-0.0607623,1.05973
109035280552,0.893065,-0.0590795,1.06038
109035303866,0.892224,-0.0585565,1.06214
109035326298,0.890525,-0.0597758,1.06447
109035341025,0.888691,-0.0599103,1.06505
109035363758,0.884366,-0.0592559,1.06458
109035386295,0.88009,-0.0576315,1.06394
109035400603,0.876247,-0.0560603,1.06448
109035423744,0.874659,-0.0554227,1.06611
109035446318,0.874884,-0.0550721,1.06807
109035460584,0.874975,-0.0552784,1.06894
109035483739,0.874188,-0.0544175,1.06882
109035506328,0.872336,-0.0539057,1.06843
109035520683,0.870646,-0.0538591,1.0685
109035543723,0.86861,-0.053484,1.06894
109035566480,0.867741,-0.0534258,1.06971
109035587055,0.868033,-0.0532467,1.06985
109035603839,0.868892,-0.0531124,1.06982
109035626317,0.870406,-0.0528806,1.06967
109035647332,0.87048,-0.0527859,1.06973
109035663794,0.870595,-0.0527978,1.0696
109035686281,0.870464,-0.0527401,1.06958
109035707457,0.87048,-0.0527859,1.06973
109035723846,0.87096,-0.0527017,1.06957
109035746276,0.87096,-0.0527017,1.06957
109035767573,0.87096,-0.0527017,1.06957
109035783778,0.87096,-0.0527017,1.06957
109035806475,0.870962,-0.0529326,1.0701
109035827401,0.870848,-0.0524508,1.07044
109035843734,0.869525,-0.0524219,1.07075
109035873785,0.868375,-0.0525569,1.07088
109035887318,0.86784,-0.0526033,1.07136
109035903812,0.867857,-0.0524714,1.07174
109035926318,0.867671,-0.0524912,1.07231
109035947378,0.867598,-0.0525859,1.07225
109035963810,0.867554,-0.0522491,1.07191
109035986301,0.867627,-0.0521544,1.07198
109036008855,0.867554,-0.0522491,1.07191
109036023812,0.867684,-0.0523068,1.07193
109036046278,0.867684,-0.0523068,1.07193
109036068877,0.867684,-0.0523068,1.07193
109036083894,0.867434,-0.0525923,1.07158
109036106348,0.866864,-0.0529027,1.0713
109036128882,0.866834,-0.0529263,1.07127
109036152858,0.866965,-0.0529841,1.07128
109036166313,0.866965,-0.0529841,1.07128
109036188797,0.86666,-0.0530545,1.07149
109036203090,0.866197,-0.0528908,1.07176
109036232504,0.865703,-0.0529287,1.07178
109036248780,0.865181,-0.0527904,1.07187
109036263146,0.864761,-0.0528482,1.07221
109036286338,0.864761,-0.0528482,1.07221
109036308788,0.864312,-0.0529295,1.07253
109036323163,0.864402,-0.0529949,1.07301
109036346301,0.864099,-0.0527721,1.07318
109036368874,0.863201,-0.0525051,1.07339
109036389880,0.861952,-0.0524427,1.07327
109036406349,0.861035,-0.0526014,1.07313
109036428796,0.860831,-0.0526382,1.07305
109036443173,0.860831,-0.0526382,1.07305
109036466691,0.861822,-0.0524991,1.07352
109036488786,0.861953,-0.052557,1.07353
109036509831,0.861415,-0.0522586,1.07322
109036533820,0.861311,-0.0522413,1.07273
109036548803,0.861311,-0.0522413,1.07273
109036569890,0.862255,-0.052373,1.07306
109036586357,0.862314,-0.0522329,1.07298
109036608862,0.861991,-0.0527283,1.07284
109036629919,0.861421,-0.0533319,1.07259
109036646321,0.862637,-0.0538884,1.07248
109036669091,0.86352,-0.0541096,1.07212
109036689916,0.861965,-0.0551318,1.0727
109036706295,0.860977,-0.0554997,1.07276
109036728901,0.86222,-0.0558682,1.07165
109036749828,0.862416,-0.0562229,1.07011
109036765656,0.863137,-0.0572367,1.06905
109036788835,0.864502,-0.0586797,1.06906
109036811298,0.86993,-0.0599091,1.07032
109036826314,0.873036,-0.0590908,1.07068
109036848845,0.870527,-0.0590516,1.07006
109036870072,0.866275,-0.0593481,1.06888
109036886365,0.864835,-0.0604615,1.06756
109036909276,0.868602,-0.0608099,1.06706
109036929966,0.874635,-0.0608916,1.06677
109036946768,0.878359,-0.0608263,1.06695
109036970420,0.879368,-0.0611137,1.06596
109036991379,0.879315,-0.0629446,1.06495
109037006707,0.881999,-0.0639425,1.06342
109037028897,0.885279,-0.0636648,1.06262
109037058053,0.890283,-0.0640834,1.06209
109037059675,0.894198,-0.0650858,1.06167
109037079368,0.895482,-0.0659768,1.06189
109037094278,0.895814,-0.0667905,1.06128
109037116744,0.895876,-0.0676093,1.05901
109037131843,0.899278,-0.0681689,1.05738
109037154335,0.904077,-0.0680761,1.05609
109037176650,0.909498,-0.068844,1.05535
109037191696,0.912337,-0.0694206,1.05469
109037214171,0.91135,-0.0696048,1.05435
109037236714,0.911797,-0.0703726,1.05346
109037251800,0.911727,-0.0717239,1.05184
109037274174,0.914622,-0.0743789,1.05099
109037296761,0.917575,-0.0753236,1.04969
109037311739,0.918643,-0.0760549,1.04737
109037334208,0.920754,-0.0776514,1.04539
109037356760,0.927382,-0.0792885,1.04436
109037371768,0.933139,-0.0801916,1.04456
109037394384,0.933157,-0.0815132,1.0444
109037416681,0.930259,-0.0815323,1.04304
109037431703,0.929452,-0.0819964,1.04213
109037454377,0.930395,-0.0824441,1.04246
109037476691,0.931174,-0.0830791,1.04315
109037491697,0.930302,-0.0832292,1.04446
109037514226,0.926642,-0.0825257,1.04484
109037536776,0.92396,-0.0821234,1.04533
109037553218,0.920586,-0.0814338,1.04688
109037574254,0.919266,-0.0808114,1.04973
109037596928,0.914337,-0.0791077,1.05169
109037613231,0.912295,-0.0770378,1.05345
109037641699,0.907343,-0.0729747,1.05429
109037656731,0.900156,-0.0702515,1.05361
109037673155,0.896355,-0.0699167,1.05347
109037694330,0.893598,-0.0686569,1.05415
109037716729,0.892449,-0.068916,1.05328
109037740686,0.895786,-0.0691428,1.05194
109037754440,0.898657,-0.0677605,1.0514
109037776853,0.899299,-0.0676722,1.05191
109037793229,0.898197,-0.0682082,1.0525
109037817621,0.894196,-0.0689975,1.05351
109037836778,0.890166,-0.0696759,1.05348
109037853327,0.889508,-0.0695437,1.05306
109037874226,0.89076,-0.068693,1.05297
109037896695,0.89138,-0.0679402,1.05505
109037914852,0.890915,-0.0677106,1.05837
109037934244,0.889209,-0.0671962,1.06055
109037964502,0.884997,-0.0666205,1.06072
109037974707,0.881084,-0.0654924,1.06012
109037994181,0.879325,-0.0650074,1.06022
109038016715,0.87977,-0.0639001,1.06068
109038035534,0.878682,-0.0635334,1.06184
109038061776,0.877804,-0.0642628,1.06382
109038076757,0.877132,-0.0650966,1.06501
109038096770,0.875203,-0.0643062,1.0649
109038114210,0.872544,-0.0628923,1.06425
109038136700,0.870614,-0.0614548,1.06458
109038154706,0.868805,-0.0597045,1.06588
109038174318,0.867264,-0.0591561,1.06858
109038196821,0.866077,-0.0590482,1.07118
109038214684,0.862853,-0.0584041,1.07193
109038234306,0.858557,-0.057699,1.07135
109038256774,0.856207,-0.0573605,1.0706
109038274711,0.856904,-0.0566996,1.07059
109038294288,0.858532,-0.0561518,1.0714
109038316890,0.859376,-0.0560221,1.07198
109038334681,0.859376,-0.0560221,1.07198
109038354314,0.859141,-0.0561266,1.07125
109038376811,0.859268,-0.0567416,1.07069
109038394685,0.859398,-0.0567995,1.0707
109038414354,0.859806,-0.0568603,1.07124
109038436779,0.860329,-0.0568197,1.07138
109038454779,0.860459,-0.0568776,1.07139
109038474375,0.860212,-0.0569859,1.07128
109038496906,0.860212,-0.0569859,1.07128
109038514797,0.860113,-0.0565471,1.07176
109038535747,0.859971,-0.0561798,1.07221
109038556778,0.859479,-0.0560386,1.07246
109038574751,0.858786,-0.0557346,1.07275
109038595717,0.858177,-0.0557594,1.0729
109038616738,0.858036,-0.0553915,1.07335
109038634646,0.858416,-0.0551625,1.0737
109038655719,0.858707,-0.054983,1.07384
109038676773,0.858621,-0.0549468,1.07401
109038694677,0.858621,-0.0549468,1.07401
109038715680,0.858621,-0.0549468,1.07401
109038736774,0.859342,-0.0554274,1.07365
109038754695,0.859241,-0.055346,1.07366
109038775731,0.859256,-0.0553913,1.07381
109038796758,0.859892,-0.0554288,1.07331
109038814645,0.860732,-0.0555434,1.07315
109038837166,0.860732,-0.0555434,1.07315
109038856763,0.860732,-0.0555434,1.07315
109038874681,0.860732,-0.0555434,1.07315
109038897264,0.860732,-0.0555434,1.07315
109038916725,0.860324,-0.0554818,1.07261
109038934691,0.860294,-0.0555052,1.07259
109038957279,0.860294,-0.0555052,1.07259
109038976767,0.860294,-0.0555052,1.07259
109038994739,0.860294,-0.0555052,1.07259
109039017383,0.860481,-0.0556017,1.07228
109039036811,0.860248,-0.0556412,1.07205
109039054716,0.859755,-0.055793,1.07233
109039077324,0.859755,-0.055793,1.07233
109039096815,0.860118,-0.0559902,1.07234
109039114673,0.860813,-0.0561153,1.07229
109039137319,0.861567,-0.0565073,1.07246
109039156799,0.860741,-0.0563242,1.07249
109039174822,0.858927,-0.0565092,1.0726
109039203285,0.858911,-0.0570497,1.07252
109039216794,0.859532,-0.0574483,1.07217
109039234746,0.860299,-0.057836,1.07172
109039257278,0.862345,-0.0577895,1.07161
109039276994,0.863478,-0.0577238,1.07159
109039302273,0.862591,-0.0574524,1.07118
109039317279,0.862182,-0.0574549,1.07014
109039337536,0.865129,-0.0577357,1.06933
109039353879,0.867441,-0.0572164,1.06918
109039376487,0.869697,-0.0574453,1.06931
109039397507,0.871868,-0.056623,1.06912
109039415579,0.870473,-0.0561353,1.06995
109039436471,0.869032,-0.0569953,1.07062
109039457534,0.870719,-0.0578289,1.0705
109039480021,0.872233,-0.0579519,1.06988
109039496441,0.874539,-0.0578511,1.07066
109039517450,0.874691,-0.0570708,1.07199
109039534003,0.873492,-0.0578297,1.07151
109039556400,0.87506,-0.0600346,1.06901
109039577556,0.878476,-0.060954,1.06708
109039593991,0.884649,-0.0610468,1.06668
109039616460,0.888195,-0.0605983,1.06715
109039637430,0.889252,-0.0610432,1.06546
109039653950,0.888317,-0.0614437,1.06267
109039676401,0.887633,-0.0617989,1.06075
109039697441,0.893102,-0.0627908,1.05961
109039713896,0.900106,-0.0634369,1.06059
109039736398,0.904084,-0.0633477,1.06165
109039758949,0.903216,-0.0634197,1.06092
109039773939,0.898895,-0.0626259,1.0602
109039796409,0.898481,-0.0621441,1.05936
109039819907,0.900323,-0.0626232,1.06024
109039833920,0.900158,-0.0624556,1.06107
109039856450,0.900842,-0.0633608,1.06082
109039879012,0.898739,-0.0637896,1.0604
109039893943,0.898078,-0.0652058,1.0591
109039918286,0.900167,-0.0661604,1.05823
109039938917,0.902122,-0.067241,1.05837
109039953933,0.902674,-0.0679146,1.05835
109039976508,0.899875,-0.0685086,1.05674
109039999004,0.899463,-0.069706,1.05465
109040013280,0.905325,-0.0701776,1.05446
109040036472,0.908672,-0.0702371,1.05527
109040058920,0.906644,-0.0705176,1.05606
109040073331,0.900339,-0.0705888,1.05509
109040096488,0.895379,-0.0709521,1.05385
109040118939,0.894945,-0.071439,1.05384
109040133389,0.899461,-0.0709747,1.05501
109040162486,0.901133,-0.0698946,1.05608
109040179026,0.899329,-0.0697702,1.05681
109040193304,0.891967,-0.0696103,1.05553
109040216433,0.88767,-0.0696882,1.05365
109040238973,0.89591,-0.0684928,1.05353
109040260106,0.905936,-0.0661219,1.05525
109040276464,0.908086,-0.064923,1.06035
109040299174,0.902451,-0.0652178,1.06448
109040320061,0.893043,-0.0649922,1.06443
109040336468,0.882964,-0.0629851,1.06189
109040359022,0.88176,-0.0615342,1.06067
109040380071,0.882452,-0.0598501,1.06146
109040395839,0.885743,-0.0592666,1.06381
109040418969,0.888691,-0.0592458,1.06663
109040441646,0.889193,-0.0601129,1.0681
109040456522,0.886449,-0.0600373,1.06712
109040478951,0.883079,-0.0596298,1.06598
109040500253,0.883662,-0.0577033,1.06638
109040516496,0.884545,-0.055283,1.06804
109040538952,0.884711,-0.053901,1.07172
109040560075,0.884129,-0.0529682,1.07596
109040576537,0.881995,-0.0515559,1.0786
109040599025,0.875704,-0.0495751,1.07915
109040619981,0.868452,-0.0470486,1.07892
109040635803,0.862561,-0.0443362,1.07863
109040659002,0.858616,-0.0426132,1.07951
109040680048,0.859231,-0.041749,1.08115
109040695889,0.86165,-0.0419024,1.08296
109040718949,0.863287,-0.0422659,1.08401
109040741526,0.862624,-0.0427372,1.08378
109040756518,0.860011,-0.043188,1.08323
109040779015,0.857222,-0.0432509,1.08296
109040801457,0.856419,-0.0428159,1.08311
109040816446,0.856736,-0.0425044,1.08364
109040838973,0.857791,-0.0423435,1.0843
109040861361,0.857791,-0.0423435,1.0843
109040882539,0.857042,-0.0426639,1.08397
109040899042,0.85576,-0.0427981,1.08358
109040921456,0.85576,-0.0427981,1.08358
109040936768,0.856064,-0.042844,1.08364
109040959049,0.856818,-0.0429478,1.08378
109040981463,0.857023,-0.0429114,1.08385
109040995895,0.856646,-0.0430736,1.084
109041019012,0.856222,-0.0431927,1.08384
109041041505,0.856163,-0.043332,1.08392
109041062587,0.856163,-0.043332,1.08392
109041078965,0.856662,-0.0431182,1.08414
109041101500,0.856632,-0.0431424,1.08412
109041115850,0.856762,-0.0432007,1.08413
109041139261,0.856762,-0.0432007,1.08413
109041161602,0.856762,-0.0432007,1.08413
109041175854,0.856762,-0.0432007,1.08413
109041199032,0.856687,-0.0432953,1.08406
109041229006,0.856687,-0.0432953,1.08406
109041242517,0.856687,-0.0432953,1.08406
109041259040,0.856687,-0.0432953,1.08406
109041281464,0.856687,-0.0432953,1.08406
109041302690,0.856687,-0.0432953,1.08406
109041319055,0.856687,-0.0432953,1.08406
109041349171,0.856687,-0.0432953,1.08406
109041362599,0.856687,-0.0432953,1.08406
109041379029,0.856687,-0.0432953,1.08406
109041401490,0.856817,-0.0433535,1.08408
109041422569,0.856817,-0.0433535,1.08408
109041439008,0.856817,-0.0433535,1.08408
109041461535,0.856817,-0.0433535,1.08408
109041482623,0.856817,-0.0433535,1.08408
109041499023,0.856917,-0.0434359,1.08406
109041521565,0.856917,-0.0434359,1.08406
109041542528,0.856917,-0.0434359,1.08406
109041559047,0.856917,-0.0434359,1.08406
109041581546,0.856843,-0.0435305,1.084
109041602567,0.857406,-0.0436931,1.08408
109041619014,0.857406,-0.0436931,1.08408
109041641515,0.857406,-0.0436931,1.08408
109041662648,0.858035,-0.0441407,1.08388
109041678975,0.858064,-0.0440255,1.08377
109041701509,0.858194,-0.0440837,1.08378
109041724016,0.858194,-0.0440837,1.08378
109041739024,0.857406,-0.0442961,1.08365
109041761553,0.85734,-0.0449288,1.08365
109041784126,0.858121,-0.0453009,1.08385
109041799039,0.858221,-0.0453832,1.08383
109041821516,0.857755,-0.0452805,1.08361
109041844071,0.857578,-0.0461881,1.08316
109041858364,0.858436,-0.0466622,1.08269
109041881536,0.859321,-0.046824,1.08284
109041904034,0.859148,-0.0469502,1.08306
109041918377,0.856384,-0.0480021,1.08332
109041941577,0.856216,-0.0493346,1.08268
109041964928,0.857055,-0.0507244,1.08116
109041978898,0.859483,-0.052543,1.08065
109042001511,0.864285,-0.0537714,1.0813
109042024098,0.869085,-0.054465,1.08189
109042038446,0.868911,-0.05514,1.08091
109042061552,0.867279,-0.0575257,1.07879
109042084068,0.872415,-0.0595749,1.07694
109042105079,0.879132,-0.0584429,1.07645
109042121555,0.884318,-0.0568925,1.07643
109042144134,0.884694,-0.0566681,1.07552
109042158406,0.882726,-0.0557735,1.07384
109042181602,0.881254,-0.0559224,1.07213
109042203986,0.885903,-0.0571047,1.07134
109042225240,0.891921,-0.0568176,1.0719
109042241597,0.894898,-0.0565655,1.07359
109042264037,0.891576,-0.0567906,1.07357
109042285322,0.887621,-0.0568505,1.0719
109042301521,0.885298,-0.0582553,1.07034
109042324033,0.889461,-0.0593567,1.07057
109042352596,0.895651,-0.0597766,1.07212
109042361553,0.895256,-0.0602519,1.07291
109042385576,0.889432,-0.0612191,1.07034
109042405110,0.887934,-0.0619143,1.0679
109042421578,0.892339,-0.0625962,1.06743
109042444120,0.898357,-0.0636872,1.06861
109042465091,0.896077,-0.0638836,1.06762
109042481707,0.89341,-0.0652503,1.0652
109042504050,0.895961,-0.0661969,1.06429
109042525095,0.903846,-0.0666595,1.06448
109042547763,0.90789,-0.066371,1.0647
109042564083,0.904302,-0.0660376,1.06362
109042585266,0.901014,-0.0660631,1.06325
109042600915,0.9016,-0.0661872,1.06461
109042624025,0.903354,-0.0664662,1.06588
109042646671,0.902378,-0.0665325,1.06719
109042661556,0.898295,-0.0667772,1.06795
109042684213,0.898206,-0.0670066,1.06876
109042712576,0.899144,-0.0659479,1.07062
109042721682,0.89527,-0.0646666,1.07246
109042744116,0.889321,-0.0643354,1.07395
109042766585,0.885174,-0.0628645,1.07485
109042781652,0.8872,-0.0611705,1.07519
109042810105,0.888725,-0.0583681,1.07656
109042826516,0.886383,-0.056256,1.07805
109042840954,0.880763,-0.0558347,1.07806
109042865502,0.875583,-0.0561317,1.07708
109042886599,0.874919,-0.0559396,1.07589
109042900927,0.878731,-0.0547919,1.07517
109042924040,0.884907,-0.0531184,1.07625
109042946638,0.888401,-0.0518817,1.07773
109042960918,0.885929,-0.0517354,1.07827
109042985009,0.882558,-0.0523863,1.07836
109043006591,0.881965,-0.0523985,1.07916
109043020857,0.882507,-0.0503831,1.07911
109043044131,0.880748,-0.0486864,1.08007
109043066592,0.881314,-0.0477469,1.08255
109043089123,0.878891,-0.0456112,1.08417
109043104173,0.87262,-0.044453,1.08544
109043126564,0.8692,-0.0437541,1.08771
109043147625,0.866884,-0.042886,1.09019
109043164059,0.864932,-0.0420982,1.09242
109043187401,0.861941,-0.0411044,1.09445
109043207676,0.85899,-0.0401891,1.09616
109043224180,0.855556,-0.0388959,1.09758
109043246606,0.853375,-0.0376733,1.0985
109043267605,0.853286,-0.0369889,1.09958
109043284021,0.852868,-0.0363937,1.10084
109043306615,0.851689,-0.0362941,1.10215
109043327686,0.850575,-0.0362776,1.1033
109043344070,0.849243,-0.0363617,1.10385
109043366617,0.848228,-0.0364252,1.10435
109043388861,0.847162,-0.0363348,1.1049
109043404135,0.846687,-0.0358717,1.10562
109043426568,0.846504,-0.0355256,1.10652
109043447691,0.846532,-0.0352789,1.10727
109043470144,0.84609,-0.0348129,1.10751
109043486548,0.844818,-0.0347546,1.10736
109043507728,0.843993,-0.0348483,1.10743
109043524098,0.84422,-0.0349916,1.10742
109043546623,0.84481,-0.035046,1.10739
109043569101,0.845589,-0.03556,1.10736
109043584144,0.846047,-0.0360697,1.10726
109043606634,0.846412,-0.03663,1.10695
109043612145,0.846587,-0.0371567,1.10645
109043634535,0.846902,-0.0375631,1.10619
109043649709,0.847748,-0.0377358,1.10618
109043671995,0.848239,-0.037706,1.10617
109043694467,0.848368,-0.0377653,1.10618
109043709477,0.848703,-0.0378114,1.10577
109043731977,0.849152,-0.037447,1.10541
109043754642,0.849152,-0.037447,1.10541
109043769809,0.849152,-0.037447,1.10541
109043791929,0.849152,-0.037447,1.10541
109043817542,0.8492,-0.0374879,1.10509
109043830966,0.849541,-0.0377568,1.10459
109043852148,0.849969,-0.0381779,1.1042
109043874549,0.850444,-0.0385291,1.10384
109043889499,0.850964,-0.0388997,1.10365
109043919706,0.851181,-0.0392215,1.10341
109043934561,0.851458,-0.0394049,1.10309
109043952445,0.8516,-0.0398209,1.10278
109043972054,0.851728,-0.03988,1.10279
109043994560,0.851728,-0.03988,1.10279
109044009540,0.851669,-0.0400183,1.10287
109044031990,0.851669,-0.0400183,1.10287
109044054542,0.851669,-0.0400183,1.10287
109044069605,0.85154,-0.0399592,1.10286
109044092075,0.85154,-0.0399592,1.10286
109044114485,0.85154,-0.0399592,1.10286
109044129556,0.851464,-0.0400534,1.1028
109044152051,0.851467,-0.0401636,1.10244
109044174610,0.851421,-0.0406588,1.10221
109044190968,0.851421,-0.0406588,1.10221
109044212089,0.851732,-0.040841,1.10204
109044234471,0.852317,-0.0411855,1.10204
109044250988,0.852488,-0.0415768,1.10176
109044272158,0.852615,-0.0419483,1.10131
109044294521,0.853009,-0.042259,1.10111
109044310902,0.853679,-0.0423304,1.10142
109044332081,0.853663,-0.0422861,1.10127
109044354589,0.853663,-0.0422861,1.10127
109044370991,0.853465,-0.0425442,1.10111
109044392027,0.853594,-0.0426033,1.10112
109044422934,0.854076,-0.0427543,1.10149
109044430969,0.854536,-0.0431529,1.10175
109044451991,0.853955,-0.0433467,1.10182
109044477505,0.853469,-0.0436005,1.10175
109044490998,0.853393,-0.0436947,1.10169
109044512021,0.853393,-0.0436947,1.10169
109044534581,0.855533,-0.0442813,1.10214
109044552388,0.856343,-0.0437156,1.10212
109044573461,0.851704,-0.0436888,1.10188
109044594527,0.849042,-0.0443912,1.1012
109044612447,0.850037,-0.0462316,1.10017
109044632199,0.855715,-0.0475964,1.0996
109044654515,0.860144,-0.0483568,1.10073
109044672444,0.861169,-0.0494729,1.1024
109044692054,0.864338,-0.0498802,1.10209
109044714549,0.861244,-0.0511639,1.09865
109044732614,0.864046,-0.0540567,1.096
109044754962,0.874436,-0.055857,1.09612
109044774576,0.88426,-0.0543552,1.09731
109044792493,0.887546,-0.0530131,1.0988
109044812120,0.883058,-0.0524589,1.09627
109044834726,0.87785,-0.0529314,1.09389
109044852457,0.877937,-0.05325,1.09313
109044872248,0.883263,-0.0533735,1.09431
109044894515,0.890321,-0.0544525,1.09568
109044913417,0.891712,-0.0548834,1.09585
109044932192,0.888639,-0.0564973,1.09397
109044954639,0.887059,-0.0573167,1.09286
109044972463,0.886995,-0.0581111,1.09199
109044992092,0.888991,-0.0595474,1.09073
109045014552,0.891461,-0.060535,1.089
109045032532,0.895469,-0.0615368,1.08767
109045052076,0.897965,-0.0624708,1.08773
109045074624,0.899257,-0.0624573,1.08712
109045092554,0.896867,-0.0631992,1.08519
109045114962,0.898546,-0.0642809,1.08368
109045134579,0.900885,-0.0647375,1.08327
109045152504,0.902612,-0.0645521,1.08334
109045175011,0.90171,-0.0645585,1.08294
109045202073,0.901731,-0.065015,1.08161
109045212458,0.902876,-0.0662617,1.08085
109045235147,0.904869,-0.0665105,1.08109
109045254599,0.905637,-0.0670311,1.08153
109045272486,0.903364,-0.0671495,1.08167
109045293610,0.900589,-0.0674765,1.0816
109045314550,0.901062,-0.0677039,1.08209
109045332483,0.902148,-0.0674446,1.08442
109045353524,0.899966,-0.0663451,1.08645
109045374616,0.895291,-0.0653051,1.08699
109045392499,0.887387,-0.0642983,1.08621
109045413507,0.886942,-0.0644248,1.0854
109045434519,0.89011,-0.0636962,1.08672
109045452631,0.8922,-0.0631489,1.08862
109045473577,0.889205,-0.0627338,1.09027
109045494742,0.883139,-0.0617361,1.0898
109045512508,0.878339,-0.0607602,1.08869
109045536876,0.875413,-0.0594745,1.08853
109045554804,0.877345,-0.0592107,1.08866
109045572476,0.881753,-0.0590355,1.09052
109045595109,0.884947,-0.0588527,1.09319
109045614653,0.884192,-0.0581576,1.09299
109045632573,0.88452,-0.0561082,1.09258
109045655109,0.882212,-0.0527685,1.09193
109045674613,0.878813,-0.0515711,1.09142
109045692539,0.876172,-0.051593,1.09168
109045715039,0.878097,-0.0516359,1.09248
109045734566,0.880115,-0.0525926,1.09448
109045752601,0.87893,-0.0535076,1.0963
109045774990,0.875817,-0.0537323,1.09649
109045794768,0.872641,-0.0523176,1.09631
109045813160,0.868679,-0.0497934,1.09658
109045834204,0.865291,-0.0481821,1.09754
109045854784,0.865101,-0.0474861,1.10066
109045871715,0.868103,-0.0467382,1.10432
109045894273,0.868341,-0.0455711,1.10731
109045915401,0.863197,-0.0440188,1.10776
109045931661,0.855627,-0.0425786,1.10704
109045954270,0.850902,-0.041335,1.10668
109045975284,0.849849,-0.0402351,1.10736
109045991684,0.851374,-0.039544,1.10854
109046014220,0.85287,-0.0399323,1.10972
109046035247,0.854036,-0.0405162,1.11008
109046051724,0.853456,-0.0409272,1.10943
109046074237,0.851639,-0.0413881,1.10843
109046095347,0.850873,-0.0418791,1.10786
109046111864,0.851956,-0.0419043,1.10781
109046141686,0.853659,-0.0418497,1.10812
109046155235,0.854695,-0.0418349,1.1084
109046171718,0.854747,-0.0419882,1.10835
109046194282,0.854747,-0.0419882,1.10835
109046215477,0.854671,-0.0420822,1.10829
109046231715,0.855138,-0.0421908,1.10851
109046254238,0.855138,-0.0421908,1.10851
109046275501,0.855266,-0.0422502,1.10853
109046292087,0.855266,-0.0422502,1.10853
109046314379,0.855266,-0.0422502,1.10853
109046335232,0.8549,-0.0422295,1.10891
109046352795,0.854716,-0.0419961,1.10945
109046374233,0.854716,-0.0419961,1.10945
109046395265,0.854716,-0.0419961,1.10945
109046419264,0.854716,-0.0419961,1.10945
109046434318,0.854587,-0.0419367,1.10944
109046456715,0.854587,-0.0419367,1.10944
109046471745,0.854788,-0.0422144,1.10905
109046494660,0.855017,-0.0424673,1.10868
109046516745,0.854914,-0.0426953,1.10823
109046531731,0.855787,-0.0430468,1.10815
109046555060,0.855787,-0.0430468,1.10815
109046576702,0.856673,-0.0433291,1.10794
109046591054,0.857158,-0.0435914,1.10795
109046614312,0.857129,-0.043616,1.10793
109046636744,0.857053,-0.0437099,1.10786
109046651029,0.856954,-0.0436259,1.10788
109046674323,0.857421,-0.0437347,1.10811
109046696702,0.857421,-0.0437347,1.10811
109046711036,0.856464,-0.0437688,1.10816
109046734215,0.855908,-0.043823,1.10799
109046756687,0.855779,-0.0437636,1.10798
109046771125,0.856308,-0.0438431,1.10777
109046794241,0.856817,-0.0442833,1.1077
109046824358,0.85784,-0.0443331,1.10747
109046831104,0.858121,-0.0446249,1.10679
109046855201,0.856847,-0.0451001,1.10608
109046876769,0.856552,-0.0458121,1.106
109046891594,0.858393,-0.0464638,1.10604
109046914261,0.859314,-0.0467449,1.10599
109046937177,0.859431,-0.0468683,1.10549
109046957808,0.85924,-0.0468285,1.10467
109046974731,0.859567,-0.0469363,1.10375
109046996718,0.859567,-0.0469363,1.10375
109047017879,0.861441,-0.047992,1.10425
109047034353,0.859349,-0.0485042,1.10474
109047056771,0.856863,-0.0495303,1.10491
109047077967,0.858458,-0.0501905,1.10407
109047094321,0.860861,-0.0502601,1.10307
109047116715,0.861389,-0.0516946,1.10416
109047138026,0.865109,-0.0539621,1.10666
109047154300,0.869401,-0.0568242,1.10474
109047176765,0.874702,-0.0582622,1.10211
109047197796,0.882891,-0.056899,1.10154
109047214370,0.888493,-0.0559253,1.10235
109047236825,0.889101,-0.0558042,1.10256
109047257786,0.884666,-0.055113,1.10058
109047274288,0.88117,-0.0555141,1.09852
109047296770,0.883709,-0.0555927,1.09803
109047317856,0.891348,-0.0550265,1.09904
109047334443,0.893558,-0.0548939,1.09922
109047356742,0.890107,-0.055531,1.09912
109047379316,0.886496,-0.0563388,1.09699
109047394300,0.886617,-0.0579416,1.09564
109047416721,0.892778,-0.0592716,1.09537
109047439314,0.89786,-0.060647,1.09592
109047454286,0.8967,-0.0614822,1.09586
109047476826,0.892383,-0.0623288,1.09353
109047499361,0.892108,-0.0629753,1.09155
109047514288,0.896814,-0.0636928,1.09038
109047538279,0.903322,-0.0648831,1.09042
109047559290,0.903068,-0.0648667,1.09003
109047580393,0.899085,-0.0650554,1.0881
109047596855,0.899276,-0.0654382,1.08605
109047619281,0.904872,-0.0667444,1.0853
109047633637,0.909753,-0.0676144,1.08633
109047656822,0.909917,-0.06821,1.08706
109047679306,0.906291,-0.0686315,1.08703
109047693645,0.902568,-0.0685586,1.08673
109047716784,0.904033,-0.0686186,1.08757
109047739298,0.905483,-0.0672007,1.08926
109047753612,0.901615,-0.0655846,1.08979
109047776855,0.896577,-0.0659293,1.08847
109047799425,0.895668,-0.0667753,1.08752
109047813580,0.899063,-0.0662051,1.08819
109047836813,0.904039,-0.0666682,1.08928
109047859313,0.905332,-0.0665683,1.09031
109047874384,0.90085,-0.0661515,1.09061
109047896797,0.895779,-0.0662796,1.0905
109047919313,0.890853,-0.0662934,1.09065
109047940363,0.889335,-0.0656674,1.09135
109047956842,0.889232,-0.0644028,1.09175
109047985375,0.888872,-0.0634919,1.09319
109048000611,0.887247,-0.0626764,1.09427
109048016818,0.885741,-0.0613446,1.09464
109048039359,0.886256,-0.0594621,1.09532
109048060465,0.886913,-0.0565748,1.09667
109048082845,0.885408,-0.0545405,1.09784
109048099421,0.883311,-0.0530953,1.09987
109048120313,0.882017,-0.0529902,1.10197
109048136770,0.879439,-0.0528114,1.10329
109048166781,0.876233,-0.0511026,1.10354
109048180366,0.871403,-0.0497006,1.10434
109048196743,0.8677,-0.0486195,1.10592
109048219297,0.865616,-0.0478281,1.10827
109048240373,0.865017,-0.0477836,1.11132
109048256816,0.863314,-0.0476505,1.11301
109048279305,0.859442,-0.0474658,1.11302
109048300352,0.85602,-0.047318,1.11235
109048316796,0.854486,-0.0467108,1.11237
109048339336,0.855518,-0.0460504,1.11294
109048361646,0.857232,-0.0452841,1.11342
109048376797,0.858004,-0.0454447,1.1137
109048399420,0.8581,-0.0454154,1.11342
109048421797,0.857639,-0.0450088,1.11253
109048436806,0.856759,-0.0454812,1.11209
109048459356,0.856759,-0.0454812,1.11209
109048481810,0.857255,-0.0459915,1.11215
109048496157,0.85789,-0.0463836,1.11246
109048519323,0.85789,-0.0463836,1.11246
109048541817,0.858095,-0.0463496,1.11253
109048556198,0.857586,-0.0459082,1.11259
109048579327,0.856575,-0.0456777,1.11306
109048601766,0.855745,-0.0456599,1.11349
109048616202,0.854723,-0.0456069,1.11372
109048639311,0.85474,-0.0456512,1.11387
109048669800,0.85474,-0.0456512,1.11387
109048676118,0.85474,-0.0456512,1.11387
109048699428,0.85474,-0.0456512,1.11387
109048721790,0.854171,-0.0457729,1.11382
109048736118,0.853499,-0.0456973,1.11352
109048759374,0.853439,-0.0458353,1.1136
109048781820,0.853852,-0.0457879,1.11325
109048802903,0.85441,-0.0458444,1.11306
109048819379,0.854786,-0.0461129,1.11272
109048841838,0.855254,-0.0467572,1.11239
109048862879,0.85527,-0.0468016,1.11254
109048879316,0.855839,-0.0471048,1.11239
109048901809,0.85636,-0.0474771,1.11221
109048922838,0.856638,-0.047661,1.11188
109048939288,0.857094,-0.0479487,1.11187
109048969320,0.857194,-0.048033,1.11186
109048982860,0.857194,-0.048033,1.11186
109048999359,0.858567,-0.0485852,1.11229
109049021830,0.858349,-0.0482633,1.11254
109049042915,0.856088,-0.0479453,1.11288
109049059374,0.852184,-0.048479,1.11258
109049081846,0.850308,-0.050021,1.11269
109049102893,0.852389,-0.050352,1.11292
109049119366,0.854951,-0.0507207,1.11263
109049141833,0.855908,-0.0506928,1.1132
109049163053,0.856349,-0.0500905,1.11407
109049179370,0.855845,-0.0498714,1.11404
109049202851,0.853748,-0.0500293,1.1131
109049223013,0.852941,-0.0501857,1.11282
109049239298,0.853916,-0.0503114,1.11318
109049262008,0.854537,-0.0507722,1.11361
109049284387,0.854566,-0.0507478,1.11364
109049299366,0.854999,-0.0517084,1.11332
109049321876,0.856626,-0.0520599,1.11246
109049344448,0.858277,-0.0523713,1.11277
109049359462,0.861846,-0.0530501,1.11339
109049381840,0.863127,-0.0535387,1.11335
109049404362,0.864412,-0.0550191,1.10951
109049419380,0.865958,-0.0558771,1.10585
109049441857,0.873955,-0.0561423,1.10592
109049464396,0.881776,-0.055578,1.1076
109049478746,0.880677,-0.0553074,1.10647
109049501828,0.87399,-0.0561744,1.10368
109049524413,0.869667,-0.0573662,1.10089
109049538683,0.873564,-0.0595505,1.09948
109049561868,0.883623,-0.0615927,1.10053
109049584407,0.889189,-0.0613012,1.10277
109049605430,0.884246,-0.060595,1.10307
109049621848,0.877254,-0.0607037,1.1004
109049644351,0.874351,-0.0612458,1.09908
109049665583,0.877859,-0.0617782,1.09973
109049681912,0.883232,-0.0626565,1.1009
109049704384,0.883407,-0.0625297,1.10068
109049718669,0.880569,-0.0636304,1.09848
109049749345,0.881671,-0.0642954,1.09686
109049764371,0.885287,-0.0656572,1.0967
109049778767,0.889536,-0.066886,1.0974
109049801865,0.888408,-0.0677797,1.09701
109049824417,0.8859,-0.0689755,1.09502
109049845418,0.889372,-0.0707523,1.09398
109049861859,0.894392,-0.0703525,1.0945
109049884494,0.895619,-0.0701535,1.09507
109049905445,0.890534,-0.0702192,1.09356
109049928032,0.889378,-0.0704408,1.09204
109049944441,0.894393,-0.0700916,1.09206
109049965369,0.898686,-0.0695801,1.09261
109049981865,0.898173,-0.0689536,1.09228
109050004379,0.896003,-0.0691979,1.09192
109050025443,0.897375,-0.0692777,1.09241
109050041887,0.897779,-0.0686956,1.09263
109050064358,0.89485,-0.0684805,1.0926
109050085571,0.893019,-0.0689237,1.09209
109050101862,0.892401,-0.0688267,1.09197
109050124115,0.890841,-0.0683933,1.09112
109050145492,0.889492,-0.0683441,1.08888
109050152296,0.893695,-0.0687912,1.08639
109050167228,0.905388,-0.0710777,1.08484
109050191325,0.913673,-0.0697107,1.08702
109050212309,0.915696,-0.0681145,1.09346
109050228895,0.907751,-0.0669056,1.09835
109050249741,0.887458,-0.06603,1.09853
109050272334,0.866207,-0.0645855,1.09693
109050287482,0.856434,-0.0636169,1.09618
109050309773,0.857889,-0.0630443,1.0987
109050332440,0.864833,-0.0618623,1.10321
109050347361,0.868227,-0.0608726,1.10724
109050369794,0.864097,-0.0593686,1.10748
109050392445,0.85629,-0.0581528,1.10459
109050408815,0.850188,-0.057034,1.101
109050429860,0.850362,-0.0561429,1.0989
109050452314,0.857491,-0.0550598,1.0988
109050467310,0.863619,-0.0537551,1.0992
109050489843,0.865036,-0.0539282,1.10077
109050512308,0.864553,-0.0555583,1.1015
109050527330,0.862793,-0.0565803,1.10076
109050549777,0.860484,-0.0572535,1.09954
109050581120,0.859621,-0.0582702,1.09919
109050587400,0.859991,-0.0580014,1.0994
109050609797,0.860228,-0.0573633,1.10006
109050633751,0.860667,-0.0564623,1.10026
109050647448,0.861296,-0.0554817,1.10038
109050669783,0.861322,-0.0549424,1.10047
109050692393,0.860785,-0.054441,1.10088
109050707305,0.860225,-0.0545019,1.10134
109050729744,0.860225,-0.0545019,1.10134
109050752349,0.860265,-0.0547242,1.10141
109050770300,0.860582,-0.0545898,1.10107
109050789986,0.861192,-0.0546873,1.10119
109050812308,0.861162,-0.0547114,1.10116
109050828785,0.86096,-0.0548602,1.10136
109050849947,0.860758,-0.05541,1.10123
109050872287,0.860774,-0.055455,1.10138
109050888918,0.860758,-0.05541,1.10123
109050909758,0.860758,-0.05541,1.10123
109050932501,0.861465,-0.05488,1.10212
109050948902,0.860996,-0.0540612,1.10268
109050969798,0.860476,-0.0540338,1.10368
109050992441,0.859531,-0.0536001,1.10394
109051008801,0.858244,-0.0534098,1.10402
109051029766,0.857467,-0.0531437,1.10409
109051052397,0.857869,-0.0528517,1.10433
109051068742,0.858522,-0.0527664,1.10421
109051089778,0.859318,-0.0526714,1.10399
109051112341,0.859216,-0.0527845,1.10327
109051136318,0.859432,-0.0533976,1.10306
109051150018,0.85997,-0.054014,1.10292
109051172306,0.861166,-0.054343,1.10276
109051190358,0.86247,-0.0545776,1.10283
109051209974,0.8626,-0.0546369,1.10285
109051232338,0.862407,-0.0544878,1.10238
109051250432,0.86164,-0.0540389,1.10206
109051269796,0.861785,-0.0541432,1.10222
109051292380,0.861742,-0.0542366,1.10231
109051310343,0.860849,-0.0544773,1.1031
109051329797,0.858707,-0.0548325,1.10302
109051352343,0.857664,-0.0557446,1.10235
109051370289,0.857443,-0.0560221,1.10153
109051389869,0.861609,-0.0561833,1.10079
109051415385,0.861889,-0.0564848,1.10136
109051430255,0.858279,-0.0579282,1.10249
109051449863,0.862747,-0.0613614,1.10322
109051472328,0.867355,-0.0629581,1.10257
109051490179,0.866911,-0.0615942,1.10259
109051509896,0.867435,-0.0609021,1.10176
109051532408,0.867448,-0.0636443,1.10021
109051550312,0.873424,-0.0679582,1.0982
109051569870,0.880759,-0.0705824,1.09744
109051592384,0.885688,-0.0689554,1.09786
109051610348,0.88654,-0.0689038,1.09794
109051639757,0.886485,-0.0707059,1.09694
109051652335,0.884711,-0.0723464,1.09701
109051670331,0.885807,-0.0732117,1.0977
109051689855,0.886751,-0.0727034,1.09769
109051712524,0.885647,-0.0720704,1.09626
109051730326,0.886244,-0.072179,1.09572
109051749785,0.88887,-0.0729501,1.09653
109051772502,0.889148,-0.0734338,1.09686
109051790288,0.889791,-0.0734725,1.09636
109051811429,0.88982,-0.0733304,1.09611
109051832335,0.890564,-0.0737445,1.09563
109051852613,0.890649,-0.0747205,1.09633
109051871361,0.886077,-0.0746977,1.09533
109051892340,0.886572,-0.0761605,1.09254
109051910333,0.894415,-0.0769138,1.09179
109051932793,0.900279,-0.0770496,1.09179
109051952257,0.901294,-0.0772193,1.09053
109051970767,0.897001,-0.0774963,1.08946
109051992763,0.896821,-0.0786403,1.08889
109052012363,0.900433,-0.079191,1.08987
109052030341,0.901143,-0.0787229,1.09092
109052051292,0.89986,-0.078836,1.09118
109052072510,0.896588,-0.0785168,1.09145
109052090282,0.895041,-0.078804,1.09172
109052111350,0.894807,-0.078488,1.09197
109052132360,0.894752,-0.0775501,1.09206
109052150316,0.896904,-0.0774962,1.09281
109052172908,0.897343,-0.0761404,1.09451
109052192331,0.894216,-0.0757085,1.09631
109052210304,0.889721,-0.0755383,1.09716
109052232766,0.885464,-0.0754477,1.09723
109052252345,0.886325,-0.0754399,1.09617
109052270457,0.889404,-0.0729009,1.09476
109052292780,0.889332,-0.0709086,1.09485
109052312397,0.887869,-0.0702135,1.09687
109052330446,0.885476,-0.0701276,1.09854
109052353372,0.881333,-0.0695077,1.0984
109052372441,0.877241,-0.0680368,1.09706
109052396294,0.880252,-0.0666054,1.09673
109052412852,0.885764,-0.0652737,1.09701
109052433086,0.887331,-0.0643529,1.09847
109052449480,0.885882,-0.0647781,1.10062
109052472132,0.883809,-0.0649243,1.10161
109052493030,0.879862,-0.0635759,1.10055
109052509509,0.876757,-0.062941,1.0994
109052532025,0.875537,-0.0622515,1.09924
109052553047,0.876829,-0.0604088,1.09994
109052569494,0.877023,-0.0597966,1.1017
109052592031,0.876342,-0.0593751,1.10363
109052613090,0.873231,-0.0588726,1.10401
109052629469,0.86949,-0.0586852,1.10328
109052652440,0.86645,-0.0586376,1.10252
109052673274,0.864981,-0.0580582,1.10288
109052689578,0.866187,-0.0577304,1.10429
109052712023,0.868097,-0.0572499,1.10564
109052733161,0.86823,-0.0567084,1.10608
109052749477,0.865506,-0.0566441,1.10588
109052772027,0.863073,-0.056585,1.10559
109052800564,0.862228,-0.0566349,1.10551
109052809494,0.862844,-0.0564418,1.1056
109052832450,0.864045,-0.0566012,1.10631
109052853046,0.86412,-0.0565076,1.10638
109052869488,0.863037,-0.0565914,1.10606
109052892098,0.863037,-0.0565914,1.10606
109052913060,0.863008,-0.0566156,1.10604
109052929506,0.86295,-0.0560379,1.10629
109052952430,0.862758,-0.0561234,1.10699
109052973069,0.8628,-0.0564604,1.10733
109052989520,0.861939,-0.0564645,1.1071
109053011964,0.861939,-0.0564645,1.1071
109053033247,0.861955,-0.0565096,1.10725
109053049548,0.861955,-0.0565096,1.10725
109053079568,0.862422,-0.0566187,1.10748
109053094548,0.863148,-0.0568473,1.10773
109053109478,0.863353,-0.0568132,1.1078
109053131931,0.862721,-0.0569605,1.10757
109053154499,0.862381,-0.057227,1.10752
109053170452,0.862381,-0.057227,1.10752
109053192104,0.862763,-0.0572976,1.10791
109053214478,0.862763,-0.0572976,1.10791
109053229027,0.862748,-0.0572524,1.10776
109053251999,0.862877,-0.0573121,1.10777
109053274471,0.862923,-0.0572426,1.10781
109053288854,0.862544,-0.0570909,1.10842
109053312494,0.862544,-0.0570909,1.10842
109053334536,0.862223,-0.0569959,1.10821
109053355553,0.862223,-0.0569959,1.10821
109053373181,0.862223,-0.0569959,1.10821
109053394546,0.862223,-0.0569959,1.10821
109053408860,0.862477,-0.0570069,1.1086
109053432103,0.862536,-0.0568681,1.10851
109053454535,0.862536,-0.0568681,1.10851
109053468906,0.862536,-0.0568681,1.10851
109053492020,0.862536,-0.0568681,1.10851
109053514534,0.862639,-0.0570665,1.10877
109053528885,0.863614,-0.0570777,1.10886
109053552027,0.86369,-0.0569841,1.10892
109053575762,0.863614,-0.0570777,1.10886
109053595719,0.863614,-0.0570777,1.10886
109053612018,0.864267,-0.0575151,1.10931
109053634544,0.866036,-0.0573254,1.10954
109053655392,0.865155,-0.0568587,1.10936
109053672039,0.860116,-0.0565514,1.1101
109053694517,0.858356,-0.0582248,1.11034
109053717030,0.858928,-0.0594719,1.11057
109053732017,0.861922,-0.0600164,1.11047
109053762115,0.867468,-0.0591719,1.10956
109053775596,0.869143,-0.0584917,1.1095
109053792094,0.86611,-0.058063,1.10971
109053814592,0.865282,-0.059721,1.10922
109053835627,0.866991,-0.0613798,1.10797
109053852103,0.873015,-0.0623517,1.10638
109053874603,0.880427,-0.0619478,1.10689
109053896972,0.884841,-0.0605886,1.11012
109053912540,0.884053,-0.0603343,1.11083
109053934588,0.876945,-0.062721,1.10883
109053955756,0.875691,-0.0653701,1.10714
109053971363,0.888511,-0.0659899,1.10797
109053994641,0.898027,-0.0646475,1.1092
109054015821,0.890927,-0.0638764,1.10798
109054031416,0.882536,-0.0630262,1.10519
109054054609,0.883535,-0.063915,1.10313
109054077023,0.894996,-0.0650843,1.10368
109054091421,0.902644,-0.0648121,1.1052
109054116151,0.89977,-0.0649689,1.10565
109054137072,0.890188,-0.0652375,1.10282
109054151633,0.887918,-0.0651961,1.1008
109054174576,0.892163,-0.0653656,1.10088
109054197140,0.899338,-0.0663399,1.10232
109054211412,0.900264,-0.0662168,1.1031
109054234540,0.895338,-0.0663392,1.10175
109054257038,0.892149,-0.0668032,1.09988
109054271442,0.89851,-0.0684949,1.10045
109054294528,0.902105,-0.0688042,1.10319
109054317125,0.895151,-0.0687779,1.10361
109054331420,0.889146,-0.0690114,1.10209
109054354731,0.888989,-0.0697823,1.10202
109054377054,0.89399,-0.0703785,1.10288
109054392365,0.895915,-0.0703114,1.10391
109054414703,0.892306,-0.0702936,1.10361
109054437055,0.889721,-0.070978,1.10327
109054451387,0.890424,-0.071115,1.10322
109054474562,0.893005,-0.0706048,1.10333
109054497717,0.893108,-0.0704479,1.10456
109054511535,0.892669,-0.0704564,1.10475
109054534602,0.896265,-0.0694605,1.10391
109054557131,0.896009,-0.0673654,1.10482
109054578141,0.893344,-0.0652551,1.10573
109054594535,0.889795,-0.0635971,1.10668
109054617102,0.882885,-0.062143,1.10696
109054638089,0.879114,-0.0625409,1.10692
109054654526,0.880736,-0.0621148,1.10722
109054677128,0.885279,-0.0606392,1.10829
109054698129,0.885386,-0.0596593,1.11005
109054714700,0.883115,-0.0595102,1.1108
109054745992,0.880478,-0.0588061,1.11074
109054758128,0.877592,-0.0577696,1.11013
109054774636,0.877666,-0.0567284,1.10983
109054797120,0.87803,-0.0557034,1.11006
109054818313,0.876428,-0.0555847,1.11097
109054834634,0.874831,-0.0560045,1.11196
109054857093,0.874918,-0.0566724,1.11201
109054878261,0.874249,-0.0561762,1.11077
109054895278,0.874662,-0.0554591,1.10945
109054917115,0.876413,-0.0541461,1.10939
109054939623,0.877456,-0.051431,1.1101
109054954533,0.874722,-0.0497117,1.11207
109054977145,0.871615,-0.0490917,1.11456
109054999557,0.868519,-0.0485804,1.11556
109055020682,0.864132,-0.0476311,1.11546
109055037140,0.860965,-0.0470886,1.1155
109055059576,0.860499,-0.0464501,1.11646
109055074635,0.860123,-0.0455402,1.11773
109055097077,0.859578,-0.0452914,1.11929
109055119784,0.859219,-0.0448502,1.12051
109055133992,0.858866,-0.04422,1.1207
109055157105,0.857193,-0.0437246,1.12047
109055180045,0.855906,-0.0434094,1.12027
109055193997,0.855906,-0.0434094,1.12027
109055217058,0.855906,-0.0434094,1.12027
109055239689,0.856159,-0.0433072,1.12038
109055253946,0.85679,-0.0435883,1.12042
109055277271,0.856713,-0.0436818,1.12036
109055300032,0.856857,-0.0437861,1.12052
109055314074,0.856857,-0.0437861,1.12052
109055337169,0.856415,-0.0439661,1.12048
109055359558,0.856415,-0.0439661,1.12048
109055374139,0.856415,-0.0439661,1.12048
109055397172,0.856415,-0.0439661,1.12048
109055425626,0.856415,-0.0439661,1.12048
109055434132,0.856287,-0.0439061,1.12047
109055457063,0.856415,-0.0439661,1.12048
109055479665,0.856415,-0.0439661,1.12048
109055500649,0.856415,-0.0439661,1.12048
109055518570,0.855759,-0.044471,1.1204
109055539623,0.855584,-0.0450186,1.12042
109055560652,0.856077,-0.045531,1.12048
109055577635,0.856077,-0.045531,1.12048
109055599618,0.856205,-0.0455911,1.12049
109055620614,0.856205,-0.0455911,1.12049
109055637108,0.856077,-0.045531,1.12048
109055659602,0.856215,-0.0459474,1.12018
109055680878,0.85723,-0.0458851,1.11904
109055697121,0.855208,-0.0460568,1.11843
109055720467,0.855415,-0.0472098,1.11829
109055740772,0.857223,-0.0478972,1.1183
109055757094,0.857944,-0.0480149,1.11828
109055779794,0.857944,-0.0480149,1.11828
109055802123,0.858384,-0.0482596,1.11812
109055817083,0.858384,-0.0482596,1.11812
109055839765,0.859005,-0.0481842,1.11848
109055860685,0.859398,-0.0479642,1.11884
109055877143,0.859154,-0.047775,1.1187
109055899646,0.858485,-0.0479191,1.1183
109055923648,0.858485,-0.0479191,1.1183
109055937149,0.858537,-0.0480726,1.11825
109055959601,0.858878,-0.0476991,1.11867
109055982163,0.857234,-0.0487768,1.11919
109055997190,0.855897,-0.0493868,1.1192
109056019596,0.854349,-0.0498962,1.11937
109056042221,0.854166,-0.0507354,1.11943
109056057109,0.856742,-0.0510431,1.11901
109056079708,0.859105,-0.0510328,1.11948
109056102303,0.859076,-0.0510574,1.11945
109056125439,0.856979,-0.0519586,1.12026
109056139821,0.859463,-0.0537937,1.11946
109056162155,0.861556,-0.0551932,1.11794
109056176443,0.863073,-0.0551129,1.11806
109056199727,0.865346,-0.0556728,1.11889
109056222126,0.867077,-0.0570478,1.11776
109056236586,0.869752,-0.0595753,1.11621
109056259699,0.873053,-0.0613699,1.11467
109056282107,0.879145,-0.0618886,1.11588
109056296495,0.88384,-0.0612398,1.1163
109056319639,0.881812,-0.0609708,1.11412
109056342141,0.879666,-0.0618164,1.1122
109056356544,0.880931,-0.0628425,1.11207
109056379637,0.884145,-0.0627528,1.11312
109056401918,0.886967,-0.0627374,1.1134
109056417956,0.886475,-0.0631743,1.11258
109056439682,0.88264,-0.0649554,1.11252
109056462131,0.881722,-0.0675321,1.11319
109056483180,0.88296,-0.0681154,1.11437
109056499637,0.883129,-0.0686462,1.11563
109056522135,0.880997,-0.0695139,1.11628
109056543213,0.877446,-0.0704166,1.1159
109056559698,0.876925,-0.0714542,1.11449
109056583572,0.879053,-0.0713012,1.11367
109056603347,0.882528,-0.0725163,1.11321
109056619674,0.884456,-0.0731549,1.11343
109056642123,0.881032,-0.0738879,1.11253
109056663240,0.880772,-0.0756544,1.11134
109056685713,0.884492,-0.0764717,1.11209
109056702129,0.885833,-0.0773015,1.11238
109056707552,0.884616,-0.078513,1.11119
109056730031,0.884924,-0.0787835,1.10987
109056745034,0.886848,-0.0787876,1.10987
109056767698,0.887384,-0.0781498,1.10982
109056790086,0.886027,-0.0782821,1.10924
109056805075,0.883349,-0.0785848,1.10891
109056827563,0.883121,-0.079039,1.10848
109056850061,0.883252,-0.079099,1.10849
109056865088,0.882316,-0.0792516,1.10898
109056887551,0.88292,-0.0791313,1.10918
109056910044,0.882061,-0.077982,1.10998
109056925076,0.881179,-0.0766804,1.11098
109056947527,0.878959,-0.0754409,1.11129
109056970306,0.875635,-0.0751921,1.11215
109056985149,0.877469,-0.0759921,1.11242
109057007615,0.881722,-0.0738975,1.11271
109057030062,0.884405,-0.0719947,1.11362
109057045079,0.881127,-0.0714738,1.11462
109057067814,0.87615,-0.072122,1.11431
109057090077,0.873641,-0.0730814,1.11372
109057105059,0.874416,-0.0732951,1.11286
109057127602,0.879462,-0.0723162,1.11268
109057150069,0.886115,-0.0703438,1.11322
109057165067,0.887203,-0.0688534,1.11451
109057187540,0.884971,-0.068326,1.11577
109057210249,0.882384,-0.0684828,1.1155
109057225062,0.881326,-0.0681244,1.1149
109057247535,0.885553,-0.0670814,1.11569
109057270216,0.888478,-0.0640903,1.11736
109057285074,0.886211,-0.0617147,1.12026
109057307648,0.880797,-0.0607689,1.1231
109057330125,0.875389,-0.0603974,1.12487
109057345084,0.873102,-0.0598394,1.12645
109057367833,0.871336,-0.0577159,1.1287
109057390072,0.867536,-0.0552826,1.13103
109057405038,0.863258,-0.0536256,1.13336
109057427608,0.859346,-0.0521813,1.13455
109057450204,0.857291,-0.0509317,1.13472
109057466644,0.857925,-0.0501391,1.13461
109057487572,0.859993,-0.0497968,1.13435
109057518399,0.861717,-0.0498243,1.13367
109057526539,0.862682,-0.0502654,1.13293
109057547545,0.863932,-0.0505806,1.13233
109057570167,0.865408,-0.05082,1.13182
109057586530,0.865537,-0.0508806,1.13183
109057607657,0.865636,-0.0509663,1.13181
109057630160,0.865558,-0.0510592,1.13175
109057646534,0.865519,-0.0509425,1.13131
109057667616,0.865111,-0.0506891,1.131
109057690087,0.865111,-0.0506891,1.131
109057706526,0.865111,-0.0506891,1.131
109057727664,0.865111,-0.0506891,1.131
109057750051,0.865732,-0.0505043,1.13109
109057766655,0.865732,-0.0505043,1.13109
109057787642,0.865189,-0.0504894,1.13143
109057810162,0.865318,-0.0505499,1.13144
109057828034,0.865189,-0.0504894,1.13143
109057847582,0.865098,-0.0507589,1.13112
109057870220,0.86502,-0.0509587,1.13069
109057888098,0.865826,-0.0511216,1.13051
109057907618,0.867028,-0.0511746,1.13033
109057930283,0.867028,-0.0511746,1.13033
109057948017,0.867127,-0.0513666,1.12995
109057967579,0.867583,-0.051765,1.12957
109057990274,0.86858,-0.0518499,1.12932
109058007967,0.86858,-0.0518499,1.12932
109058027646,0.868557,-0.0523174,1.12911
109058050113,0.869213,-0.0528864,1.1287
109058074000,0.869554,-0.0531537,1.1282
109058087789,0.868879,-0.0537167,1.1276
109058110129,0.868816,-0.0543856,1.12712
109058128115,0.869563,-0.0546847,1.12702
109058147662,0.870391,-0.0550062,1.12726
109058170203,0.871195,-0.0562197,1.12709
109058188017,0.872207,-0.0562326,1.12671
109058207572,0.872414,-0.0562001,1.12679
109058230171,0.87051,-0.0564282,1.12681
109058248053,0.869435,-0.0575084,1.12652
109058267600,0.874012,-0.0569886,1.12621
109058290225,0.874381,-0.0570083,1.12582
109058308036,0.867581,-0.0571291,1.12652
109058327625,0.865489,-0.0590198,1.12608
109058351621,0.869565,-0.0606295,1.12403
109058367986,0.874548,-0.0615917,1.12267
109058387690,0.873734,-0.0619129,1.12037
109058410091,0.875409,-0.0645369,1.11883
109058427994,0.882658,-0.0653333,1.11589
109058449124,0.888499,-0.064044,1.11433
109058470142,0.888662,-0.0645018,1.11416
109058488209,0.884724,-0.0633028,1.11414
109058509047,0.882607,-0.0631395,1.11366
109058530130,0.885445,-0.0626443,1.11351
109058548210,0.889051,-0.0632185,1.11389
109058569061,0.890373,-0.0647179,1.11387
109058590148,0.890635,-0.06567,1.11399
109058608229,0.88872,-0.0650771,1.11391
109058629087,0.887474,-0.0653372,1.11346
109058650338,0.886734,-0.0661101,1.11307
109058668053,0.890015,-0.0678283,1.11363
109058690121,0.89137,-0.0684704,1.11353
109058710187,0.890809,-0.0691411,1.11114
109058728025,0.895182,-0.0705584,1.10843
109058752096,0.899709,-0.0724459,1.10552
109058770099,0.905867,-0.0744693,1.10476
109058787990,0.906651,-0.0751599,1.10384
109058810599,0.906667,-0.0769109,1.10238
109058830193,0.905599,-0.0782231,1.10132
109058848025,0.905907,-0.0799976,1.10041
109058870623,0.909469,-0.081261,1.10091
109058890174,0.911075,-0.0813436,1.10227
109058908044,0.908911,-0.08145,1.10229
109058930537,0.907264,-0.0815055,1.10168
109058950335,0.907813,-0.0814066,1.1017
109058968258,0.910232,-0.0811471,1.1023
109058990543,0.909762,-0.0806887,1.10255
109059010816,0.908339,-0.0809077,1.10256
109059027348,0.907051,-0.0808935,1.10255
109059049753,0.907876,-0.081455,1.10267
109059071037,0.91006,-0.0818575,1.10451
109059087283,0.908389,-0.0813768,1.10688
109059109921,0.9059,-0.0802925,1.10722
109059130841,0.900721,-0.078976,1.10663
109059147264,0.894999,-0.0777529,1.10473
109059169788,0.897611,-0.0773669,1.1027
109059190794,0.905572,-0.0768512,1.10421
109059207435,0.909983,-0.075401,1.10898
109059229759,0.905967,-0.0719802,1.11097
109059250826,0.898198,-0.0703575,1.109
109059267371,0.885612,-0.0692305,1.10685
109059289747,0.881015,-0.0688462,1.10679
109059310949,0.887486,-0.0671136,1.10847
109059327341,0.895558,-0.0667688,1.11205
109059349825,0.899921,-0.066511,1.11626
109059370992,0.899957,-0.065107,1.1174
109059387313,0.895043,-0.0624672,1.11649
109059409766,0.88525,-0.0609124,1.11602
109059432417,0.878975,-0.0604781,1.1168
109059447311,0.880997,-0.0605258,1.11908
109059469842,0.886684,-0.0586766,1.12098
109059490802,0.886203,-0.0578429,1.12268
109059513386,0.884103,-0.0578604,1.12387
109059543998,0.879832,-0.0568915,1.12429
109059550883,0.874572,-0.0558565,1.12447
109059567414,0.870612,-0.0555481,1.12515
109059589768,0.869789,-0.0553519,1.12582
