timestamp,x,y,z,w
109000433310,0.151001,0.24707,0.500183,0.81604
109000449837,0.150024,0.248169,0.5,0.815979
109000472365,0.148682,0.248535,0.499939,0.816101
109000486690,0.148132,0.248474,0.499817,0.816345
109000509758,0.147949,0.248535,0.499634,0.816467
109000532296,0.14801,0.248535,0.499634,0.816467
109000553432,0.148071,0.248779,0.499878,0.816223
109000569802,0.147888,0.249207,0.500244,0.815918
109000592365,0.147278,0.249634,0.500427,0.815796
109000613428,0.146179,0.249695,0.50061,0.815796
109000630382,0.144775,0.249817,0.500977,0.815796
109000652383,0.143311,0.249512,0.50116,0.81604
109000673480,0.14209,0.249329,0.501221,0.816284
109000689884,0.141052,0.249207,0.501343,0.816406
109000712360,0.140625,0.249207,0.501343,0.816528
109000733445,0.140076,0.249084,0.501221,0.816711
109000749820,0.140015,0.249084,0.501221,0.816711
109000772366,0.140442,0.249268,0.50116,0.81665
109000793549,0.14093,0.249573,0.501099,0.816467
109000809819,0.14093,0.249573,0.501099,0.816467
109000832322,0.140991,0.249512,0.501099,0.816467
109000853478,0.140991,0.249878,0.501648,0.81604
109000869746,0.140137,0.250305,0.502319,0.815674
109000892773,0.139404,0.250732,0.502319,0.815613
109000913462,0.139404,0.251038,0.501709,0.815918
109000929848,0.140076,0.251587,0.50116,0.815979
109000952345,0.140808,0.25238,0.501099,0.815674
109000974792,0.141418,0.253113,0.501099,0.815308
109000989799,0.141174,0.253418,0.501099,0.815308
109001012341,0.140259,0.253235,0.50116,0.81543
109001034793,0.139526,0.252991,0.501465,0.81543
109001049826,0.139282,0.252991,0.501709,0.815308
109001072314,0.139038,0.253174,0.501892,0.815186
109001094827,0.138672,0.253235,0.502075,0.815186
109001109172,0.138,0.253052,0.502075,0.815308
109001132308,0.13739,0.252625,0.502136,0.815552
109001154794,0.137207,0.252197,0.502136,0.815674
109001169128,0.137573,0.251892,0.501892,0.815857
109001192358,0.138489,0.25177,0.501648,0.815918
109001214862,0.139587,0.252197,0.501526,0.815674
109001229150,0.139893,0.252502,0.501709,0.815369
109001259852,0.139587,0.252441,0.501831,0.815369
109001274821,0.138855,0.252075,0.50177,0.815674
109001289169,0.138428,0.251709,0.501709,0.815857
109001312367,0.138123,0.251587,0.50177,0.815918
109001334844,0.138123,0.251526,0.50177,0.815979
109001349184,0.138611,0.251587,0.501709,0.815918
109001372324,0.138794,0.251953,0.501587,0.815857
109001394816,0.138489,0.251953,0.501587,0.815857
109001409179,0.138489,0.251953,0.501587,0.815857
109001432343,0.138489,0.251953,0.501587,0.815857
109001454871,0.138672,0.251709,0.501709,0.815857
109001475962,0.139099,0.251099,0.501709,0.815918
109001492374,0.139282,0.249878,0.501648,0.816345
109001514772,0.139343,0.248413,0.501343,0.816956
109001536026,0.140381,0.247864,0.501282,0.816956
109001552304,0.141174,0.247559,0.501587,0.816772
109001574883,0.140991,0.246155,0.501831,0.817078
109001596007,0.140564,0.243958,0.501648,0.817932
109001612386,0.141296,0.24231,0.501343,0.818481
109001634863,0.143127,0.242065,0.501282,0.818237
109001655736,0.144775,0.24176,0.501343,0.818054
109001672421,0.145569,0.240662,0.50061,0.818665
109001694891,0.147156,0.239319,0.499573,0.819397
109001715931,0.150269,0.238953,0.498352,0.819702
109001739899,0.152832,0.23877,0.497559,0.819763
109001754852,0.155457,0.238647,0.497253,0.819458
109001775966,0.157532,0.238464,0.497009,0.819275
109001792402,0.158752,0.238281,0.49707,0.819031
109001814901,0.159302,0.237976,0.497437,0.818787
109001835954,0.159485,0.237427,0.497864,0.818665
109001852342,0.158875,0.236389,0.498108,0.81897
109001874840,0.158752,0.235229,0.497925,0.819397
109001897357,0.159058,0.234619,0.49762,0.819702
109001912361,0.159851,0.23468,0.497498,0.81958
109001934922,0.160706,0.235046,0.497559,0.819275
109001957452,0.161133,0.235535,0.497803,0.818909
109001972391,0.160645,0.235718,0.498108,0.818787
109001994927,0.15979,0.234741,0.498596,0.81897
109002017314,0.158813,0.232727,0.498962,0.819458
109002031630,0.158997,0.231445,0.499023,0.819763
109002054817,0.1604,0.231628,0.499023,0.819397
109002077483,0.161743,0.232483,0.499146,0.818848
109002091741,0.16272,0.233826,0.498962,0.81842
109002114840,0.162842,0.235474,0.498779,0.817993
109002137375,0.163025,0.238464,0.498474,0.817322
109002151776,0.16272,0.242004,0.497864,0.816711
109002174874,0.160767,0.243774,0.49823,0.816345
109002197405,0.15802,0.244141,0.499146,0.816162
109002211715,0.156738,0.244568,0.499878,0.815918
109002234877,0.156921,0.245056,0.5,0.815613
109002257345,0.156982,0.245544,0.499756,0.815613
109002271765,0.15625,0.245605,0.49939,0.815918
109002294833,0.155762,0.245789,0.499146,0.816162
109002317378,0.155762,0.24646,0.498962,0.81604
109002331692,0.155212,0.246948,0.499023,0.815979
109002354846,0.15448,0.246948,0.499146,0.81604
109002377394,0.153503,0.246582,0.499268,0.816223
109002398534,0.152649,0.246155,0.499512,0.816406
109002414878,0.15271,0.246399,0.499634,0.816223
109002437349,0.152588,0.246704,0.499817,0.81604
109002458630,0.152283,0.24707,0.499817,0.815979
109002474906,0.151489,0.247009,0.499756,0.816162
109002497345,0.150818,0.246765,0.499756,0.816406
109002518566,0.15094,0.246948,0.499634,0.816406
109002534942,0.151062,0.247314,0.499695,0.816223
109002557428,0.150879,0.247742,0.499756,0.816101
109002578443,0.15033,0.247864,0.499695,0.816162
109002594891,0.150269,0.247864,0.499695,0.816223
109002617399,0.150269,0.247925,0.499695,0.816162
109002638608,0.150269,0.247925,0.499695,0.816223
109002654867,0.150269,0.247864,0.499695,0.816223
109002677416,0.150452,0.247864,0.499634,0.816223
109002698632,0.150696,0.247925,0.499512,0.816223
109002714895,0.150879,0.248108,0.499268,0.816284
109002737339,0.150879,0.248108,0.499268,0.816284
109002758590,0.150879,0.248108,0.499268,0.816284
109002774936,0.150879,0.248108,0.499268,0.816284
109002797367,0.150879,0.248108,0.499268,0.816284
109002818596,0.150635,0.247864,0.499023,0.816589
109002834249,0.150818,0.247498,0.498718,0.816833
109002857387,0.15155,0.247559,0.498535,0.816772
109002879923,0.152344,0.247803,0.498291,0.816711
109002894878,0.152893,0.247925,0.498108,0.816711
109002917399,0.153259,0.247986,0.497986,0.81665
109002939875,0.153503,0.247925,0.497864,0.816711
109002954854,0.153503,0.24762,0.497681,0.816895
109002977432,0.153564,0.247253,0.497681,0.817017
109002999918,0.153992,0.247009,0.497681,0.816956
109003014320,0.154663,0.247314,0.497498,0.816895
109003037428,0.155029,0.247375,0.497314,0.816895
109003059916,0.155212,0.247253,0.497375,0.816895
109003074224,0.155762,0.247498,0.497375,0.816711
109003097364,0.156677,0.248047,0.497131,0.816528
109003127375,0.158203,0.24884,0.496826,0.816162
109003134213,0.159729,0.249695,0.496643,0.815674
109003157450,0.160767,0.249878,0.496521,0.815491
109003179914,0.16156,0.249634,0.496399,0.815491
109003194323,0.162354,0.249207,0.496338,0.815552
109003217448,0.163513,0.249023,0.496155,0.81543
109003239922,0.165039,0.249207,0.495911,0.815247
109003262390,0.166809,0.249756,0.495544,0.814941
109003277395,0.169189,0.250427,0.495178,0.814453
109003299920,0.171936,0.25061,0.494629,0.814209
109003321024,0.175232,0.250549,0.49353,0.814148
109003337427,0.178589,0.249939,0.492249,0.814392
109003359873,0.182129,0.248962,0.491272,0.814514
109003381041,0.186035,0.248291,0.490295,0.814392
109003403616,0.18988,0.247803,0.489319,0.81427
109003419962,0.192871,0.247437,0.488037,0.814453
109003440983,0.194763,0.246582,0.487122,0.814758
109003457395,0.195435,0.245728,0.486633,0.815186
109003479969,0.195312,0.245056,0.486511,0.815491
109003500983,0.194763,0.244385,0.486633,0.815735
109003517420,0.193481,0.243286,0.486816,0.816284
109003539925,0.191589,0.242004,0.487183,0.816833
109003561060,0.189453,0.241089,0.487671,0.817322
109003577467,0.187073,0.240356,0.48822,0.817749
109003599958,0.184265,0.239502,0.488708,0.818359
109003620957,0.181152,0.238159,0.489014,0.819275
109003637442,0.17804,0.236755,0.489014,0.820374
109003659924,0.175476,0.235962,0.489075,0.821106
109003682445,0.173096,0.235596,0.489258,0.821594
109003697488,0.171082,0.235168,0.489807,0.821838
109003719978,0.168457,0.23468,0.49115,0.821716
109003741089,0.167786,0.235535,0.49231,0.820923
109003757442,0.167664,0.236938,0.49353,0.819824
109003779983,0.164551,0.23645,0.495483,0.819397
109003802438,0.1604,0.235291,0.497864,0.819092
109003816795,0.156616,0.234802,0.500061,0.818604
109003839995,0.151672,0.234802,0.502014,0.818359
109003862474,0.14502,0.232971,0.503906,0.818909
109003876752,0.137817,0.229614,0.50647,0.81958
109003900065,0.13208,0.227051,0.508606,0.819885
109003922415,0.128113,0.225159,0.510559,0.819824
109003936772,0.125488,0.223694,0.512329,0.819519
109003960389,0.122742,0.222717,0.513672,0.819397
109003982443,0.119873,0.222351,0.514832,0.819153
109003996770,0.116638,0.222961,0.516052,0.818726
109004020005,0.114197,0.224976,0.517029,0.817871
109004042443,0.110046,0.22583,0.5177,0.817749
109004063641,0.106323,0.224731,0.517944,0.81842
109004079914,0.10614,0.22522,0.518127,0.818176
109004102419,0.106812,0.226135,0.517639,0.818176
109004123490,0.106323,0.22406,0.517578,0.818848
109004139929,0.106873,0.219238,0.517334,0.820251
109004162385,0.110107,0.21637,0.516052,0.82135
109004183490,0.116211,0.217651,0.514404,0.821228
109004199684,0.121338,0.22052,0.512695,0.820801
109004222439,0.124023,0.221375,0.510742,0.82135
109004244935,0.12677,0.220154,0.508972,0.822388
109004259934,0.13208,0.220337,0.506836,0.822815
109004282416,0.138916,0.221375,0.505066,0.82251
109004303400,0.145569,0.221375,0.503784,0.822144
109004310293,0.1521,0.220581,0.502747,0.821777
109004325321,0.158081,0.220093,0.502136,0.821167
109004347809,0.163513,0.220032,0.502075,0.82019
109004370336,0.167358,0.219849,0.502197,0.819397
109004385301,0.170532,0.219666,0.502258,0.818726
109004407806,0.172241,0.219116,0.502136,0.818542
109004439248,0.172424,0.21814,0.502136,0.818787
109004445292,0.17218,0.217834,0.502197,0.818909
109004467825,0.172241,0.218933,0.502441,0.81842
109004490378,0.171814,0.220459,0.502686,0.817932
109004512827,0.171021,0.221741,0.502747,0.817749
109004528008,0.1698,0.222595,0.502625,0.817871
109004550335,0.168518,0.223022,0.502686,0.817932
109004565356,0.168274,0.223877,0.502869,0.817627
109004587868,0.16864,0.22522,0.503052,0.817078
109004610339,0.168762,0.226074,0.503174,0.816772
109004625503,0.168213,0.225708,0.503235,0.816956
109004647845,0.167908,0.225098,0.503052,0.817261
109004670394,0.168762,0.224976,0.502869,0.817261
109004685367,0.170959,0.225525,0.502747,0.816711
109004707819,0.173889,0.226562,0.50238,0.816101
109004730520,0.175598,0.226929,0.50177,0.815979
109004745335,0.176086,0.226501,0.500793,0.816589
109004767801,0.176025,0.225708,0.499817,0.817383
109004791820,0.17688,0.225098,0.498901,0.817932
109004805310,0.178406,0.225098,0.497864,0.818237
109004827898,0.180237,0.225342,0.496521,0.818604
109004850328,0.182129,0.226257,0.494751,0.81897
109004865346,0.183411,0.227539,0.492493,0.819702
109004888047,0.183899,0.22876,0.489624,0.820984
109004910330,0.183838,0.229614,0.485718,0.823059
109004925377,0.184509,0.230103,0.481628,0.825195
109004950743,0.188538,0.230408,0.477112,0.826782
109004970395,0.196411,0.22876,0.4729,0.827881
109004985328,0.207214,0.220032,0.473083,0.827515
109005007887,0.223999,0.212585,0.470581,0.826477
109005030505,0.24585,0.208435,0.470459,0.82135
109005046087,0.265076,0.199707,0.471313,0.817078
109005067817,0.27655,0.182678,0.472229,0.816711
109005090381,0.281921,0.161255,0.473633,0.818604
109005105336,0.286011,0.138367,0.475281,0.820435
109005127880,0.293396,0.117188,0.476257,0.820496
109005150397,0.303955,0.0983276,0.477356,0.818542
109005165342,0.316528,0.0811157,0.478088,0.815186
109005187868,0.329529,0.0650024,0.477966,0.811584
109005210365,0.342285,0.0504761,0.476929,0.807922
109005225358,0.355469,0.0401001,0.474365,0.804321
109005248583,0.367798,0.0333862,0.470459,0.801392
109005270349,0.378784,0.0308228,0.464294,0.799927
109005285507,0.387573,0.0332642,0.455444,0.80072
109005307857,0.395569,0.0418091,0.444702,0.802429
109005330361,0.401917,0.0554199,0.43219,0.805298
109005346959,0.404724,0.0738525,0.419312,0.809204
109005367847,0.402832,0.0993042,0.406372,0.814026
109005390572,0.39978,0.136108,0.391418,0.817505
109005406871,0.39325,0.179871,0.37262,0.820984
109005427934,0.382385,0.220947,0.355042,0.823914
109005450512,0.378235,0.256287,0.341614,0.821228
109005466809,0.376038,0.282959,0.331177,0.817749
109005487950,0.369629,0.296204,0.324036,0.818848
109005510354,0.357544,0.291504,0.325867,0.825195
109005526853,0.35022,0.278198,0.333557,0.829773
109005548061,0.352478,0.263672,0.341064,0.830566
109005570458,0.356873,0.248169,0.34906,0.830139
109005588488,0.356445,0.22998,0.358337,0.831604
109005607881,0.353394,0.208496,0.367676,0.834473
109005630362,0.351257,0.18512,0.37738,0.836548
109005648477,0.352173,0.160339,0.388062,0.836426
109005667836,0.352661,0.133667,0.399597,0.835449
109005690509,0.350586,0.104492,0.411682,0.834656
109005708515,0.347229,0.0743408,0.422729,0.83374
109005727857,0.344788,0.0464478,0.432129,0.831909
109005750407,0.344116,0.0214844,0.439941,0.829163
109005768330,0.347107,0.00384521,0.445679,0.825073
109005788036,0.351807,-0.00866699,0.450073,0.820679
109005810448,0.357117,-0.0168457,0.452148,0.817078
109005828294,0.360413,-0.0212402,0.452576,0.815308
109005848043,0.360535,-0.0220947,0.452637,0.815186
109005871117,0.358459,-0.0189209,0.45282,0.816101
109005893718,0.354492,-0.0128784,0.45343,0.817627
109005907877,0.349854,-0.00274658,0.453491,0.819641
109005930436,0.350708,0.00823975,0.451477,0.820374
109005945564,0.349731,0.0186768,0.449036,0.82196
109005967886,0.349121,0.0230713,0.447205,0.823059
109005990479,0.351685,0.0294189,0.443176,0.823975
109006005371,0.356323,0.0402222,0.437561,0.824524
109006027886,0.360779,0.0540771,0.431946,0.824768
109006059349,0.36084,0.0633545,0.428528,0.825867
109006065413,0.362183,0.0703125,0.425049,0.826538
109006088497,0.360474,0.0734253,0.42334,0.827881
109006110650,0.358826,0.0756836,0.422363,0.828857
109006125403,0.357788,0.0767212,0.421997,0.829407
109006147961,0.35791,0.0774536,0.422058,0.829285
109006170394,0.358276,0.0775146,0.421936,0.829163
109006185406,0.355042,0.0717773,0.424011,0.829956
109006208001,0.35376,0.0679932,0.425049,0.830322
109006224338,0.350464,0.069397,0.424316,0.83197
109006245330,0.347351,0.0692749,0.4245,0.833252
109006267897,0.348755,0.06427,0.42572,0.832397
109006284346,0.346863,0.0695801,0.423889,0.833679
109006305482,0.3479,0.0653687,0.424866,0.83313
109006327883,0.344482,0.0686646,0.42395,0.834717
109006344347,0.346008,0.0679321,0.423767,0.834229
109006365540,0.34314,0.0669556,0.424316,0.835205
109006387914,0.345459,0.0714111,0.42218,0.835022
109006404334,0.343872,0.0678101,0.423462,0.835327
109006425379,0.344788,0.0750732,0.420715,0.835693
109006447889,0.34436,0.0690308,0.422852,0.835327
109006464427,0.343933,0.0767822,0.420105,0.836243
109006486834,0.345642,0.0723267,0.421387,0.835266
109006508060,0.343506,0.0773315,0.419922,0.836426
109006524457,0.345215,0.0756836,0.420105,0.835754
109006546860,0.344055,0.0782471,0.419495,0.836304
109006567896,0.343689,0.0787964,0.419312,0.836487
109006584406,0.343872,0.0793457,0.41925,0.836426
109006606850,0.344116,0.0796509,0.418945,0.836426
109006628197,0.343689,0.0797119,0.41864,0.836792
109006644364,0.34314,0.0794678,0.418457,0.837097
109006666858,0.342773,0.0789795,0.418457,0.83728
109006687944,0.342712,0.0786133,0.418457,0.837402
109006704373,0.342224,0.0782471,0.418213,0.837708
109006734417,0.341309,0.0776978,0.417969,0.838257
109006747931,0.340576,0.0771484,0.41803,0.838562
109006765876,0.340454,0.0771484,0.418091,0.838623
109006787548,0.340332,0.0772095,0.418152,0.838623
109006810033,0.339905,0.0770874,0.418213,0.838745
109006824439,0.339294,0.0767212,0.418152,0.83905
109006847565,0.338623,0.076416,0.418152,0.839355
109006870078,0.338257,0.0762939,0.418335,0.839417
109006884416,0.338562,0.0767212,0.418457,0.839233
109006907542,0.338379,0.0770264,0.41864,0.839172
109006930074,0.337891,0.0772705,0.41864,0.839355
109006944397,0.337402,0.0775146,0.41864,0.839539
109006967597,0.336975,0.0778198,0.418701,0.839661
109006990092,0.33667,0.078125,0.418823,0.839661
109007011107,0.336426,0.0784302,0.418884,0.839722
109007027571,0.335938,0.0785522,0.418823,0.839905
109007050078,0.335388,0.0786743,0.418762,0.840149
109007064396,0.334961,0.0788574,0.418884,0.840271
109007087592,0.334961,0.0793457,0.418762,0.840271
109007110032,0.335022,0.0796509,0.418579,0.840271
109007131238,0.335144,0.0800171,0.418457,0.840271
109007147521,0.334839,0.0803223,0.418396,0.840393
109007170024,0.334778,0.0807495,0.418335,0.840393
109007191223,0.334656,0.0811768,0.418213,0.840454
109007207509,0.334473,0.081543,0.418152,0.840576
109007230055,0.334351,0.0817261,0.418091,0.840576
109007251120,0.334229,0.0819092,0.418091,0.840637
109007268657,0.334167,0.0820312,0.417969,0.840698
109007290131,0.334106,0.0821533,0.417725,0.84082
109007312517,0.334045,0.0822144,0.417603,0.840942
109007327572,0.334106,0.0824585,0.41748,0.840942
109007350012,0.33429,0.0828247,0.417358,0.840881
109007371116,0.334412,0.0831299,0.417419,0.840759
109007387595,0.334473,0.0831299,0.417419,0.840759
109007410015,0.334351,0.0831909,0.41748,0.840759
109007431184,0.33374,0.0830688,0.417603,0.840942
109007447619,0.33374,0.0830078,0.417664,0.840942
109007470067,0.333984,0.083313,0.417786,0.840759
109007491209,0.334839,0.0841675,0.41803,0.84021
109007507557,0.334961,0.0847168,0.418457,0.839905
109007530069,0.334839,0.085083,0.418701,0.839783
109007552554,0.334595,0.085144,0.41864,0.839905
109007567505,0.333435,0.085083,0.418701,0.840332
109007590027,0.332642,0.0852051,0.419006,0.840515
109007612589,0.332458,0.0855713,0.419312,0.840393
109007626928,0.332642,0.0860596,0.419617,0.840088
109007650079,0.333069,0.0869141,0.419861,0.839722
109007672568,0.333679,0.0878296,0.419922,0.839355
109007687603,0.33429,0.088501,0.4198,0.839111
109007710109,0.333923,0.088562,0.419678,0.839294
109007732574,0.332825,0.0882568,0.4198,0.839722
109007746920,0.332153,0.0884399,0.419861,0.839905
109007770515,0.33252,0.0889282,0.420227,0.839539
109007792592,0.332886,0.0891113,0.421021,0.838989
109007806918,0.332581,0.0888672,0.421631,0.838806
109007829998,0.332336,0.088501,0.421936,0.838806
109007852661,0.33197,0.0881958,0.42218,0.838867
109007866955,0.331238,0.0875854,0.422546,0.83905
109007890030,0.330872,0.0872803,0.422852,0.83905
109007912583,0.330872,0.0872803,0.423157,0.838867
109007926915,0.330994,0.0875244,0.423645,0.838562
109007950107,0.331299,0.0880737,0.423645,0.838379
109007972603,0.330872,0.0884399,0.423584,0.838562
109007986928,0.329773,0.0884399,0.423706,0.838928
109008010162,0.328918,0.088623,0.423889,0.839172
109008032645,0.328735,0.0891113,0.423889,0.839172
109008046971,0.328796,0.0897827,0.423706,0.839172
109008070097,0.328918,0.090332,0.423523,0.839172
109008092610,0.329041,0.0908813,0.42334,0.839172
109008121132,0.329102,0.0911865,0.423279,0.839111
109008130047,0.32843,0.0910645,0.423279,0.839417
109008152697,0.328247,0.0911255,0.423035,0.8396
109008173667,0.328613,0.0918579,0.422791,0.839478
109008191839,0.328796,0.0924072,0.422791,0.839355
109008212612,0.328491,0.0927734,0.422791,0.839417
109008233666,0.328003,0.0928955,0.422668,0.839661
109008250151,0.327576,0.0930786,0.422424,0.839966
109008272621,0.327209,0.0933228,0.42218,0.840149
109008293376,0.326904,0.0936279,0.42218,0.840271
109008310058,0.326538,0.0939331,0.422058,0.840393
109008332580,0.326111,0.0940552,0.421814,0.840698
109008353802,0.325928,0.0942993,0.421631,0.84082
109008370572,0.32605,0.0951538,0.421265,0.840881
109008394788,0.325562,0.0957031,0.420837,0.841187
109008413804,0.324951,0.0962524,0.420532,0.841553
109008430081,0.324097,0.0964355,0.42041,0.841919
109008452620,0.323792,0.0968018,0.420166,0.842102
109008473668,0.323853,0.097168,0.419861,0.842163
109008496124,0.32428,0.0978394,0.419678,0.842041
109008512650,0.324402,0.0983887,0.419617,0.84198
109008535102,0.324219,0.0983887,0.419434,0.842102
109008550163,0.323242,0.0978394,0.41925,0.842651
109008572692,0.322876,0.0977783,0.418701,0.843079
109008596333,0.323914,0.0985107,0.418091,0.842896
109008610197,0.324463,0.0992432,0.417908,0.842712
109008632596,0.32489,0.0991211,0.417725,0.84259
109008655045,0.324463,0.098999,0.417664,0.842834
109008676159,0.323059,0.098938,0.417725,0.843323
109008692624,0.323303,0.0991211,0.417419,0.843384
109008715164,0.32428,0.0992432,0.416443,0.843506
109008729484,0.325073,0.0991211,0.415955,0.843445
109008752632,0.326843,0.0999146,0.417114,0.842102
109008775149,0.327271,0.101135,0.418091,0.841309
109008789463,0.326477,0.0991821,0.417053,0.842346
109008812728,0.325928,0.0944214,0.413269,0.84491
109008835104,0.323669,0.0906372,0.412598,0.846558
109008856388,0.326599,0.0905762,0.413757,0.84491
109008872751,0.335083,0.0938721,0.412048,0.842041
109008895097,0.337952,0.0945435,0.410522,0.841553
109008916304,0.334778,0.0916138,0.409058,0.843872
109008932651,0.329956,0.0882568,0.408325,0.846436
109008955183,0.330627,0.0878906,0.40802,0.846375
109008976208,0.336731,0.090271,0.407104,0.844177
109008992590,0.340698,0.092041,0.406189,0.842834
109009015170,0.338989,0.0911255,0.406128,0.843628
109009036147,0.336182,0.0898438,0.406006,0.844971
109009052628,0.3349,0.0889282,0.406311,0.845398
109009082582,0.336609,0.0894165,0.406311,0.844666
109009096169,0.3396,0.090332,0.406372,0.843384
109009112812,0.340942,0.0911865,0.406494,0.842651
109009135141,0.339172,0.0908203,0.406555,0.843384
109009156305,0.336609,0.0898438,0.406799,0.844421
109009172695,0.3349,0.0892334,0.406311,0.845398
109009195511,0.33551,0.0897217,0.40509,0.845642
109009216399,0.338867,0.092041,0.40448,0.844421
109009232690,0.341919,0.093811,0.404297,0.843079
109009255161,0.347534,0.0958252,0.402771,0.841248
109009277717,0.349121,0.0978394,0.403381,0.840088
109009292638,0.345886,0.0994873,0.40625,0.839844
109009315218,0.340759,0.100098,0.408936,0.840576
109009339068,0.334839,0.100769,0.412048,0.841309
109009351930,0.330444,0.102844,0.414978,0.84137
109009375235,0.326843,0.104309,0.417725,0.841248
109009403725,0.324463,0.10614,0.420532,0.840515
109009411943,0.322449,0.107849,0.422974,0.839844
109009435185,0.320618,0.109497,0.424927,0.839355
109009457705,0.319946,0.110901,0.42627,0.838745
109009478851,0.320984,0.112854,0.427307,0.837524
109009495166,0.323669,0.115295,0.427917,0.835938
109009517627,0.326843,0.117859,0.428101,0.834229
109009538777,0.330322,0.120728,0.428345,0.832336
109009555145,0.334167,0.124695,0.428345,0.8302
109009583764,0.337158,0.12854,0.428101,0.828491
109009592020,0.338745,0.131531,0.428162,0.827332
109009615535,0.339661,0.134216,0.42865,0.826294
109009637728,0.340759,0.137268,0.428955,0.825195
109009651967,0.342285,0.140808,0.428894,0.823975
109009675278,0.343201,0.144043,0.429443,0.822815
109009697657,0.343506,0.146606,0.430603,0.821594
109009711944,0.343567,0.148743,0.432312,0.820251
109009735230,0.343445,0.150635,0.434204,0.81897
109009757635,0.343384,0.152405,0.436035,0.817688
109009778703,0.342529,0.154297,0.437805,0.816772
109009795181,0.34137,0.156372,0.439331,0.81604
109009817934,0.341248,0.158325,0.440735,0.814941
109009838841,0.341797,0.161011,0.442139,0.813416
109009855151,0.341553,0.164246,0.443542,0.812134
109009877756,0.34082,0.167419,0.445068,0.810913
109009898734,0.340637,0.170898,0.446594,0.809448
109009915332,0.34021,0.174438,0.447693,0.808228
109009937754,0.338989,0.17688,0.44873,0.807678
109009958728,0.338257,0.178528,0.450439,0.806702
109009975321,0.339111,0.180481,0.452393,0.804749
109009997663,0.340942,0.182373,0.453796,0.802795
109010020188,0.342102,0.183228,0.454407,0.801758
109010035200,0.342224,0.1828,0.455078,0.801392
109010065163,0.34314,0.182434,0.456116,0.800537
109010078839,0.346436,0.183044,0.456848,0.798523
109010095182,0.35083,0.183594,0.456909,0.796448
109010117634,0.354797,0.183838,0.456177,0.795044
109010138787,0.358459,0.184265,0.454712,0.794128
109010155234,0.363037,0.184998,0.453491,0.792603
109010177668,0.36792,0.186157,0.452393,0.790649
109010198859,0.371094,0.187134,0.451172,0.789673
109010215182,0.37262,0.187073,0.44989,0.789734
109010237666,0.373901,0.189148,0.448608,0.789368
109010258751,0.37616,0.192932,0.447876,0.787781
109010275186,0.378967,0.196167,0.447571,0.785767
109010297689,0.381653,0.197693,0.447388,0.784241
109010318728,0.385254,0.198181,0.447021,0.782532
109010342730,0.390137,0.198486,0.446594,0.780273
109010357692,0.395569,0.198792,0.446045,0.777771
109010378751,0.399841,0.19873,0.445557,0.775879
109010394560,0.402161,0.197937,0.444946,0.775269
109010417683,0.403259,0.196838,0.444031,0.775452
109010440230,0.403931,0.196289,0.442688,0.776062
109010454572,0.404114,0.196106,0.44104,0.776978
109010477732,0.40387,0.196289,0.439453,0.777893
109010500195,0.403015,0.196472,0.438538,0.778809
109010515174,0.401855,0.196472,0.438354,0.779541
109010537689,0.400085,0.196045,0.438965,0.780151
109010560276,0.39801,0.195251,0.439941,0.780884
109010574532,0.396057,0.194275,0.441101,0.781494
109010597712,0.39447,0.193359,0.442261,0.78186
109010620141,0.393005,0.192566,0.443481,0.782104
109010634532,0.391602,0.191711,0.444641,0.782349
109010657744,0.39032,0.190857,0.44574,0.782593
109010680134,0.389404,0.190491,0.446594,0.782654
109010694629,0.388916,0.190063,0.447021,0.782776
109010717723,0.388428,0.189453,0.44696,0.783142
109010740222,0.388,0.188721,0.446655,0.783752
109010754565,0.388245,0.188171,0.44635,0.783936
109010777770,0.387756,0.187744,0.446411,0.784241
109010800215,0.388672,0.187805,0.446106,0.783936
109010814515,0.389587,0.188599,0.445374,0.783691
109010837723,0.387146,0.187378,0.446289,0.784668
109010860277,0.388123,0.187866,0.447327,0.783508
109010865555,0.388062,0.186707,0.447144,0.783875
109010897103,0.38855,0.186218,0.446045,0.784424
109010903139,0.388123,0.186462,0.446106,0.784485
109010925548,0.388184,0.187439,0.446777,0.783875
109010948183,0.388916,0.186951,0.446777,0.78363
109010963136,0.388489,0.18573,0.446411,0.784363
109010985579,0.387024,0.184937,0.446228,0.785339
109011008245,0.389099,0.185425,0.445862,0.784424
109011025979,0.39093,0.186707,0.445862,0.783203
109011045686,0.390869,0.186401,0.445251,0.78363
109011068110,0.390503,0.185059,0.444519,0.784546
109011083052,0.391357,0.184937,0.444092,0.784424
109011105788,0.393188,0.185669,0.443787,0.783508
109011128086,0.394409,0.185425,0.443604,0.78302
109011143110,0.394043,0.183899,0.443237,0.783813
109011165715,0.396423,0.184204,0.4422,0.783142
109011182029,0.398987,0.185425,0.441956,0.781677
109011203254,0.399719,0.186218,0.442139,0.781006
109011225609,0.398254,0.18512,0.442078,0.782043
109011242153,0.396057,0.182922,0.441711,0.783875
109011263388,0.397278,0.182434,0.441284,0.78363
109011285606,0.399231,0.183105,0.441284,0.782471
109011302095,0.400208,0.18335,0.441284,0.78186
109011323290,0.400024,0.182678,0.441467,0.782043
109011345990,0.399292,0.181946,0.441772,0.782471
109011363625,0.39978,0.182068,0.441772,0.782166
109011383126,0.399353,0.182678,0.442017,0.782104
109011405650,0.398315,0.182556,0.442444,0.78241
109011431026,0.397583,0.181396,0.442444,0.78302
109011450610,0.398376,0.180786,0.441711,0.783203
109011465878,0.402832,0.181885,0.440186,0.781555
109011488127,0.406921,0.185303,0.43988,0.778809
109011503189,0.407043,0.187073,0.440308,0.778015
109011525783,0.404358,0.185791,0.441406,0.779114
109011549654,0.401672,0.183716,0.442078,0.78064
109011563242,0.399963,0.183044,0.441467,0.781982
109011585738,0.400818,0.183777,0.44043,0.781982
109011603562,0.402527,0.185486,0.439758,0.781067
109011623120,0.403076,0.187073,0.439209,0.780701
109011645621,0.402588,0.187622,0.438721,0.781128
109011663602,0.401245,0.187683,0.43866,0.781799
109011683118,0.40094,0.188171,0.43927,0.781494
109011707081,0.401062,0.189392,0.440125,0.780701
109011723638,0.399231,0.189697,0.44104,0.781067
109011743172,0.396301,0.189087,0.441956,0.782166
109011765761,0.393372,0.187927,0.442932,0.783386
109011783523,0.390869,0.187317,0.443909,0.78418
109011803107,0.389465,0.187744,0.444641,0.784424
109011825845,0.388245,0.188538,0.445251,0.784424
109011843592,0.386414,0.188843,0.445801,0.784973
109011863163,0.384094,0.188538,0.446655,0.785706
109011887125,0.382202,0.188477,0.44751,0.786133
109011903536,0.380981,0.189026,0.448059,0.786255
109011923154,0.379822,0.189392,0.448364,0.78656
109011953172,0.378723,0.189026,0.448669,0.787048
109011963576,0.377747,0.18866,0.449097,0.787354
109011984599,0.377319,0.188477,0.449707,0.787231
109012008599,0.377502,0.188782,0.450073,0.786865
109012023609,0.377991,0.188721,0.450317,0.786499
109012044610,0.378601,0.188232,0.450439,0.786255
109012065616,0.378967,0.187439,0.4505,0.786255
109012083598,0.379517,0.186829,0.450562,0.786072
109012104614,0.38031,0.186646,0.450439,0.785828
109012125650,0.381042,0.186646,0.450317,0.785522
109012143623,0.381714,0.186462,0.450195,0.785339
109012164535,0.382202,0.18634,0.450073,0.785217
109012185674,0.382507,0.186584,0.44989,0.785095
109012203573,0.382935,0.186768,0.449829,0.784851
109012224597,0.382996,0.186768,0.449829,0.784851
109012245675,0.382629,0.186462,0.44989,0.785034
109012265416,0.382324,0.186279,0.450134,0.785095
109012284594,0.382019,0.18634,0.4505,0.785034
109012305696,0.381592,0.186279,0.450928,0.785034
109012323584,0.381165,0.186157,0.451294,0.785034
109012346098,0.38092,0.186279,0.451416,0.785034
109012368579,0.380737,0.186401,0.451538,0.785034
109012383790,0.380249,0.18634,0.451843,0.785156
109012406005,0.379944,0.186218,0.452087,0.785156
109012425763,0.379822,0.186462,0.452332,0.785034
109012443717,0.379578,0.186584,0.452454,0.785034
109012470702,0.379333,0.186646,0.452454,0.785156
109012485717,0.379028,0.186584,0.452454,0.785278
109012503552,0.379028,0.186584,0.452454,0.785278
109012526099,0.379028,0.186523,0.452454,0.785278
109012545818,0.379272,0.186707,0.452637,0.785034
109012563563,0.379272,0.186707,0.452637,0.785034
109012586140,0.378967,0.186462,0.452637,0.785217
109012605665,0.378784,0.18634,0.452698,0.785339
109012623543,0.378784,0.18634,0.452698,0.785339
109012646273,0.378784,0.186401,0.45282,0.785217
109012665686,0.378784,0.186401,0.45282,0.785217
109012683711,0.378784,0.186401,0.45282,0.785217
109012706159,0.378784,0.186401,0.45282,0.785217
109012725674,0.37854,0.18634,0.452942,0.785278
109012743643,0.378357,0.18634,0.453003,0.785339
109012766069,0.378357,0.18634,0.453003,0.7854
109012788699,0.378357,0.18634,0.453003,0.7854
109012803554,0.378357,0.18634,0.453003,0.7854
109012826100,0.378296,0.186279,0.453003,0.7854
109012845903,0.378357,0.186279,0.453003,0.7854
109012869651,0.378357,0.186279,0.453003,0.7854
109012886121,0.378113,0.18634,0.452942,0.785522
109012907154,0.37793,0.186157,0.45282,0.785706
109012923649,0.377563,0.186035,0.45282,0.78595
109012946283,0.377563,0.186035,0.45282,0.78595
109012967078,0.377563,0.186035,0.45282,0.78595
109012983678,0.377563,0.186035,0.45282,0.78595
109013006132,0.377563,0.185974,0.45282,0.78595
109013027096,0.37738,0.185913,0.452759,0.786072
109013043764,0.37738,0.185852,0.45282,0.786072
109013066096,0.377747,0.187012,0.452332,0.785889
109013087147,0.376221,0.18634,0.452759,0.786499
109013103656,0.375793,0.185425,0.453247,0.786682
109013125283,0.37677,0.185547,0.452759,0.786438
109013146416,0.377319,0.185913,0.452393,0.786316
109013162793,0.376282,0.185486,0.45282,0.786682
109013185032,0.376526,0.184448,0.452759,0.786865
109013206452,0.378662,0.184509,0.451782,0.786377
109013222751,0.379578,0.185059,0.450989,0.786255
109013245445,0.382324,0.187134,0.449219,0.785461
109013267801,0.384521,0.187805,0.44928,0.784119
109013283820,0.387939,0.188354,0.449402,0.782288
109013305410,0.389038,0.188538,0.449036,0.78186
109013327792,0.389954,0.189453,0.448914,0.78125
109013342196,0.389587,0.189331,0.449097,0.781433
109013365304,0.390564,0.189392,0.449097,0.780884
109013394049,0.389954,0.189636,0.449585,0.780884
109013402873,0.388977,0.189209,0.449768,0.781311
109013425284,0.389038,0.189087,0.449585,0.781433
109013447885,0.389282,0.188904,0.449036,0.781677
109013462184,0.39032,0.188843,0.448608,0.781433
109013492982,0.391113,0.188904,0.448547,0.781067
109013507815,0.391785,0.188599,0.448792,0.78064
109013522139,0.391663,0.187744,0.448547,0.781067
109013545361,0.393188,0.18689,0.447998,0.780823
109013567845,0.395264,0.187073,0.447998,0.779724
109013583133,0.396729,0.187256,0.447998,0.778931
109013605358,0.396423,0.186768,0.448059,0.779175
109013627843,0.394775,0.185242,0.447754,0.780518
109013642231,0.394714,0.184143,0.447083,0.781189
109013672804,0.397156,0.184509,0.446899,0.779968
109013688504,0.39801,0.184998,0.447266,0.779236
109013702228,0.397583,0.184143,0.44751,0.77948
109013726779,0.39624,0.182861,0.44751,0.780518
109013754064,0.394653,0.18158,0.447266,0.781738
109013768899,0.395691,0.181946,0.446594,0.781494
109013785309,0.398193,0.183777,0.446411,0.779907
109013807883,0.399719,0.184631,0.447144,0.778564
109013828839,0.400513,0.184814,0.447815,0.777649
109013845370,0.398926,0.183411,0.44873,0.77832
109013867861,0.396423,0.182007,0.449768,0.779297
109013888990,0.39502,0.182434,0.450134,0.779724
109013906798,0.392578,0.182495,0.451111,0.780334
109013927793,0.391174,0.182617,0.452759,0.78009
109013948901,0.390442,0.1828,0.453186,0.780151
109013965359,0.389038,0.182556,0.452515,0.781311
109013988534,0.386108,0.181885,0.452271,0.783081
109014009047,0.383484,0.181946,0.452393,0.784302
109014025415,0.381775,0.182495,0.452393,0.784973
109014047857,0.38092,0.183044,0.452209,0.785339
109014068960,0.381958,0.183472,0.451965,0.784912
109014085307,0.382935,0.183533,0.451599,0.784668
109014107889,0.383301,0.18335,0.451416,0.784607
109014128944,0.384033,0.183167,0.45105,0.784485
109014145318,0.384583,0.183838,0.450134,0.784607
109014167896,0.385254,0.184387,0.449341,0.784546
109014188891,0.385498,0.184875,0.44873,0.784668
109014205307,0.38446,0.184692,0.448547,0.785339
109014227947,0.384155,0.184937,0.449036,0.785156
109014250383,0.384216,0.185486,0.449768,0.784607
109014279104,0.383484,0.185669,0.450012,0.784729
109014287800,0.381653,0.184998,0.450073,0.785767
109014310369,0.380371,0.184326,0.450378,0.786377
109014325334,0.379944,0.184448,0.450684,0.786377
109014347868,0.379944,0.185059,0.45105,0.786011
109014370405,0.379761,0.185364,0.451477,0.785828
109014384700,0.379456,0.185303,0.451599,0.785889
109014408584,0.379028,0.185181,0.451538,0.786194
109014430369,0.379028,0.185181,0.451538,0.786194
109014444715,0.378906,0.185303,0.451599,0.786133
109014467871,0.37854,0.185364,0.451782,0.786194
109014490370,0.378235,0.185242,0.451965,0.786316
109014504661,0.378174,0.185242,0.451965,0.786316
109014527898,0.378174,0.185242,0.451965,0.786316
109014550342,0.378174,0.185242,0.451965,0.786316
109014571583,0.378357,0.185486,0.452087,0.786072
109014587854,0.378296,0.185608,0.452271,0.78595
109014611079,0.378052,0.185608,0.452393,0.786011
109014624722,0.377625,0.185303,0.452454,0.786255
109014647887,0.37738,0.185181,0.452454,0.786438
109014670492,0.37738,0.185181,0.452454,0.786438
109014691475,0.377258,0.185425,0.452698,0.786255
109014707837,0.377258,0.185425,0.452698,0.786255
109014730365,0.377258,0.185425,0.452698,0.786255
109014751387,0.377075,0.185425,0.452759,0.786377
109014767866,0.376831,0.185364,0.452881,0.786438
109014790395,0.376526,0.185364,0.453003,0.786499
109014811424,0.376526,0.185425,0.452942,0.786499
109014835421,0.376526,0.185425,0.452942,0.786499
109014850368,0.376343,0.185303,0.453125,0.786499
109014871534,0.376343,0.185303,0.453186,0.786499
109014887898,0.376343,0.185303,0.453186,0.786499
109014910410,0.376343,0.185242,0.453186,0.786499
109014931422,0.376343,0.185242,0.453186,0.786499
109014947692,0.376221,0.185242,0.452942,0.786682
109014970394,0.376221,0.185242,0.452942,0.786682
109014991507,0.37616,0.185303,0.452942,0.786682
109015007838,0.37616,0.185242,0.452942,0.786682
109015030435,0.376404,0.185364,0.452759,0.786682
109015058964,0.376648,0.185303,0.452698,0.786621
109015067849,0.376709,0.185303,0.452698,0.786621
109015090478,0.376648,0.185303,0.452698,0.786621
109015111458,0.376648,0.185303,0.452698,0.786621
109015128002,0.376709,0.185303,0.452698,0.786621
109015156445,0.376709,0.185242,0.452698,0.786621
109015172843,0.376709,0.185242,0.452698,0.786621
109015187924,0.376709,0.185242,0.452698,0.786621
109015210391,0.376892,0.185303,0.452759,0.786499
109015232990,0.376892,0.185303,0.452759,0.786499
109015247974,0.376892,0.185303,0.452759,0.786499
109015270377,0.376892,0.185242,0.452759,0.786499
109015292935,0.376892,0.185242,0.452759,0.786499
109015307277,0.376892,0.185303,0.452759,0.786438
109015330572,0.377075,0.185364,0.452759,0.786377
109015360384,0.377075,0.185364,0.452759,0.786377
109015367287,0.377136,0.185364,0.452759,0.786316
109015390606,0.377136,0.185364,0.452759,0.786316
109015412859,0.377136,0.185364,0.452759,0.786316
109015427317,0.377136,0.185364,0.452759,0.786316
109015450448,0.377197,0.185364,0.452759,0.786316
109015472883,0.377197,0.185364,0.452759,0.786316
109015487368,0.376892,0.185242,0.452637,0.78656
109015510421,0.376892,0.185242,0.452637,0.78656
109015539040,0.376892,0.185242,0.452637,0.786499
109015547375,0.376892,0.185181,0.452698,0.786499
109015570406,0.376892,0.185242,0.452515,0.786621
109015593087,0.376953,0.185364,0.452332,0.786682
109015613977,0.376953,0.185364,0.452332,0.786621
109015630427,0.377441,0.186157,0.452393,0.786194
109015652922,0.376953,0.186829,0.452515,0.786194
109015673922,0.372986,0.184692,0.453491,0.788025
109015690530,0.373291,0.183472,0.454529,0.787537
109015712946,0.377014,0.185059,0.453613,0.78595
109015733769,0.378662,0.187317,0.451965,0.785583
109015750463,0.379517,0.187256,0.450439,0.786072
109015778991,0.384338,0.187073,0.44928,0.784424
109015793917,0.387878,0.187256,0.448547,0.783081
109015810411,0.391174,0.18927,0.44696,0.78186
109015834060,0.390503,0.18988,0.446899,0.782043
109015853977,0.388306,0.188049,0.447388,0.783325
109015870404,0.38678,0.187012,0.447571,0.784241
109015892969,0.385315,0.186279,0.447998,0.784851
109015913997,0.386902,0.186462,0.448059,0.783997
109015930460,0.389709,0.188171,0.447998,0.782227
109015952945,0.390991,0.189209,0.447815,0.781494
109015975385,0.389282,0.187927,0.448059,0.782471
109015990521,0.386475,0.185608,0.447937,0.784485
109016012986,0.386475,0.184265,0.447266,0.785156
109016033932,0.389099,0.185852,0.447021,0.78363
109016049812,0.392578,0.187805,0.44696,0.781494
109016072964,0.393433,0.188171,0.446655,0.781128
109016095464,0.392334,0.186768,0.445801,0.782532
109016109792,0.391663,0.185059,0.44519,0.78363
109016132913,0.392822,0.184937,0.444824,0.783264
109016156923,0.395264,0.186157,0.444519,0.781921
109016171061,0.396362,0.186829,0.444397,0.78125
109016192956,0.396118,0.186523,0.444397,0.781494
109016215485,0.394958,0.185852,0.444458,0.782227
109016230423,0.393799,0.185547,0.444702,0.782715
109016252938,0.393677,0.18573,0.444946,0.782593
109016275447,0.393311,0.186035,0.44519,0.782532
109016289816,0.392761,0.185608,0.445496,0.782776
109016319060,0.3927,0.185486,0.445496,0.782776
109016335446,0.392456,0.185486,0.445557,0.782898
109016349819,0.3927,0.18634,0.445618,0.782593
109016372980,0.392456,0.187195,0.446167,0.782104
109016396868,0.390808,0.188049,0.447388,0.782104
109016416670,0.388367,0.187988,0.448181,0.782898
109016432934,0.385254,0.186401,0.448303,0.784668
109016455513,0.382874,0.184937,0.448181,0.786255
109016469846,0.383057,0.18512,0.447632,0.786438
109016493012,0.385315,0.186768,0.446899,0.7854
109016515493,0.387756,0.188599,0.446533,0.783936
109016529801,0.388794,0.189758,0.447144,0.782837
109016552942,0.38916,0.190002,0.44751,0.782349
109016575586,0.388428,0.188965,0.447388,0.78302
109016589789,0.387268,0.188171,0.447144,0.783936
109016613098,0.385864,0.1875,0.447021,0.784851
109016636084,0.385925,0.187927,0.447632,0.784363
109016656627,0.386597,0.188965,0.448608,0.783264
109016679004,0.386292,0.189331,0.449341,0.782898
109016695434,0.384827,0.188477,0.449524,0.783691
109016716380,0.382751,0.187073,0.449402,0.785095
109016732948,0.381775,0.186584,0.449402,0.785767
109016755508,0.381775,0.187561,0.448975,0.785767
109016776713,0.38147,0.188049,0.449646,0.7854
109016792925,0.381165,0.18811,0.450745,0.784851
109016815546,0.380737,0.187744,0.451294,0.784851
109016836532,0.380066,0.187012,0.451233,0.7854
109016852926,0.379333,0.186035,0.450989,0.786133
109016875575,0.378967,0.185486,0.450684,0.78656
109016896502,0.379272,0.185608,0.450378,0.786621
109016913016,0.380066,0.186157,0.450134,0.786255
109016935486,0.380859,0.186462,0.449829,0.78595
109016956487,0.381226,0.18634,0.449646,0.785889
109016973010,0.38147,0.186096,0.449524,0.785889
109016995290,0.381409,0.185669,0.449524,0.786011
109017016928,0.381348,0.185547,0.449646,0.786011
109017033011,0.381348,0.185608,0.449829,0.785889
109017057098,0.38092,0.185669,0.450195,0.785889
109017077971,0.380249,0.185608,0.450562,0.786011
109017092941,0.379333,0.185425,0.450806,0.786377
109017115507,0.378662,0.185364,0.45105,0.78656
109017137785,0.378174,0.185425,0.451233,0.786682
109017153394,0.377747,0.185547,0.451416,0.786743
109017175496,0.377075,0.185547,0.45166,0.786926
109017198012,0.376892,0.185608,0.451904,0.786865
109017218996,0.376831,0.185608,0.451904,0.786926
109017235425,0.376953,0.185608,0.451843,0.786865
109017264657,0.377136,0.185486,0.451721,0.786865
109017272439,0.377258,0.185303,0.451538,0.786987
109017295509,0.377502,0.185364,0.451355,0.786926
109017318012,0.377808,0.185486,0.451355,0.786804
109017332332,0.377808,0.185486,0.451355,0.786743
109017355488,0.377808,0.185486,0.451355,0.786743
109017377989,0.378052,0.185486,0.451233,0.786743
109017392357,0.378479,0.185669,0.451111,0.78656
109017399860,0.378479,0.185669,0.451111,0.78656
109017420903,0.378357,0.185669,0.451172,0.78656
109017443376,0.378174,0.185547,0.451233,0.786682
109017459812,0.378052,0.185425,0.451233,0.786743
109017483835,0.378052,0.185425,0.451233,0.786743
109017503388,0.378052,0.185425,0.451233,0.786743
109017519840,0.377991,0.185547,0.451416,0.786621
109017540945,0.377991,0.185547,0.451416,0.786621
109017563375,0.377747,0.185547,0.451233,0.786865
109017579909,0.377808,0.185547,0.451233,0.786865
109017600886,0.377808,0.185547,0.451233,0.786865
109017623420,0.377747,0.185547,0.451233,0.786865
109017639810,0.378052,0.185425,0.451233,0.786743
109017660878,0.378296,0.185303,0.45105,0.786743
109017683541,0.378479,0.18512,0.450867,0.786804
109017699907,0.37854,0.18512,0.450867,0.786804
109017720918,0.378296,0.184875,0.450928,0.786926
109017743555,0.378235,0.184631,0.450928,0.787048
109017759869,0.378235,0.184387,0.450928,0.787048
109017780851,0.378296,0.184387,0.450928,0.787048
109017804881,0.378235,0.184326,0.450989,0.787048
109017819849,0.378113,0.184143,0.451294,0.786987
109017840896,0.377991,0.184021,0.451538,0.786926
109017863372,0.377808,0.183899,0.451599,0.787048
109017879853,0.377563,0.183716,0.451599,0.78717
109017900952,0.377563,0.183716,0.451599,0.78717
109017923405,0.377563,0.183716,0.451599,0.78717
109017939797,0.377563,0.183716,0.451599,0.78717
109017963792,0.37738,0.183716,0.451538,0.787292
109017983400,0.377258,0.183533,0.451599,0.787354
109018001284,0.377319,0.183838,0.451721,0.787231
109018020911,0.377136,0.183472,0.452026,0.78717
109018043427,0.377441,0.183105,0.452332,0.786987
109018061388,0.377991,0.183105,0.452515,0.786621
109018080887,0.379272,0.184021,0.452087,0.786011
109018103475,0.378967,0.183899,0.452209,0.786133
109018121365,0.380737,0.184021,0.452576,0.785034
109018140973,0.386353,0.184875,0.45166,0.782593
109018163473,0.389771,0.184692,0.451599,0.781006
109018185886,0.391235,0.185791,0.450623,0.780518
109018201073,0.391724,0.186646,0.449951,0.780457
109018223442,0.393616,0.186096,0.449707,0.779785
109018245930,0.394714,0.186279,0.44989,0.779114
109018262452,0.394775,0.185852,0.449646,0.779297
109018283476,0.394348,0.184692,0.44928,0.780029
109018301339,0.394653,0.18457,0.448975,0.78009
109018320925,0.396912,0.185181,0.448303,0.779175
109018343380,0.399231,0.186157,0.44812,0.777832
109018361355,0.399109,0.185486,0.447754,0.778259
109018388425,0.399414,0.184631,0.446777,0.77887
109018403448,0.39978,0.184204,0.446472,0.778931
109018421400,0.400757,0.18396,0.44635,0.778564
109018440946,0.401855,0.183594,0.446106,0.778259
109018463441,0.401733,0.182617,0.445984,0.778625
109018481320,0.404053,0.182739,0.445557,0.777649
109018500875,0.405701,0.183594,0.445618,0.77655
109018523581,0.405518,0.183472,0.445496,0.776733
109018542758,0.404724,0.182251,0.445312,0.777527
109018560951,0.404297,0.180969,0.445312,0.778076
109018583413,0.406372,0.181885,0.444824,0.777039
109018602015,0.407288,0.182739,0.444458,0.77655
109018622395,0.406921,0.182373,0.444702,0.776672
109018643397,0.405029,0.181213,0.445374,0.777588
109018674160,0.402832,0.179199,0.445862,0.778931
109018682412,0.403992,0.179077,0.445618,0.778503
109018703430,0.40741,0.181702,0.445251,0.776306
109018721357,0.411194,0.185425,0.44458,0.773804
109018742338,0.4104,0.186951,0.446899,0.772522
109018763748,0.408203,0.187561,0.451721,0.770691
109018781387,0.403564,0.18689,0.456543,0.770508
109018803348,0.396301,0.184265,0.460266,0.772644
109018823445,0.388123,0.18042,0.462341,0.776489
109018841343,0.380188,0.176636,0.463013,0.780884
109018862448,0.377258,0.176331,0.46228,0.782776
109018883497,0.377136,0.178284,0.461792,0.782715
109018901361,0.37854,0.181519,0.461975,0.781189
109018922498,0.380371,0.183899,0.461792,0.779846
109018944862,0.380249,0.184265,0.460754,0.780396
109018961301,0.379395,0.183167,0.459717,0.781738
109018984050,0.379089,0.18219,0.459106,0.782471
109019003465,0.379272,0.182129,0.45874,0.782532
109019021514,0.380432,0.182922,0.458923,0.781738
109019043877,0.381714,0.183838,0.459473,0.780579
109019063443,0.382568,0.184204,0.459656,0.779968
109019081493,0.381836,0.183472,0.459412,0.78064
109019103863,0.381287,0.182678,0.459106,0.78125
109019123562,0.381409,0.182739,0.458862,0.781311
109019141366,0.381592,0.183167,0.458679,0.78125
109019163885,0.381775,0.183411,0.45874,0.781067
109019183602,0.382141,0.183716,0.458679,0.780884
109019201355,0.38269,0.184387,0.458252,0.780701
109019223904,0.382874,0.184753,0.457947,0.780701
109019250939,0.382263,0.184814,0.457886,0.781006
109019261384,0.381592,0.18512,0.458069,0.781128
109019284080,0.381165,0.185425,0.458496,0.781006
109019303451,0.380798,0.185547,0.458984,0.780884
109019321354,0.380066,0.185242,0.459167,0.781189
109019343947,0.3797,0.184937,0.459229,0.781433
109019363487,0.3797,0.184875,0.459229,0.781433
109019381547,0.379883,0.184998,0.45929,0.78125
109019403854,0.380432,0.185242,0.45929,0.780945
109019423498,0.380798,0.185303,0.459106,0.780884
109019441445,0.381042,0.185242,0.458679,0.781006
109019463905,0.381165,0.185059,0.458313,0.781189
109019483599,0.381714,0.18512,0.458069,0.781067
109019501396,0.382141,0.185303,0.458069,0.780823
109019523822,0.382446,0.185364,0.458008,0.780701
109019545077,0.382507,0.185364,0.458008,0.78064
109019561388,0.382446,0.185303,0.458008,0.780762
109019584029,0.382263,0.185242,0.457947,0.780823
109019604905,0.382263,0.185242,0.457947,0.780823
109019621415,0.382019,0.185303,0.458008,0.780945
109019643983,0.381836,0.185425,0.458069,0.780945
109019664879,0.381653,0.185486,0.458313,0.780884
109019680609,0.381409,0.185364,0.458374,0.781006
109019703078,0.381226,0.185181,0.458313,0.781189
109019724154,0.381165,0.18512,0.458313,0.781189
109019740647,0.381165,0.18512,0.458374,0.781189
109019763076,0.381165,0.18512,0.458313,0.781189
109019784297,0.38092,0.184998,0.458313,0.781372
109019800555,0.380676,0.184753,0.458374,0.781494
109019823931,0.380432,0.18457,0.458435,0.781616
109019844216,0.380371,0.184448,0.458496,0.781677
109019860576,0.38031,0.184387,0.458496,0.781677
109019883065,0.380615,0.184326,0.458496,0.781555
109019905548,0.380737,0.184448,0.458374,0.781555
109019920561,0.380981,0.184753,0.458191,0.781494
109019943111,0.380615,0.184692,0.45813,0.781677
109019965616,0.38031,0.184631,0.458191,0.78186
109019980616,0.380249,0.184631,0.458191,0.78186
109020003108,0.380249,0.184631,0.458191,0.78186
109020025786,0.38031,0.184631,0.458191,0.78186
109020039940,0.380188,0.184692,0.458374,0.781738
109020063066,0.380188,0.184692,0.458374,0.781738
109020085630,0.380249,0.184753,0.458374,0.781738
109020100025,0.379761,0.184387,0.458313,0.782043
109020123128,0.379578,0.184082,0.458435,0.782166
109020145583,0.379517,0.184448,0.458557,0.782043
109020159941,0.3797,0.184631,0.458862,0.781738
109020183092,0.379517,0.184448,0.458923,0.781799
109020205647,0.378906,0.18396,0.458984,0.782166
109020219936,0.37854,0.183899,0.458801,0.782471
109020243200,0.37854,0.183899,0.458862,0.782471
109020265628,0.378662,0.184021,0.459045,0.782227
109020279930,0.378723,0.184387,0.459045,0.782104
109020303147,0.377747,0.184509,0.459351,0.78241
109020325552,0.376709,0.184204,0.459351,0.782959
109020339973,0.375732,0.182739,0.459961,0.783447
109020363126,0.376282,0.182556,0.460022,0.783142
109020385561,0.378357,0.183105,0.459229,0.782471
109020406700,0.380432,0.183899,0.458496,0.781738
109020423164,0.382202,0.185059,0.458069,0.780823
109020445665,0.382507,0.185669,0.45813,0.780518
109020466664,0.38324,0.186279,0.457764,0.780273
109020483187,0.384155,0.186218,0.456482,0.780579
109020505633,0.385986,0.18573,0.455139,0.780518
109020526732,0.388733,0.186218,0.454956,0.779175
109020543183,0.390259,0.187134,0.455933,0.777649
109020565589,0.389954,0.187256,0.456116,0.777649
109020586713,0.38916,0.186096,0.455627,0.778625
109020610615,0.389038,0.184814,0.455261,0.779175
109020625574,0.389648,0.184509,0.455566,0.778809
109020646667,0.39032,0.185059,0.456116,0.777954
109020663187,0.390564,0.185364,0.455994,0.777832
109020685586,0.391846,0.185852,0.4552,0.777527
109020708187,0.393188,0.18689,0.454712,0.776917
109020723142,0.393372,0.187134,0.454956,0.776611
109020746990,0.392578,0.186279,0.455078,0.777161
109020766813,0.389526,0.183472,0.4552,0.779297
109020783120,0.392151,0.183777,0.454346,0.778381
109020805643,0.395813,0.18634,0.453979,0.776184
109020826704,0.397339,0.187622,0.453613,0.775269
109020842455,0.396606,0.18634,0.453247,0.776123
109020865638,0.394287,0.183899,0.452759,0.778198
109020888141,0.395142,0.183411,0.452209,0.778259
109020903128,0.397583,0.184692,0.451904,0.776855
109020925609,0.399597,0.185913,0.451538,0.775757
109020948166,0.399841,0.185852,0.451477,0.775635
109020963160,0.398132,0.184814,0.451782,0.776611
109020985662,0.396301,0.183044,0.452026,0.777832
109021008140,0.395447,0.181702,0.451782,0.778687
109021022458,0.397278,0.182007,0.450623,0.778381
109021045676,0.401367,0.184143,0.448669,0.776917
109021068194,0.403687,0.186768,0.448364,0.775269
109021082534,0.404907,0.189636,0.450195,0.772888
109021113168,0.40332,0.190674,0.453186,0.771667
109021128188,0.397217,0.188782,0.455322,0.774048
109021149209,0.388123,0.184998,0.455933,0.779175
109021165701,0.381409,0.182556,0.456482,0.782776
109021188138,0.378479,0.183105,0.456909,0.783813
109021209359,0.378723,0.185852,0.457947,0.78241
109021227150,0.379944,0.18927,0.459717,0.779968
109021248786,0.379944,0.190918,0.461243,0.778687
109021269209,0.377625,0.18988,0.461365,0.779968
109021285635,0.373901,0.187256,0.460876,0.782715
109021308321,0.372375,0.18573,0.460754,0.783875
109021329253,0.372864,0.186829,0.460449,0.783569
109021345684,0.373901,0.188477,0.460266,0.782776
109021368198,0.375366,0.189636,0.460632,0.781555
109021389210,0.376404,0.189758,0.46051,0.781128
109021405712,0.376038,0.188599,0.4599,0.781921
109021428163,0.375732,0.187317,0.459412,0.782654
109021449197,0.376282,0.18689,0.458984,0.782776
109021465673,0.377014,0.187134,0.45874,0.782471
109021488201,0.377686,0.187439,0.458679,0.782104
109021509254,0.378113,0.187378,0.458679,0.781921
109021525671,0.378296,0.187439,0.458435,0.781982
109021548154,0.37854,0.187439,0.458191,0.781982
109021569340,0.378601,0.187439,0.458191,0.781982
109021585704,0.37854,0.187439,0.458191,0.781982
109021608285,0.37854,0.187439,0.458191,0.781982
109021629455,0.378601,0.187439,0.458191,0.781982
109021645672,0.378113,0.187317,0.458252,0.782227
109021668200,0.377747,0.187256,0.458374,0.782288
109021689245,0.377747,0.187256,0.458374,0.782349
109021705697,0.377747,0.187256,0.458374,0.782349
109021728215,0.377686,0.187256,0.458374,0.782349
109021749242,0.377686,0.187256,0.458374,0.782349
109021765699,0.377686,0.187256,0.458374,0.782349
109021788175,0.37793,0.187317,0.458496,0.782166
109021810726,0.37793,0.187317,0.458496,0.782166
109021825697,0.377869,0.187317,0.458496,0.782166
109021848212,0.377869,0.187134,0.458435,0.782227
109021870694,0.377869,0.187134,0.458435,0.782227
109021885664,0.377869,0.187134,0.458435,0.782227
109021908201,0.377869,0.187073,0.458435,0.782227
109021930652,0.377869,0.187073,0.458496,0.782227
109021945012,0.378235,0.187134,0.458374,0.782104
109021968225,0.378235,0.187134,0.458374,0.782104
109021998218,0.378235,0.187134,0.458374,0.782104
109022004975,0.378601,0.186951,0.458374,0.781982
109022028221,0.379089,0.18689,0.45813,0.781921
109022050670,0.378784,0.18634,0.45813,0.782166
109022065025,0.378601,0.185852,0.45813,0.78241
109022088250,0.37915,0.18573,0.458069,0.782166
109022110661,0.379944,0.186035,0.458069,0.781738
109022125058,0.380493,0.186279,0.458069,0.781372
109022148152,0.380554,0.186279,0.458069,0.781372
109022170676,0.380432,0.186157,0.457947,0.781555
109022185044,0.380249,0.185974,0.457825,0.781738
109022208276,0.380249,0.185974,0.457825,0.781738
109022230751,0.380249,0.185974,0.457825,0.781738
109022245094,0.380371,0.186035,0.457764,0.781677
109022275689,0.379883,0.18573,0.457886,0.781921
109022290696,0.378967,0.184753,0.458313,0.782349
109022311703,0.379456,0.184814,0.458679,0.78186
109022328193,0.380493,0.185547,0.458496,0.781311
109022350701,0.380249,0.185547,0.458435,0.781433
109022371743,0.379883,0.185181,0.458679,0.781616
109022388218,0.379944,0.185364,0.458435,0.781677
109022410687,0.380371,0.185425,0.458313,0.781494
109022431820,0.381287,0.185608,0.458191,0.781128
109022448194,0.382263,0.186157,0.458252,0.780457
109022470701,0.383484,0.186951,0.458496,0.779541
109022491763,0.38385,0.187256,0.458618,0.779175
109022508184,0.383911,0.187378,0.458679,0.779114
109022530891,0.383362,0.18689,0.458801,0.779419
109022551776,0.383362,0.18689,0.458801,0.779419
109022569056,0.383362,0.186829,0.459045,0.779297
109022590749,0.383972,0.187073,0.458984,0.778992
109022611759,0.384827,0.187195,0.458496,0.778809
109022628223,0.385498,0.187378,0.457947,0.778748
109022651180,0.386841,0.188354,0.457886,0.777893
109022672347,0.386536,0.188721,0.458008,0.777893
109022688258,0.385803,0.187622,0.458069,0.778503
109022710736,0.385315,0.186218,0.457764,0.779236
109022733350,0.386353,0.18634,0.457458,0.77887
109022748219,0.388184,0.187561,0.457397,0.77771
109022770716,0.38916,0.188049,0.45752,0.777039
109022793284,0.389099,0.187134,0.457397,0.777344
109022808348,0.388916,0.185852,0.456787,0.778076
109022831174,0.389343,0.185425,0.456665,0.778076
109022853306,0.390991,0.186218,0.456665,0.777039
109022868276,0.392334,0.187134,0.456543,0.776245
109022890732,0.392273,0.186584,0.456116,0.776611
109022913348,0.392212,0.185364,0.455566,0.777283
109022927549,0.394104,0.18573,0.454956,0.776611
109022952201,0.396729,0.187256,0.454529,0.775085
109022973337,0.398132,0.188354,0.454285,0.774292
109022987509,0.397156,0.187439,0.454773,0.774719
109023010742,0.396057,0.186218,0.454956,0.775452
109023033346,0.395935,0.185486,0.454529,0.77594
109023047628,0.396362,0.185303,0.454529,0.775757
109023070723,0.397461,0.185425,0.454651,0.775146
109023093463,0.398132,0.185669,0.454773,0.774658
109023107562,0.397217,0.184814,0.454651,0.775452
109023130729,0.397522,0.184204,0.453979,0.775818
109023153323,0.398682,0.184509,0.453857,0.775146
109023167589,0.400024,0.185242,0.453735,0.774414
109023190708,0.400085,0.185242,0.453735,0.774353
109023213401,0.399414,0.184875,0.453613,0.774902
109023227569,0.398865,0.184021,0.453125,0.775635
109023258371,0.39917,0.183838,0.452881,0.775696
109023273313,0.400146,0.184448,0.452759,0.775085
109023294347,0.401306,0.185181,0.452393,0.774536
109023310872,0.402222,0.185547,0.451965,0.774231
109023333292,0.401978,0.185547,0.451782,0.774414
109023354375,0.40155,0.184875,0.451843,0.774841
109023370752,0.401428,0.18457,0.452026,0.774841
109023393271,0.401611,0.184387,0.452148,0.774719
109023414572,0.402649,0.184998,0.451965,0.774109
109023430742,0.402771,0.185059,0.451904,0.774109
109023459474,0.402161,0.184753,0.451904,0.774414
109023474372,0.401123,0.184326,0.452209,0.774963
109023490747,0.400513,0.184204,0.452698,0.774963
109023513304,0.40033,0.184265,0.453064,0.774841
109023534307,0.400146,0.184814,0.453308,0.774658
109023550739,0.399475,0.185181,0.453552,0.774841
109023573361,0.399292,0.185669,0.453857,0.774597
109023594325,0.398682,0.185913,0.454834,0.774231
109023612363,0.396606,0.185791,0.455322,0.775085
109023633287,0.395874,0.186279,0.454834,0.775635
109023654334,0.39563,0.187561,0.454651,0.775574
109023670822,0.394409,0.188049,0.4552,0.775757
109023693305,0.392639,0.187317,0.456421,0.776062
109023715759,0.392029,0.187012,0.457275,0.776001
109023736846,0.390808,0.187378,0.457153,0.77655
109023753289,0.389648,0.187988,0.457642,0.776733
109023775811,0.388428,0.188538,0.457886,0.777039
109023790728,0.387146,0.188843,0.458435,0.777283
109023813343,0.386536,0.188477,0.45929,0.777161
109023835765,0.385803,0.18811,0.459412,0.777527
109023850089,0.385803,0.187927,0.458984,0.777832
109023873323,0.386719,0.188599,0.458801,0.777344
109023895732,0.386963,0.189331,0.458679,0.7771
109023910111,0.386475,0.189392,0.459045,0.777161
109023939376,0.385925,0.188965,0.459778,0.7771
109023955738,0.385742,0.188538,0.459961,0.777161
109023961200,0.385498,0.187927,0.459839,0.777527
109023977676,0.385376,0.1875,0.459656,0.777771
109023998661,0.385254,0.187256,0.459534,0.777954
109024022646,0.385437,0.187256,0.459717,0.777771
109024037664,0.385559,0.1875,0.460144,0.777405
109024058675,0.385254,0.187744,0.46051,0.777283
109024081294,0.384155,0.1875,0.460938,0.777649
109024097599,0.383179,0.187073,0.461365,0.777954
109024118708,0.382263,0.186707,0.46167,0.77832
109024141232,0.38147,0.186768,0.462036,0.778503
109024157569,0.381287,0.187378,0.462219,0.77832
109024178802,0.381165,0.187683,0.46228,0.778259
109024201135,0.380615,0.187744,0.462158,0.778564
109024219056,0.380066,0.187195,0.462158,0.778992
109024238805,0.379822,0.186829,0.462158,0.779175
109024261203,0.380127,0.186768,0.462097,0.779053
109024277714,0.380798,0.187012,0.462036,0.778748
109024298739,0.381348,0.187195,0.461975,0.778503
109024321136,0.381653,0.187134,0.461731,0.778442
109024337688,0.381531,0.187073,0.461548,0.778625
109024358674,0.381287,0.18689,0.461487,0.77887
109024381224,0.381287,0.18689,0.461487,0.77887
109024397666,0.381287,0.18689,0.461487,0.77887
109024418659,0.381287,0.18689,0.461487,0.77887
109024441186,0.381226,0.187012,0.46167,0.778748
109024457674,0.381042,0.187073,0.461853,0.778748
109024478690,0.380676,0.186829,0.462036,0.77887
109024501256,0.380371,0.186646,0.462036,0.779053
109024519122,0.38031,0.186646,0.462036,0.779053
109024538685,0.38031,0.186646,0.462036,0.779053
109024561148,0.38031,0.186646,0.462036,0.779053
109024577643,0.380554,0.186829,0.462036,0.778931
109024598878,0.380554,0.186829,0.462036,0.778931
109024621175,0.380554,0.186829,0.462036,0.778931
109024639142,0.380554,0.186768,0.462036,0.778931
109024658715,0.380554,0.186829,0.462036,0.778931
109024681220,0.380554,0.186768,0.462036,0.778931
109024699240,0.380798,0.18689,0.461914,0.778809
109024718680,0.380798,0.18689,0.461914,0.778809
109024741263,0.380798,0.186951,0.461914,0.778809
109024759148,0.380615,0.18689,0.462036,0.77887
109024778681,0.380615,0.186829,0.462036,0.77887
109024801333,0.380615,0.186829,0.462036,0.77887
109024819081,0.380615,0.186829,0.462036,0.77887
109024838734,0.380493,0.18689,0.462036,0.778931
109024861209,0.380188,0.18689,0.462158,0.778992
109024879120,0.380188,0.18689,0.462158,0.778992
109024898677,0.380188,0.18689,0.462097,0.778992
109024921169,0.380127,0.186584,0.462097,0.779114
109024939139,0.380188,0.186462,0.462341,0.778992
109024958734,0.380066,0.186401,0.462524,0.778931
109024981195,0.379761,0.186035,0.462769,0.779053
109024999883,0.380249,0.185669,0.462646,0.778992
109025018714,0.381226,0.185852,0.462402,0.778625
109025048887,0.382202,0.186157,0.46228,0.778137
109025059167,0.382874,0.186829,0.462219,0.777649
109025078691,0.382629,0.186951,0.462463,0.777649
109025101233,0.382568,0.186768,0.462402,0.77771
109025119093,0.38208,0.186462,0.462585,0.777954
109025138772,0.382324,0.18634,0.462646,0.777771
109025161221,0.383118,0.18689,0.462891,0.7771
109025179119,0.383362,0.1875,0.462952,0.776855
109025206296,0.383484,0.187439,0.463013,0.776733
109025221173,0.383911,0.187439,0.462524,0.776855
109025239116,0.383545,0.187256,0.462402,0.7771
109025260206,0.384583,0.187378,0.462219,0.776672
109025281164,0.385559,0.188293,0.462158,0.776001
109025299194,0.385315,0.188354,0.462341,0.776001
109025326190,0.384949,0.18811,0.462097,0.776367
109025342802,0.385254,0.188354,0.46167,0.776428
109025359214,0.385864,0.188904,0.46167,0.776001
109025380174,0.386658,0.190063,0.462219,0.775024
109025401207,0.386475,0.190674,0.462341,0.774841
109025419212,0.386169,0.189758,0.461243,0.775879
109025440154,0.386414,0.188232,0.460083,0.776855
109025461239,0.388428,0.188843,0.459839,0.775818
109025486614,0.391846,0.190979,0.459473,0.773804
109025506210,0.393921,0.192688,0.458313,0.77301
109025521313,0.393127,0.191895,0.457275,0.774231
109025539194,0.393005,0.190247,0.456665,0.775024
109025561793,0.395081,0.190002,0.456543,0.77417
109025581231,0.395691,0.190369,0.456909,0.773499
109025605217,0.395691,0.189575,0.456787,0.773743
109025622352,0.396606,0.189453,0.455994,0.773804
109025641227,0.398315,0.189575,0.455383,0.773254
109025659230,0.39978,0.190369,0.455933,0.771973
109025681658,0.398743,0.190674,0.456421,0.772156
109025701302,0.3974,0.189331,0.456238,0.773254
109025719177,0.397156,0.18811,0.455627,0.774048
109025741673,0.398865,0.188477,0.455444,0.773193
109025762652,0.40094,0.18988,0.455688,0.771667
109025779254,0.400879,0.190125,0.455444,0.771729
109025806259,0.399536,0.188416,0.4552,0.77301
109025821293,0.399536,0.187195,0.454956,0.773438
109025839204,0.402161,0.187744,0.454834,0.772034
109025861804,0.403564,0.188599,0.454956,0.771057
109025881520,0.403687,0.188599,0.454712,0.771118
109025899159,0.402405,0.1875,0.454407,0.772217
109025921685,0.401367,0.186035,0.454224,0.773254
109025941234,0.402954,0.185791,0.453979,0.772583
109025959187,0.404724,0.187256,0.453979,0.771301
109025982269,0.405334,0.188049,0.454224,0.770691
109026001320,0.40448,0.187683,0.454163,0.77124
109026019143,0.403564,0.186707,0.453918,0.772095
109026041699,0.404358,0.186951,0.453735,0.771729
109026061208,0.405151,0.187927,0.453979,0.770935
109026079385,0.404724,0.18811,0.454224,0.770935
109026101628,0.403259,0.186951,0.454834,0.771667
109026130223,0.403198,0.186707,0.45459,0.771912
109026139178,0.40332,0.186768,0.455078,0.771545
109026161713,0.402527,0.187012,0.455811,0.771423
109026181403,0.401733,0.186646,0.456238,0.771729
109026199196,0.400635,0.186157,0.45575,0.772705
109026221820,0.400574,0.184937,0.455078,0.773376
109026241963,0.401733,0.184937,0.454895,0.772888
109026258348,0.402771,0.185242,0.454407,0.772583
109026280904,0.404114,0.184998,0.454224,0.772034
109026301885,0.404724,0.185486,0.454285,0.771545
109026318402,0.405396,0.18573,0.454834,0.770874
109026341418,0.404907,0.186035,0.455139,0.770813
109026361927,0.403198,0.185242,0.455444,0.771729
109026378420,0.401733,0.184082,0.455688,0.772583
109026401304,0.401184,0.184326,0.455872,0.772766
109026421963,0.401001,0.184998,0.456543,0.772339
109026438852,0.400879,0.185913,0.457031,0.771851
109026460864,0.39917,0.18573,0.457703,0.772339
109026481956,0.396301,0.184998,0.458435,0.773621
109026498369,0.39447,0.18512,0.458801,0.774292
109026520824,0.394531,0.186279,0.459106,0.773804
109026543448,0.394287,0.187683,0.459473,0.773376
109026558364,0.393127,0.188538,0.460266,0.773254
109026580917,0.390869,0.188416,0.460999,0.773987
109026603404,0.388367,0.1875,0.461548,0.775146
109026618333,0.386597,0.186707,0.462219,0.775879
109026642364,0.385986,0.18689,0.462891,0.775696
109026664060,0.385986,0.187561,0.463501,0.775208
109026677755,0.385193,0.187744,0.463501,0.775513
109026700903,0.385132,0.187805,0.463074,0.775818
109026723363,0.385315,0.187622,0.462646,0.776001
109026738415,0.385376,0.187439,0.462402,0.776123
109026760892,0.386108,0.187683,0.462402,0.775757
109026783388,0.387085,0.188477,0.46283,0.77478
109026797868,0.387695,0.189026,0.463196,0.77417
109026820884,0.38739,0.188599,0.463318,0.774353
109026843428,0.387451,0.188477,0.463074,0.774475
109026864421,0.387573,0.188782,0.463013,0.774353
109026881510,0.387573,0.189331,0.463501,0.773926
109026903392,0.38739,0.189941,0.463928,0.773621
109026917688,0.386353,0.190063,0.464417,0.773804
109026941096,0.385315,0.189514,0.464661,0.774353
109026963447,0.384155,0.188538,0.464722,0.775085
109026977708,0.383667,0.18811,0.464844,0.775391
109027000923,0.383728,0.188477,0.464966,0.775146
109027023382,0.383972,0.189392,0.465149,0.774719
109027044552,0.383484,0.190002,0.465759,0.774475
109027060882,0.382019,0.189697,0.466797,0.774658
109027084443,0.380432,0.188965,0.46759,0.775085
109027104482,0.37915,0.188354,0.467896,0.775696
109027120902,0.378235,0.187805,0.468079,0.776184
109027143419,0.377686,0.187561,0.468323,0.776306
109027164482,0.377747,0.18811,0.468628,0.776062
109027180862,0.377991,0.188843,0.468933,0.775513
109027203467,0.378174,0.189331,0.469421,0.775024
109027224425,0.378052,0.189331,0.469666,0.774963
109027240848,0.37738,0.189026,0.46936,0.775513
109027263540,0.376709,0.188599,0.469177,0.776062
109027284472,0.376709,0.18866,0.468994,0.776184
109027301064,0.377075,0.189026,0.468933,0.77594
109027323427,0.377502,0.189575,0.469238,0.775391
109027344542,0.377747,0.18988,0.469482,0.775085
109027360960,0.377502,0.189575,0.469482,0.775269
109027383460,0.377014,0.189026,0.46936,0.775696
109027404520,0.377014,0.189026,0.469421,0.775696
109027420912,0.377075,0.18927,0.469482,0.775574
109027443463,0.376953,0.189392,0.469543,0.775513
109027464628,0.37677,0.189453,0.469727,0.775513
109027480911,0.37677,0.189453,0.469727,0.775513
109027503477,0.376648,0.189453,0.469727,0.775574
109027525907,0.376404,0.189392,0.469788,0.775635
109027540889,0.376404,0.189392,0.469788,0.775635
109027563444,0.376404,0.189392,0.469788,0.775635
109027585925,0.376404,0.189453,0.469788,0.775635
109027600944,0.376221,0.189331,0.469849,0.775696
109027623471,0.376038,0.189209,0.469971,0.775757
109027645934,0.375977,0.18927,0.470154,0.775696
109027660350,0.375916,0.189514,0.470276,0.775574
109027683423,0.375916,0.189514,0.470276,0.775574
109027706010,0.375732,0.189331,0.470276,0.775696
109027720314,0.375793,0.189331,0.470276,0.775696
109027743917,0.375793,0.189331,0.470276,0.775696
109027765930,0.375793,0.189392,0.470276,0.775635
109027780316,0.375793,0.189331,0.470276,0.775635
109027809568,0.375793,0.189331,0.470276,0.775696
109027825900,0.375793,0.189331,0.470276,0.775696
109027840362,0.375732,0.189331,0.470276,0.775696
109027863502,0.375793,0.189331,0.470276,0.775696
109027885941,0.375793,0.189331,0.470276,0.775635
109027901013,0.37561,0.189209,0.470398,0.775696
109027923456,0.37561,0.189209,0.470398,0.775696
109027945961,0.37561,0.189209,0.470398,0.775696
109027960383,0.37561,0.189148,0.470398,0.775696
109027983419,0.37561,0.189148,0.470398,0.775696
109028006010,0.37561,0.189148,0.470398,0.775696
109028027001,0.37561,0.189148,0.470398,0.775696
109028043416,0.37561,0.189148,0.470398,0.775696
109028065987,0.37561,0.189148,0.470398,0.775696
109028086985,0.37561,0.189148,0.470398,0.775696
109028103864,0.37561,0.189148,0.470398,0.775696
109028126027,0.37561,0.189148,0.470398,0.775696
109028146989,0.375854,0.189331,0.470398,0.775574
109028163492,0.375854,0.189331,0.470398,0.775574
109028185974,0.37561,0.189148,0.470459,0.775696
109028207005,0.37561,0.189148,0.470459,0.775696
109028223474,0.37561,0.189087,0.470459,0.775696
109028245977,0.376038,0.189392,0.470337,0.775513
109028267187,0.375916,0.18927,0.470398,0.775574
109028283483,0.375549,0.188782,0.470459,0.775818
109028305979,0.375183,0.188477,0.470398,0.776062
109028327060,0.375,0.188049,0.470459,0.776245
109028343425,0.375183,0.187927,0.470581,0.776123
109028365985,0.375427,0.188049,0.470703,0.77594
109028387062,0.375488,0.188049,0.470642,0.775879
109028403848,0.375305,0.187805,0.470886,0.775879
109028426009,0.374817,0.187866,0.47113,0.77594
109028448412,0.374451,0.187561,0.471252,0.776184
109028463505,0.373779,0.186829,0.471252,0.776672
109028485958,0.374146,0.186829,0.471069,0.776611
109028508439,0.375427,0.187988,0.47052,0.776001
109028523569,0.375061,0.188049,0.470459,0.776245
109028545918,0.375061,0.187378,0.470947,0.776123
109028568469,0.376343,0.187256,0.470459,0.775818
109028582828,0.37738,0.186951,0.469788,0.775757
109028605910,0.379395,0.187439,0.46936,0.774902
109028628472,0.380249,0.188232,0.469177,0.774414
109028642848,0.380676,0.188232,0.469177,0.774231
109028665939,0.381287,0.187744,0.468933,0.77417
109028688519,0.381226,0.187073,0.468384,0.774719
109028702786,0.381775,0.187073,0.467712,0.774841
109028726105,0.384338,0.188538,0.467285,0.773499
109028748481,0.386169,0.189392,0.467041,0.772522
109028762774,0.386292,0.188904,0.466675,0.772766
109028786017,0.386169,0.188171,0.466248,0.773315
109028808483,0.386292,0.187805,0.466064,0.773438
109028822839,0.388306,0.188904,0.466187,0.772095
109028845940,0.389587,0.189026,0.465942,0.771545
109028868529,0.388977,0.187927,0.465881,0.772156
109028882896,0.388123,0.18634,0.465942,0.772949
109028905995,0.388916,0.186035,0.465515,0.772888
109028934734,0.390137,0.186829,0.465088,0.772339
109028957029,0.391296,0.1875,0.464661,0.77179
109028965974,0.390808,0.1875,0.464661,0.772095
109028988534,0.389221,0.186218,0.464355,0.773376
109029009503,0.39032,0.186218,0.463379,0.773376
109029026027,0.392334,0.186951,0.46283,0.772583
109029048483,0.39447,0.187866,0.462708,0.771301
109029071071,0.394226,0.187805,0.462891,0.771301
109029085944,0.392944,0.186462,0.462769,0.7724
109029108487,0.391846,0.184937,0.462524,0.773438
109029129615,0.393311,0.18457,0.462036,0.773071
109029146025,0.3974,0.18634,0.46167,0.770752
109029168486,0.399536,0.188538,0.46228,0.768799
109029189644,0.398315,0.188293,0.462708,0.769165
109029212763,0.395813,0.186279,0.462891,0.770874
109029228443,0.39386,0.185303,0.462952,0.772095
109029249620,0.395752,0.186584,0.463379,0.770508
109029266008,0.396545,0.188782,0.463989,0.769287
109029288519,0.39502,0.188843,0.464417,0.769714
109029309518,0.392639,0.187561,0.464539,0.771179
109029326055,0.391724,0.187195,0.464417,0.771851
109029348556,0.392883,0.188049,0.464417,0.771057
109029369511,0.393005,0.189148,0.464478,0.770691
109029386044,0.391724,0.188965,0.464905,0.771118
109029408486,0.389954,0.188171,0.464966,0.772156
109029431295,0.389282,0.188171,0.464539,0.772766
109029445405,0.39032,0.188599,0.464172,0.772339
109029468484,0.391357,0.189514,0.46405,0.771667
109029491688,0.391724,0.189819,0.464172,0.771362
109029506019,0.392029,0.18927,0.464355,0.771179
109029528534,0.391357,0.18866,0.464661,0.771545
109029551016,0.391907,0.189758,0.464478,0.771057
109029566800,0.392334,0.191101,0.464478,0.770508
109029588516,0.390564,0.191589,0.465576,0.77063
109029611017,0.387817,0.190857,0.466797,0.771484
109029625325,0.385132,0.190063,0.467224,0.772766
109029648565,0.383179,0.190125,0.467407,0.773621
109029671005,0.381836,0.190613,0.467468,0.774109
109029685366,0.380981,0.191223,0.468445,0.773804
109029709263,0.380798,0.1922,0.469727,0.772827
109029731110,0.380249,0.192932,0.470337,0.772583
109029745542,0.378967,0.19281,0.470154,0.773315
109029768525,0.377625,0.192322,0.469849,0.774292
109029791060,0.376831,0.192261,0.469788,0.774719
109029805399,0.377319,0.193176,0.469727,0.774292
109029828524,0.378052,0.194031,0.470581,0.773193
109029851003,0.377991,0.194336,0.470764,0.773071
109029872025,0.377075,0.193359,0.470581,0.773865
109029896051,0.37616,0.192139,0.470154,0.774841
109029911067,0.375916,0.1922,0.469971,0.775085
109029932087,0.37616,0.193115,0.470215,0.774597
109029948621,0.376465,0.194397,0.471069,0.773621
109029971037,0.376282,0.195007,0.471924,0.77301
109029992088,0.375,0.194519,0.472107,0.773682
109030008520,0.373169,0.193909,0.471558,0.775024
109030031011,0.372375,0.19397,0.471069,0.775696
109030052145,0.372681,0.194763,0.470703,0.775574
109030068507,0.373047,0.195923,0.47052,0.775208
109030091109,0.373413,0.196533,0.470947,0.774597
109030113514,0.373657,0.196594,0.471558,0.774109
109030128540,0.373352,0.196106,0.471619,0.774353
109030151040,0.372559,0.19519,0.471497,0.775024
109030172110,0.372498,0.19519,0.471558,0.775024
109030188534,0.37262,0.195557,0.471497,0.774902
109030211030,0.372742,0.195862,0.471741,0.774658
109030232101,0.372864,0.196106,0.471985,0.774353
109030248617,0.372864,0.196106,0.471924,0.774353
109030271011,0.37262,0.195984,0.471802,0.774658
109030292111,0.37262,0.196106,0.471619,0.774658
109030308486,0.37262,0.196106,0.471619,0.774719
109030331058,0.372559,0.196228,0.471802,0.774597
109030353550,0.37262,0.196411,0.471924,0.774475
109030368572,0.37262,0.196411,0.471924,0.774475
109030390988,0.37262,0.196411,0.471924,0.774475
109030413616,0.372803,0.196533,0.471741,0.774414
109030427869,0.372803,0.196533,0.471741,0.774414
109030451018,0.372803,0.196533,0.471741,0.774414
109030473603,0.372803,0.196533,0.471741,0.774414
109030487857,0.372803,0.196533,0.471741,0.774414
109030495377,0.372803,0.196533,0.471741,0.774414
109030516465,0.372803,0.196533,0.471741,0.774414
109030538917,0.372803,0.196533,0.471741,0.774414
109030555524,0.372803,0.196472,0.471802,0.774414
109030576436,0.372803,0.196472,0.471802,0.774414
109030598935,0.372742,0.196472,0.471802,0.774414
109030615429,0.372742,0.196472,0.471802,0.774414
109030636413,0.372742,0.196472,0.471802,0.774414
109030659153,0.372803,0.196472,0.471802,0.774414
109030675402,0.372803,0.196472,0.471802,0.774414
109030696453,0.37262,0.196289,0.471741,0.774597
109030718993,0.372498,0.196045,0.47168,0.774719
109030735403,0.372681,0.196106,0.471558,0.774719
109030756448,0.373047,0.196228,0.471375,0.774597
109030778960,0.373047,0.196228,0.471375,0.774597
109030795361,0.373047,0.196228,0.471375,0.774597
109030816514,0.373047,0.196228,0.471375,0.774597
109030838957,0.373108,0.196228,0.471375,0.774597
109030855373,0.373108,0.196228,0.471375,0.774597
109030876531,0.373108,0.196228,0.471375,0.774597
109030898962,0.37323,0.196228,0.471436,0.774475
109030915576,0.373779,0.196289,0.471436,0.774231
109030936468,0.373596,0.195984,0.471497,0.774353
109030960496,0.373108,0.195496,0.471436,0.774719
109030975463,0.373047,0.19519,0.471375,0.774902
109030996416,0.37323,0.195312,0.471252,0.774841
109031019161,0.373657,0.195251,0.471252,0.774658
109031035397,0.37439,0.19519,0.47113,0.774414
109031056502,0.37439,0.195251,0.47113,0.774353
109031079023,0.374207,0.195007,0.471252,0.774414
109031095367,0.374146,0.194641,0.471191,0.774597
109031124073,0.374695,0.194336,0.470764,0.774658
109031138966,0.375183,0.194641,0.470154,0.774719
109031155431,0.374756,0.194641,0.469849,0.775146
109031176600,0.375061,0.194275,0.470093,0.774902
109031198931,0.377625,0.194702,0.470093,0.77356
109031215460,0.378601,0.194336,0.469482,0.77356
109031236467,0.378906,0.19397,0.468994,0.773804
109031258956,0.3797,0.194336,0.468872,0.773376
109031277059,0.38092,0.194946,0.468262,0.772949
109031296447,0.381836,0.194824,0.46759,0.77301
109031319001,0.382996,0.194946,0.466797,0.772827
109031336974,0.383789,0.195435,0.466614,0.7724
109031356458,0.384033,0.196167,0.466125,0.772461
109031378985,0.383667,0.196533,0.465759,0.772766
109031396943,0.38324,0.196228,0.465271,0.773315
109031416450,0.383667,0.196411,0.464478,0.77356
109031439026,0.383789,0.197144,0.464111,0.773499
109031456870,0.38385,0.197449,0.463623,0.773682
109031476530,0.384155,0.197449,0.46283,0.774048
109031499017,0.384338,0.197266,0.462097,0.774414
109031516881,0.385559,0.197693,0.461853,0.773865
109031536750,0.386414,0.198425,0.46167,0.773315
109031558969,0.386658,0.197937,0.461426,0.773499
109031577003,0.386597,0.197021,0.460693,0.774231
109031596702,0.38678,0.19574,0.459961,0.774841
109031618937,0.389038,0.195801,0.459595,0.773926
109031637005,0.39209,0.19696,0.459351,0.772278
109031656485,0.392944,0.196899,0.45929,0.771851
109031679030,0.39386,0.195923,0.458801,0.771912
109031697105,0.394653,0.195374,0.458313,0.771973
109031716483,0.396301,0.195068,0.458374,0.771118
109031739122,0.39801,0.19574,0.459167,0.769653
109031756945,0.397583,0.195374,0.459717,0.769592
109031776455,0.397278,0.194214,0.459656,0.770142
109031799079,0.396973,0.193176,0.459473,0.77063
109031816923,0.398621,0.193726,0.459595,0.769592
109031836618,0.398682,0.194458,0.459839,0.769165
109031859010,0.396973,0.193115,0.460083,0.770264
109031876899,0.396545,0.191833,0.459839,0.770935
109031897973,0.398193,0.192383,0.459778,0.77002
109031918965,0.399658,0.193542,0.459778,0.768982
109031936919,0.398804,0.192871,0.4599,0.769531
109031957947,0.3974,0.191528,0.4599,0.770569
109031986539,0.397644,0.191284,0.459839,0.770508
109031997090,0.398865,0.191833,0.459717,0.769836
109032017922,0.399658,0.192322,0.459595,0.769348
109032039170,0.399536,0.192078,0.459717,0.769409
109032056932,0.398438,0.191284,0.459778,0.770142
109032086685,0.398315,0.190857,0.459595,0.770447
109032099168,0.399414,0.191528,0.459045,0.77002
109032116922,0.400757,0.19281,0.459167,0.768921
109032137937,0.399963,0.19342,0.459534,0.768982
109032159064,0.398254,0.192444,0.460022,0.769836
109032176872,0.395142,0.191345,0.46051,0.771362
109032197911,0.395447,0.192017,0.460266,0.77124
109032220426,0.396301,0.192932,0.460571,0.770386
109032237548,0.394958,0.193115,0.461426,0.770508
109032259539,0.393982,0.193237,0.461792,0.770752
109032279007,0.392578,0.192749,0.462097,0.771423
109032297061,0.391357,0.192383,0.462219,0.772034
109032319429,0.391907,0.193359,0.461853,0.771729
109032339026,0.391785,0.19458,0.462097,0.771362
109032356932,0.390198,0.194885,0.463318,0.771362
109032379382,0.388,0.194214,0.464661,0.771851
109032399145,0.384705,0.192871,0.464661,0.773804
109032416932,0.383423,0.192505,0.463867,0.775024
109032439484,0.384399,0.192932,0.463257,0.77478
109032459050,0.386597,0.194153,0.463074,0.773499
109032476951,0.388428,0.19574,0.46344,0.771973
109032499642,0.388733,0.196289,0.463806,0.771423
109032519062,0.387024,0.195923,0.463989,0.772278
109032542290,0.384521,0.195007,0.46405,0.773743
109032559590,0.382629,0.194275,0.464478,0.774597
109032579088,0.381836,0.194275,0.465271,0.774536
109032597124,0.381836,0.194824,0.466431,0.773682
109032619612,0.381348,0.195068,0.467285,0.773315
109032638989,0.38031,0.19458,0.467285,0.773987
109032657034,0.380066,0.194336,0.466858,0.774414
109032679447,0.380554,0.195007,0.465881,0.774597
109032699111,0.380859,0.195984,0.465881,0.77417
109032717026,0.380493,0.196289,0.466736,0.773804
109032739528,0.379761,0.196106,0.467346,0.773804
109032759122,0.378479,0.19519,0.467285,0.774719
109032776154,0.377625,0.193909,0.466858,0.775757
109032798674,0.376953,0.193115,0.466492,0.776489
109032821149,0.377991,0.193787,0.465942,0.776123
109032836171,0.380066,0.19519,0.466064,0.774658
109032858661,0.381531,0.196411,0.466553,0.773376
109032879690,0.381165,0.195923,0.467041,0.773376
109032897091,0.3797,0.19458,0.467041,0.774414
109032918700,0.378479,0.193481,0.466797,0.775452
109032939699,0.378174,0.193054,0.466614,0.775818
109032956206,0.378296,0.193298,0.466614,0.775696
109032978685,0.378601,0.19397,0.466553,0.775391
109032999634,0.379028,0.194336,0.466675,0.775085
109033022260,0.378967,0.194092,0.466553,0.775208
109033038699,0.378601,0.19342,0.466431,0.775574
109033059880,0.378662,0.192871,0.466431,0.775757
109033076234,0.378845,0.193054,0.46637,0.775635
109033099119,0.378967,0.193542,0.466492,0.775391
109033119914,0.378845,0.193665,0.466736,0.775208
109033136175,0.378601,0.193481,0.466858,0.77533
109033158608,0.378296,0.19342,0.466675,0.775635
109033181146,0.37854,0.193665,0.466431,0.775574
109033196138,0.378235,0.19397,0.466309,0.775757
109033218697,0.378052,0.194031,0.466492,0.775696
109033241151,0.378052,0.193848,0.466736,0.775574
109033256127,0.377991,0.193542,0.466736,0.775696
109033278771,0.378052,0.193237,0.466675,0.775818
109033301292,0.378296,0.193237,0.466614,0.775696
109033315538,0.37854,0.193481,0.466553,0.775513
109033346141,0.378601,0.193481,0.466553,0.775513
109033361260,0.378601,0.193481,0.466553,0.775513
109033375559,0.378601,0.193481,0.466553,0.775513
109033398685,0.378601,0.193481,0.466553,0.775513
109033421163,0.378601,0.193481,0.466553,0.775513
109033435481,0.378601,0.193665,0.466736,0.775391
109033458686,0.378662,0.193909,0.466736,0.775269
109033481203,0.378418,0.193787,0.466919,0.77533
109033495501,0.378418,0.193787,0.466919,0.77533
109033518719,0.378418,0.193787,0.466919,0.77533
109033541192,0.378479,0.193787,0.466919,0.77533
109033555485,0.378357,0.193604,0.467041,0.77533
109033578821,0.378296,0.193237,0.467041,0.775452
109033601165,0.378418,0.192871,0.46698,0.775513
109033615483,0.378845,0.192627,0.466919,0.775391
109033638675,0.37915,0.192383,0.466919,0.77533
109033661207,0.379395,0.192078,0.466919,0.775269
109033682289,0.379578,0.19165,0.46698,0.775269
109033698662,0.3797,0.191345,0.46698,0.775269
109033721183,0.379883,0.19104,0.46698,0.775269
109033742247,0.379883,0.19104,0.467041,0.775269
109033758702,0.379883,0.19104,0.467041,0.775208
109033781234,0.379883,0.19104,0.467041,0.775208
109033809751,0.379883,0.19104,0.46698,0.775208
109033826212,0.3797,0.190918,0.467102,0.775269
109033841244,0.379395,0.190674,0.467163,0.775452
109033862187,0.379333,0.190613,0.467163,0.775513
109033878849,0.38031,0.191528,0.467041,0.774902
109033901167,0.380371,0.191833,0.467163,0.774719
109033929912,0.379456,0.191406,0.46759,0.775024
109033938687,0.379028,0.19104,0.467957,0.775024
109033961196,0.379944,0.191284,0.468201,0.774414
109033982318,0.38147,0.1922,0.467712,0.773682
109033998726,0.381714,0.192627,0.467773,0.773438
109034021248,0.381042,0.192566,0.468445,0.773376
109034042357,0.380676,0.191772,0.469177,0.773376
109034058697,0.382507,0.191772,0.469055,0.772522
109034088746,0.383545,0.191833,0.468628,0.772217
109034102294,0.383789,0.192139,0.469116,0.771729
109034119479,0.384583,0.193115,0.46936,0.770935
109034141223,0.384277,0.19281,0.469421,0.771179
109034163715,0.382385,0.191223,0.46936,0.772522
109034178720,0.38208,0.190125,0.469177,0.773071
109034201028,0.38446,0.191345,0.468628,0.771912
109034223754,0.386475,0.19342,0.468018,0.770752
109034238066,0.386414,0.193665,0.467834,0.770813
109034261204,0.385193,0.192139,0.46814,0.771667
109034283763,0.385315,0.19104,0.467957,0.771973
109034298130,0.387268,0.192139,0.467407,0.771057
109034321178,0.389099,0.193665,0.467285,0.769836
109034343799,0.388489,0.19397,0.467712,0.769836
109034358047,0.386292,0.192261,0.467529,0.771423
109034381203,0.385437,0.190369,0.467163,0.772583
109034403686,0.387878,0.191223,0.466553,0.771484
109034424784,0.391235,0.19397,0.466248,0.769287
109034441242,0.39209,0.195251,0.466736,0.76825
109034463711,0.389465,0.194336,0.467468,0.769348
109034484966,0.385986,0.191895,0.467224,0.771912
109034502623,0.386658,0.190857,0.466553,0.772156
109034523688,0.390259,0.193481,0.46637,0.769836
109034544895,0.392212,0.19519,0.466431,0.768372
109034561314,0.39093,0.194519,0.466858,0.768921
109034583870,0.388733,0.192749,0.466431,0.770752
109034604729,0.388916,0.191772,0.46582,0.771301
109034622526,0.391418,0.192993,0.465576,0.769836
109034643759,0.393494,0.194458,0.466064,0.768127
109034664773,0.392822,0.194641,0.46637,0.76825
109034681375,0.390991,0.192932,0.466553,0.76947
109034703872,0.390503,0.192078,0.466248,0.770142
109034724753,0.391968,0.192566,0.466125,0.769348
109034741344,0.393799,0.194031,0.46637,0.767883
109034763730,0.393188,0.194214,0.466919,0.767822
109034784756,0.391602,0.192627,0.467163,0.76886
109034801203,0.391052,0.191345,0.467529,0.769287
109034823742,0.393677,0.192261,0.467712,0.767578
109034844895,0.394653,0.193359,0.467957,0.766663
109034861255,0.394165,0.192688,0.468689,0.766663
109034883714,0.392822,0.191223,0.469055,0.767456
109034904806,0.392517,0.190308,0.469177,0.767761
109034921349,0.39447,0.191284,0.469177,0.766541
109034943880,0.39502,0.192261,0.469238,0.765991
109034964798,0.39447,0.191895,0.469604,0.766113
109034981289,0.392944,0.191101,0.469604,0.76709
109035011398,0.391235,0.190552,0.469604,0.768127
109035024783,0.391235,0.191284,0.469116,0.76825
109035041744,0.391174,0.192322,0.469055,0.768066
109035063800,0.39032,0.192444,0.469482,0.768188
109035086459,0.389099,0.191284,0.46991,0.768799
109035100577,0.387634,0.190918,0.46991,0.769653
109035123755,0.387024,0.191284,0.469727,0.769958
109035147716,0.387451,0.193115,0.468994,0.769775
109035161286,0.386902,0.19397,0.468994,0.769775
109035183738,0.386475,0.194641,0.469849,0.769348
109035212434,0.385986,0.194458,0.470154,0.769409
109035220565,0.384399,0.193481,0.469299,0.770996
109035243791,0.383484,0.192749,0.46814,0.772339
109035266344,0.384338,0.193359,0.467468,0.772156
109035280552,0.385864,0.195312,0.466919,0.771301
109035303866,0.385254,0.195679,0.46759,0.771057
109035326298,0.384644,0.195251,0.468872,0.770691
109035341025,0.383911,0.194885,0.469299,0.770874
109035363758,0.382141,0.194031,0.469421,0.771912
109035386295,0.380188,0.193542,0.469299,0.773071
109035400603,0.378296,0.193359,0.469604,0.773865
109035423744,0.37738,0.193542,0.470276,0.773865
109035446318,0.377197,0.194092,0.470947,0.773438
109035460584,0.377197,0.194214,0.471313,0.773132
109035483739,0.376709,0.194336,0.471191,0.773438
109035506328,0.375916,0.194031,0.47113,0.773926
109035520683,0.375244,0.193665,0.471313,0.774231
109035543723,0.374329,0.19342,0.471619,0.774536
109035566480,0.373901,0.193359,0.471985,0.774597
109035587055,0.373962,0.193542,0.471985,0.774475
109035603839,0.374268,0.193787,0.471863,0.774353
109035626317,0.374817,0.194214,0.471619,0.774109
109035647332,0.374817,0.194275,0.471619,0.774109
109035663794,0.374878,0.194275,0.471558,0.774109
109035686281,0.374817,0.194275,0.471558,0.774109
109035707457,0.374817,0.194275,0.471619,0.774109
109035723846,0.375,0.194397,0.471497,0.774048
109035746276,0.375,0.194397,0.471497,0.774048
109035767573,0.375,0.194397,0.471497,0.774048
109035783778,0.375,0.194397,0.471497,0.774048
109035806475,0.375,0.194397,0.471741,0.773926
109035827401,0.374817,0.194641,0.471802,0.773865
109035843734,0.374268,0.194397,0.472046,0.774048
109035873785,0.37384,0.194092,0.472229,0.774231
109035887318,0.373596,0.194031,0.472473,0.774231
109035903812,0.373535,0.194153,0.472595,0.77417
109035926318,0.373413,0.194214,0.472839,0.774048
109035947378,0.373413,0.194153,0.472839,0.774048
109035963810,0.373352,0.194214,0.472656,0.77417
109035986301,0.373352,0.194275,0.472656,0.77417
109036008855,0.373352,0.194214,0.472656,0.77417
109036023812,0.373413,0.194214,0.472656,0.77417
109036046278,0.373413,0.194214,0.472656,0.77417
109036068877,0.373413,0.194214,0.472656,0.77417
109036083894,0.373413,0.19397,0.472595,0.774292
109036106348,0.373291,0.193665,0.472595,0.774414
109036128882,0.373291,0.193665,0.472595,0.774353
109036152858,0.373352,0.193665,0.472595,0.774353
109036166313,0.373352,0.193665,0.472595,0.774353
109036188797,0.37323,0.193604,0.472717,0.774353
109036203090,0.372986,0.193604,0.472839,0.774414
109036232504,0.372803,0.193481,0.4729,0.774475
109036248780,0.372559,0.19342,0.472961,0.774597
109036263146,0.372375,0.193359,0.473145,0.774597
109036286338,0.372375,0.193359,0.473145,0.774597
109036308788,0.372192,0.193298,0.473328,0.774536
109036323163,0.372192,0.193359,0.473511,0.774475
109036346301,0.372009,0.19342,0.473572,0.774475
109036368874,0.371582,0.193359,0.473694,0.774597
109036389880,0.371094,0.193054,0.473755,0.774902
109036406349,0.370789,0.192749,0.473816,0.775085
109036428796,0.370728,0.192688,0.473816,0.775085
109036443173,0.370728,0.192688,0.473816,0.775085
109036466691,0.371033,0.193054,0.473877,0.774841
109036488786,0.371094,0.193054,0.473877,0.774841
109036509831,0.37085,0.192993,0.473755,0.775024
109036533820,0.37085,0.192871,0.473572,0.775208
109036548803,0.37085,0.192871,0.473572,0.775208
109036569890,0.371216,0.193115,0.473633,0.774902
109036586357,0.371216,0.193176,0.473572,0.774902
109036608862,0.371216,0.192871,0.473633,0.774963
109036629919,0.371155,0.192444,0.473694,0.775085
109036646321,0.371765,0.192505,0.473633,0.77478
109036669091,0.372192,0.192566,0.47345,0.774658
109036689916,0.371765,0.191895,0.473999,0.774719
109036706295,0.37146,0.191528,0.474182,0.774841
109036728901,0.372131,0.191467,0.473694,0.774841
109036749828,0.372437,0.191101,0.473145,0.775085
109036765656,0.373047,0.190674,0.472839,0.775085
109036788835,0.373901,0.19043,0.472961,0.774658
109036811298,0.37616,0.191467,0.473145,0.773193
109036826314,0.377136,0.192566,0.472839,0.772705
109036848845,0.376221,0.191895,0.472839,0.773254
109036870072,0.374756,0.190552,0.472839,0.774292
109036886365,0.374573,0.189514,0.472656,0.77478
109036909276,0.37616,0.190186,0.472168,0.774109
109036929966,0.37854,0.191528,0.471497,0.77301
109036946768,0.379944,0.192444,0.471191,0.772339
109036970420,0.380493,0.192383,0.470764,0.772339
109036991379,0.380981,0.191467,0.470703,0.772339
109037006707,0.382385,0.191406,0.470032,0.772095
109037028897,0.383667,0.192139,0.46936,0.771667
109037058053,0.385742,0.193054,0.46875,0.770752
109037059675,0.387512,0.193481,0.468384,0.77002
109037079368,0.388184,0.193481,0.468506,0.769592
109037094278,0.38855,0.193115,0.468384,0.769592
109037116744,0.388977,0.192383,0.467651,0.769958
109037131843,0.390564,0.192627,0.466797,0.769653
109037154335,0.392517,0.193542,0.46582,0.768982
109037176650,0.394836,0.194336,0.465149,0.768066
109037191696,0.396118,0.194641,0.464722,0.767578
109037214171,0.395813,0.194275,0.464722,0.767822
109037236714,0.39624,0.193909,0.464478,0.767822
109037251800,0.396667,0.193054,0.464111,0.768005
109037274174,0.398438,0.192505,0.463989,0.767334
109037296761,0.399902,0.192566,0.463379,0.766907
109037311739,0.400696,0.192078,0.462524,0.76709
109037334208,0.402039,0.191528,0.461853,0.766968
109037356760,0.405029,0.1922,0.461121,0.765686
109037371768,0.40741,0.193237,0.460815,0.764282
109037394384,0.407715,0.192688,0.460999,0.76416
109037416681,0.406738,0.191711,0.460754,0.765137
109037431703,0.406616,0.191162,0.460571,0.765442
109037454377,0.407043,0.191284,0.460693,0.765076
109037476691,0.40741,0.191345,0.460999,0.764709
109037491697,0.406982,0.191345,0.461609,0.764587
109037514226,0.405396,0.190857,0.461975,0.76532
109037536776,0.404236,0.190491,0.462341,0.765808
109037553218,0.402649,0.190308,0.463135,0.766174
109037574254,0.401733,0.190796,0.464233,0.76593
109037596928,0.399292,0.190735,0.465149,0.766602
109037613231,0.397888,0.191406,0.465637,0.766907
109037641699,0.39502,0.192017,0.465698,0.768188
109037656731,0.391724,0.191284,0.465637,0.770081
109037673155,0.390198,0.190491,0.465881,0.770935
109037694330,0.388794,0.190491,0.466187,0.771423
109037716729,0.388489,0.189941,0.466003,0.771851
109037740686,0.389954,0.190369,0.46521,0.771484
109037754440,0.390808,0.191467,0.464478,0.77124
109037776853,0.390991,0.191772,0.4646,0.770935
109037793229,0.390625,0.191406,0.465027,0.770996
109037817621,0.38916,0.190369,0.465942,0.771423
109037836778,0.387756,0.189148,0.466431,0.772156
109037853327,0.387512,0.188965,0.466309,0.7724
109037874226,0.387817,0.189575,0.466003,0.772278
109037896695,0.387695,0.19043,0.466614,0.771729
109037914852,0.387146,0.19104,0.467896,0.771118
109037934244,0.386169,0.191284,0.468811,0.770935
109037964502,0.384399,0.190552,0.469177,0.77179
109037974707,0.38269,0.189941,0.469116,0.772888
109037994181,0.381897,0.189758,0.469238,0.773193
109038016715,0.381775,0.190369,0.469177,0.773193
109038035534,0.381165,0.190491,0.469666,0.773132
109038061776,0.380798,0.190369,0.470642,0.772766
109038076757,0.380615,0.190125,0.471313,0.772461
109038096770,0.3797,0.189941,0.471313,0.77301
109038114210,0.378418,0.189758,0.471069,0.773804
109038136700,0.377319,0.189941,0.47113,0.774231
109038154706,0.376099,0.19043,0.471497,0.774536
109038174318,0.375122,0.190796,0.472595,0.774231
109038196821,0.37439,0.19104,0.473694,0.773865
109038214684,0.372925,0.190674,0.474182,0.774353
109038234306,0.371155,0.189819,0.474243,0.775391
109038256774,0.370239,0.18927,0.474121,0.776001
109038274711,0.370361,0.189697,0.473938,0.77594
109038294288,0.370789,0.19043,0.473999,0.775574
109038316890,0.371033,0.190796,0.474121,0.775269
109038334681,0.371033,0.190796,0.474121,0.775269
109038354314,0.371033,0.190552,0.473877,0.775513
109038376811,0.371277,0.190247,0.473755,0.775513
109038394685,0.371338,0.190247,0.473755,0.775513
109038414354,0.37146,0.19043,0.473938,0.775269
109038436779,0.371643,0.190613,0.473938,0.775085
109038454779,0.371704,0.190613,0.473938,0.775085
109038474375,0.371643,0.190491,0.473938,0.775146
109038496906,0.371643,0.190491,0.473938,0.775146
109038514797,0.37146,0.190735,0.47406,0.775085
109038535747,0.371277,0.190918,0.474182,0.775085
109038556778,0.371033,0.190918,0.474304,0.775085
109038574751,0.370667,0.190918,0.474426,0.775208
109038595717,0.370422,0.190796,0.474548,0.775269
109038616738,0.370239,0.190979,0.47467,0.775269
109038634646,0.3703,0.191223,0.474731,0.775146
109038655719,0.370361,0.191406,0.474731,0.775024
109038676773,0.3703,0.191406,0.474792,0.775085
109038694677,0.3703,0.191406,0.474792,0.775085
109038715680,0.3703,0.191406,0.474792,0.775085
109038736774,0.370728,0.191345,0.47467,0.774902
109038754695,0.370667,0.191345,0.47467,0.774963
109038775731,0.370667,0.191345,0.474731,0.774963
109038796758,0.370972,0.191406,0.474487,0.774902
109038814645,0.371338,0.191528,0.474365,0.77478
109038837166,0.371338,0.191528,0.474365,0.77478
109038856763,0.371338,0.191528,0.474365,0.77478
109038874681,0.371338,0.191528,0.474365,0.77478
109038897264,0.371338,0.191528,0.474365,0.77478
109038916725,0.371216,0.191345,0.474182,0.775024
109038934691,0.371216,0.191345,0.474182,0.774963
109038957279,0.371216,0.191345,0.474182,0.774963
109038976767,0.371216,0.191345,0.474182,0.774963
109038994739,0.371216,0.191345,0.474182,0.774963
109039017383,0.371338,0.191284,0.47406,0.775024
109039036811,0.371277,0.191162,0.473999,0.775146
109039054716,0.371094,0.19104,0.474182,0.775146
109039077324,0.371094,0.19104,0.474182,0.775146
109039096815,0.371277,0.19104,0.474182,0.775085
109039114673,0.371582,0.191162,0.474121,0.774902
109039137319,0.371948,0.191223,0.474182,0.774658
109039156799,0.371582,0.191101,0.474243,0.774841
109039174822,0.370911,0.190613,0.474487,0.775146
109039203285,0.371033,0.190369,0.474548,0.775146
109039216794,0.371399,0.190308,0.474426,0.775024
109039234746,0.371826,0.190247,0.474243,0.774963
109039257278,0.37262,0.190735,0.473999,0.774597
109039276994,0.373047,0.19104,0.473877,0.774353
109039302273,0.372681,0.190857,0.473755,0.774658
109039317279,0.37262,0.190552,0.473389,0.775024
109039337536,0.373901,0.190979,0.472839,0.774658
109039353879,0.374695,0.191711,0.472473,0.774292
109039376487,0.37561,0.1922,0.472351,0.773743
109039397507,0.376282,0.192993,0.471924,0.773499
109039415579,0.375549,0.192993,0.47229,0.773682
109039436471,0.375122,0.192444,0.472839,0.773682
109039457534,0.375977,0.192505,0.472778,0.773254
109039480021,0.376648,0.192688,0.472412,0.773132
109039496441,0.377441,0.19342,0.472473,0.772522
109039517450,0.377197,0.194031,0.472839,0.772217
109039534003,0.376953,0.193359,0.4729,0.772461
109039556400,0.378296,0.192383,0.472168,0.772522
109039577556,0.380005,0.192444,0.471252,0.772278
109039593991,0.382446,0.193787,0.47052,0.771179
109039616460,0.383667,0.194885,0.470276,0.770447
109039637430,0.384338,0.194641,0.469604,0.770569
109039653950,0.384338,0.193726,0.468689,0.771362
109039676401,0.384338,0.193054,0.468079,0.771912
109039697441,0.38678,0.193726,0.467285,0.770996
109039713896,0.389526,0.195312,0.467102,0.769287
109039736398,0.39093,0.196472,0.467102,0.768311
109039758949,0.390686,0.196106,0.466919,0.768616
109039773939,0.388916,0.195251,0.466919,0.769775
109039796409,0.388733,0.19519,0.466553,0.770081
109039819907,0.389465,0.195618,0.466797,0.769409
109039833920,0.389282,0.195801,0.467102,0.769287
109039856450,0.389771,0.195557,0.467102,0.769104
109039879012,0.389099,0.194824,0.467224,0.769531
109039893943,0.389282,0.193848,0.467041,0.769836
109039918286,0.390381,0.193787,0.466675,0.769531
109039938917,0.391357,0.193848,0.466736,0.768982
109039953933,0.391724,0.193726,0.466797,0.768738
109039976508,0.39093,0.192505,0.466553,0.769653
109039999004,0.391235,0.191528,0.466003,0.770081
109040013280,0.393616,0.192688,0.465454,0.76886
109040036472,0.394836,0.193604,0.465454,0.768005
109040058920,0.394043,0.193176,0.466003,0.768188
109040073331,0.391724,0.191467,0.466248,0.769714
109040096488,0.390015,0.189941,0.466309,0.770874
109040118939,0.389954,0.189636,0.466431,0.770935
109040133389,0.391479,0.191101,0.46637,0.769836
109040162486,0.391785,0.192139,0.466431,0.769348
109040179026,0.390991,0.191895,0.466858,0.769592
109040193304,0.388245,0.190002,0.467041,0.771301
109040216433,0.38678,0.188599,0.466736,0.772583
109040238973,0.389709,0.190979,0.465698,0.771118
109040260106,0.392883,0.19458,0.464966,0.769043
109040276464,0.392944,0.196533,0.466492,0.767639
109040299174,0.390442,0.195923,0.468689,0.7677
109040320061,0.38678,0.193787,0.469543,0.769592
109040336468,0.38269,0.191711,0.469177,0.7724
109040359022,0.382019,0.191772,0.468567,0.773071
109040380071,0.381836,0.192749,0.468506,0.772949
109040395839,0.382751,0.194214,0.468994,0.77179
109040418969,0.383606,0.195435,0.469788,0.77063
109040441646,0.38385,0.195496,0.470459,0.770081
109040456522,0.382874,0.194702,0.470337,0.770813
109040478951,0.381592,0.193848,0.470154,0.77179
109040500253,0.381348,0.194824,0.46991,0.77179
109040516496,0.380981,0.196289,0.470032,0.771545
109040538952,0.380371,0.197571,0.471191,0.770813
109040560075,0.379517,0.198608,0.472717,0.77002
109040576537,0.378113,0.199158,0.473694,0.769958
109040599025,0.375183,0.198547,0.474182,0.77124
109040619981,0.371826,0.197754,0.474365,0.77301
109040635803,0.368958,0.197388,0.474365,0.774414
109040659002,0.366943,0.197266,0.474792,0.775208
109040680048,0.366821,0.198059,0.47522,0.77478
109040695889,0.367615,0.198914,0.475708,0.773865
109040718949,0.368225,0.199341,0.476013,0.773315
109040741526,0.368103,0.198975,0.476074,0.773376
109040756518,0.367249,0.198059,0.476196,0.773987
109040779015,0.366211,0.197327,0.476379,0.774536
109040801457,0.365784,0.197327,0.47644,0.774719
109040816446,0.365784,0.197632,0.476562,0.774536
109040838973,0.366089,0.198059,0.476685,0.774231
109040861361,0.366089,0.198059,0.476685,0.774231
109040882539,0.365906,0.197693,0.476685,0.774414
109040899042,0.365479,0.197266,0.476685,0.774719
109040921456,0.365479,0.197266,0.476685,0.774719
109040936768,0.365601,0.197327,0.476685,0.774658
109040959049,0.365906,0.19751,0.476685,0.774414
109040981463,0.365967,0.197571,0.476685,0.774414
109040995895,0.365845,0.197449,0.476807,0.774414
109041019012,0.365723,0.197266,0.476807,0.774536
109041041505,0.365723,0.197205,0.476868,0.774536
109041062587,0.365723,0.197205,0.476868,0.774536
109041078965,0.365845,0.197449,0.476868,0.774414
109041101500,0.365845,0.197449,0.476868,0.774353
109041115850,0.365906,0.197449,0.476868,0.774353
109041139261,0.365906,0.197449,0.476868,0.774353
109041161602,0.365906,0.197449,0.476868,0.774353
109041175854,0.365906,0.197449,0.476868,0.774353
109041199032,0.365906,0.197388,0.476868,0.774353
109041229006,0.365906,0.197388,0.476868,0.774353
109041242517,0.365906,0.197388,0.476868,0.774353
109041259040,0.365906,0.197388,0.476868,0.774353
109041281464,0.365906,0.197388,0.476868,0.774353
109041302690,0.365906,0.197388,0.476868,0.774353
109041319055,0.365906,0.197388,0.476868,0.774353
109041349171,0.365906,0.197388,0.476868,0.774353
109041362599,0.365906,0.197388,0.476868,0.774353
109041379029,0.365906,0.197388,0.476868,0.774353
109041401490,0.365967,0.197388,0.476868,0.774353
109041422569,0.365967,0.197388,0.476868,0.774353
109041439008,0.365967,0.197388,0.476868,0.774353
109041461535,0.365967,0.197388,0.476868,0.774353
109041482623,0.365967,0.197388,0.476868,0.774353
109041499023,0.366028,0.197388,0.476868,0.774292
109041521565,0.366028,0.197388,0.476868,0.774292
109041542528,0.366028,0.197388,0.476868,0.774292
109041559047,0.366028,0.197388,0.476868,0.774292
109041581546,0.366028,0.197327,0.476868,0.774292
109041602567,0.366272,0.197388,0.476868,0.774231
109041619014,0.366272,0.197388,0.476868,0.774231
109041641515,0.366272,0.197388,0.476868,0.774231
109041662648,0.366638,0.197327,0.476807,0.774109
109041678975,0.366638,0.197388,0.476746,0.774048
109041701509,0.366699,0.197388,0.476746,0.774048
109041724016,0.366699,0.197388,0.476746,0.774048
109041739024,0.366455,0.197083,0.476807,0.774231
109041761553,0.366577,0.196838,0.476929,0.774109
109041784126,0.366943,0.196899,0.47699,0.773926
109041799039,0.367004,0.196899,0.47699,0.773865
109041821516,0.366821,0.196777,0.476929,0.774048
109041844071,0.367004,0.196289,0.476929,0.774109
109041858364,0.367493,0.196228,0.476746,0.773987
109041881536,0.367859,0.196411,0.476746,0.773743
109041904034,0.367798,0.19635,0.476868,0.773743
109041918377,0.366943,0.195312,0.477417,0.774109
109041941577,0.367249,0.194641,0.477417,0.774109
109041964928,0.368042,0.194031,0.47699,0.774109
109041978898,0.369446,0.193787,0.476868,0.773621
109042001511,0.371521,0.19458,0.476868,0.7724
109042024098,0.373474,0.195557,0.476746,0.771301
109042038446,0.373657,0.195068,0.476501,0.771484
109042061552,0.373779,0.193359,0.476257,0.771973
109042084068,0.376404,0.19342,0.475403,0.77124
109042105079,0.378784,0.195374,0.474365,0.770203
109042121555,0.380432,0.197205,0.473572,0.769409
109042144134,0.380615,0.197205,0.473145,0.769592
109042158406,0.379822,0.196777,0.472534,0.770447
109042181602,0.379456,0.196045,0.472046,0.771118
109042203986,0.381592,0.196533,0.471497,0.770264
109042225240,0.383789,0.198181,0.471069,0.768982
109042241597,0.384705,0.19928,0.471375,0.768127
109042264037,0.383484,0.198425,0.471741,0.768677
109042285322,0.382141,0.197144,0.471497,0.769836
109042301521,0.381714,0.19574,0.471375,0.770508
109042324033,0.383545,0.19635,0.471252,0.76947
109042352596,0.385864,0.197937,0.471313,0.767883
109042361553,0.385742,0.197815,0.471741,0.7677
109042385576,0.383972,0.195557,0.471497,0.769348
109042405110,0.383789,0.194458,0.470825,0.770142
109042421578,0.385681,0.195129,0.470337,0.769348
109042444120,0.388123,0.19635,0.470398,0.767761
109042465091,0.38739,0.195557,0.470276,0.768372
109042481707,0.386902,0.193909,0.469849,0.769348
109042504050,0.388184,0.19397,0.469421,0.768921
109042525095,0.391296,0.195679,0.468811,0.767273
109042547763,0.392761,0.196777,0.468445,0.766479
109042564083,0.391418,0.195862,0.468323,0.767456
109042585266,0.390198,0.195007,0.468506,0.768188
109042600915,0.39032,0.195374,0.468994,0.7677
109042624025,0.39093,0.195923,0.46936,0.767029
109042646671,0.390442,0.195923,0.469971,0.766907
109042661556,0.388855,0.195007,0.470703,0.767517
109042684213,0.388794,0.195068,0.471069,0.767273
109042712576,0.388733,0.196045,0.471497,0.766846
109042721682,0.38678,0.195984,0.472351,0.767334
109042744116,0.384277,0.195007,0.47345,0.768127
109042766585,0.382263,0.194763,0.473938,0.768921
109042781652,0.382629,0.195984,0.473572,0.768616
109042810105,0.382446,0.197693,0.47345,0.768372
109042826516,0.38092,0.198242,0.473877,0.768738
109042840954,0.378662,0.197083,0.474365,0.769836
109042865502,0.376831,0.195557,0.474548,0.770996
109042886599,0.376648,0.195251,0.474121,0.771423
109042900927,0.37793,0.196472,0.473267,0.770996
109042924040,0.379822,0.198792,0.472778,0.769775
109042946638,0.380737,0.200378,0.472778,0.768921
109042960918,0.3797,0.199951,0.473206,0.769287
109042985009,0.37854,0.198914,0.473694,0.769836
109043006591,0.378235,0.198914,0.47406,0.769775
109043020857,0.377991,0.199829,0.473633,0.769897
109043044131,0.376831,0.200256,0.473877,0.770203
109043066592,0.376587,0.201233,0.474609,0.769592
109043089123,0.375,0.201782,0.475098,0.769958
109043104173,0.372192,0.200989,0.476013,0.770935
109043126564,0.370483,0.200867,0.477112,0.771118
109043147625,0.369141,0.201111,0.478149,0.771057
109043164059,0.367981,0.201355,0.479065,0.770996
109043187401,0.366394,0.201416,0.47998,0.771118
109043207676,0.364868,0.201355,0.480774,0.771423
109043224180,0.363098,0.201294,0.481445,0.771851
109043246606,0.361877,0.201416,0.481812,0.772156
109043267605,0.361572,0.201843,0.482117,0.772034
109043284021,0.361145,0.202209,0.482544,0.771851
109043306615,0.360535,0.202209,0.483154,0.771729
109043327686,0.359985,0.202148,0.483704,0.771667
109043344070,0.359436,0.201904,0.48407,0.771729
109043366617,0.359009,0.201721,0.484375,0.77179
109043388861,0.358521,0.201599,0.48468,0.771851
109043404135,0.358154,0.201782,0.484924,0.771851
109043426568,0.35791,0.202026,0.485229,0.771729
109043447691,0.357788,0.202271,0.485474,0.771545
109043470144,0.357483,0.202393,0.485535,0.771606
109043486548,0.356995,0.202087,0.485596,0.771851
109043507728,0.356689,0.201843,0.485718,0.772034
109043524098,0.356812,0.201843,0.485718,0.771973
109043546623,0.357056,0.201965,0.485657,0.771851
109043569101,0.357483,0.201965,0.485657,0.771606
109043584144,0.357788,0.201843,0.485657,0.771545
109043606634,0.358093,0.20166,0.485596,0.771484
109043612145,0.358337,0.201416,0.485474,0.771484
109043634535,0.358582,0.201294,0.485413,0.771423
109043649709,0.358948,0.201416,0.485352,0.771301
109043671995,0.359131,0.201538,0.485291,0.77124
109043694467,0.359192,0.201538,0.485291,0.77124
109043709477,0.359375,0.201538,0.485107,0.77124
109043731977,0.359497,0.201721,0.484863,0.771301
109043754642,0.359497,0.201721,0.484863,0.771301
109043769809,0.359497,0.201721,0.484863,0.771301
109043791929,0.359497,0.201721,0.484863,0.771301
109043817542,0.359558,0.20166,0.484741,0.771362
109043830966,0.359802,0.201538,0.484558,0.771423
109043852148,0.360107,0.201416,0.484436,0.771362
109043874549,0.360413,0.201355,0.484314,0.77124
109043889499,0.360718,0.201294,0.484253,0.771179
109043919706,0.360901,0.201172,0.484192,0.771179
109043934561,0.361084,0.201111,0.48407,0.771179
109043952445,0.361267,0.200928,0.484009,0.771179
109043972054,0.361328,0.200928,0.484009,0.771179
109043994560,0.361328,0.200928,0.484009,0.771179
109044009540,0.361328,0.200867,0.48407,0.771179
109044031990,0.361328,0.200867,0.48407,0.771179
109044054542,0.361328,0.200867,0.48407,0.771179
109044069605,0.361267,0.200867,0.48407,0.771179
109044092075,0.361267,0.200867,0.48407,0.771179
109044114485,0.361267,0.200867,0.48407,0.771179
109044129556,0.361267,0.200806,0.48407,0.771179
109044152051,0.361328,0.200684,0.483948,0.771301
109044174610,0.36145,0.200439,0.483948,0.771301
109044190968,0.36145,0.200439,0.483948,0.771301
109044212089,0.361633,0.200439,0.483887,0.771179
109044234471,0.361938,0.200439,0.483887,0.771057
109044250988,0.362122,0.200256,0.483826,0.771118
109044272158,0.362305,0.200073,0.483704,0.771118
109044294521,0.362549,0.200012,0.483643,0.771057
109044310902,0.362793,0.200195,0.483704,0.770874
109044332081,0.362793,0.200195,0.483643,0.770874
109044354589,0.362793,0.200195,0.483643,0.770874
109044370991,0.362793,0.200012,0.483643,0.770935
109044392027,0.362854,0.200012,0.483643,0.770935
109044422934,0.363037,0.200134,0.483765,0.770752
109044430969,0.363281,0.200134,0.483887,0.770569
109044451991,0.363098,0.199951,0.484009,0.770569
109044477505,0.362976,0.199707,0.48407,0.770691
109044490998,0.362976,0.199646,0.48407,0.770691
109044512021,0.362976,0.199646,0.48407,0.770691
109044534581,0.363892,0.200012,0.484131,0.770142
109044552388,0.364075,0.200439,0.483948,0.77002
109044573461,0.362305,0.19928,0.484314,0.770935
109044594527,0.361511,0.198242,0.484436,0.771484
109044612447,0.362427,0.197571,0.484253,0.771362
109044632199,0.36499,0.198303,0.483704,0.770325
109044654515,0.36676,0.19928,0.483826,0.769165
109044672444,0.367249,0.199402,0.484558,0.768433
109044692054,0.368591,0.199951,0.484192,0.767883
109044714549,0.368042,0.198059,0.483398,0.769165
109044732614,0.370056,0.197144,0.482605,0.76886
109044754962,0.374451,0.198975,0.481934,0.766663
109044774576,0.377747,0.202148,0.48114,0.764709
109044792493,0.37854,0.203735,0.48114,0.763916
109044812120,0.376953,0.202393,0.48053,0.765442
109044834726,0.375305,0.2005,0.480225,0.766968
109044852457,0.375488,0.200256,0.47998,0.76709
109044872248,0.377441,0.201721,0.479919,0.765747
109044894515,0.380249,0.203247,0.479919,0.763977
109044913417,0.380859,0.20343,0.479919,0.763672
109044932192,0.380249,0.201721,0.479797,0.764465
109044954639,0.379944,0.200806,0.479675,0.764954
109044972463,0.380188,0.200317,0.479492,0.765076
109044992092,0.381409,0.200012,0.479065,0.764771
109045014552,0.382751,0.19989,0.478333,0.764587
109045032532,0.384644,0.200195,0.4776,0.764038
109045052076,0.385803,0.200439,0.477539,0.763428
109045074624,0.386353,0.200623,0.477173,0.763367
109045092554,0.385803,0.199402,0.476807,0.76416
109045114962,0.386841,0.199097,0.476257,0.764038
109045134579,0.387878,0.199402,0.475952,0.763611
109045152504,0.388489,0.19989,0.475769,0.763306
109045175011,0.388184,0.199585,0.475708,0.763611
109045202073,0.388428,0.199158,0.475281,0.763855
109045212458,0.389221,0.198792,0.475098,0.763672
109045235147,0.390015,0.199219,0.475037,0.763184
109045254599,0.390381,0.19928,0.47522,0.762878
109045272486,0.389526,0.19873,0.475525,0.763245
109045293610,0.38855,0.197937,0.47583,0.763733
109045314550,0.388733,0.198059,0.476013,0.763489
109045332483,0.388855,0.198853,0.476746,0.762817
109045353524,0.387573,0.199158,0.477539,0.762878
109045374616,0.385498,0.198547,0.478027,0.763794
109045392499,0.382324,0.196899,0.478333,0.765625
109045413507,0.382263,0.196594,0.478088,0.765869
109045434519,0.383179,0.197876,0.478149,0.765076
109045452631,0.383667,0.198975,0.478577,0.764221
109045473577,0.382263,0.19873,0.479431,0.764465
109045494742,0.379761,0.197571,0.479675,0.765869
109045512508,0.377808,0.196594,0.479553,0.767151
109045536876,0.376404,0.19635,0.479553,0.767944
109045554804,0.377075,0.19696,0.47937,0.767517
109045572476,0.37854,0.198425,0.479614,0.766296
109045595109,0.379456,0.199768,0.480286,0.765076
109045614653,0.379028,0.199829,0.480164,0.76532
109045632573,0.378723,0.200623,0.479614,0.765625
109045655109,0.377136,0.201233,0.479004,0.766663
109045674613,0.37561,0.200806,0.478943,0.767517
109045692539,0.374573,0.200195,0.479309,0.768005
109045715039,0.375244,0.200806,0.479431,0.767395
109045734566,0.376038,0.201294,0.480164,0.766418
109045752601,0.37561,0.200989,0.48114,0.766113
109045774990,0.374451,0.200195,0.481567,0.766602
109045794768,0.372925,0.199951,0.481567,0.767395
109045813160,0.370789,0.200012,0.481628,0.768433
109045834204,0.369019,0.200012,0.482056,0.768982
109045854784,0.368469,0.200806,0.483154,0.768372
109045871715,0.36908,0.202515,0.484131,0.766968
109045894273,0.368591,0.203552,0.485046,0.766418
109045915401,0.366211,0.203003,0.485474,0.767395
109045931661,0.363037,0.201599,0.485718,0.769104
109045954270,0.360962,0.200867,0.48584,0.770203
109045975284,0.360229,0.201172,0.486023,0.770325
109045991684,0.360535,0.202026,0.486206,0.769836
109046014220,0.361084,0.202454,0.486572,0.769226
109046035247,0.361633,0.202576,0.486694,0.76886
109046051724,0.361572,0.202148,0.486572,0.769104
109046074237,0.361084,0.201355,0.48645,0.769592
109046095347,0.360962,0.200867,0.486389,0.769836
109046111864,0.361389,0.201111,0.486267,0.769653
109046141686,0.362,0.201599,0.486206,0.769287
109046155235,0.362366,0.201904,0.486206,0.769043
109046171718,0.362427,0.201843,0.486206,0.769043
109046194282,0.362427,0.201843,0.486206,0.769043
109046215477,0.362427,0.201782,0.486206,0.769043
109046231715,0.36261,0.201904,0.486267,0.76886
109046254238,0.36261,0.201904,0.486267,0.76886
109046275501,0.362671,0.201904,0.486267,0.76886
109046292087,0.362671,0.201904,0.486267,0.76886
109046314379,0.362671,0.201904,0.486267,0.76886
109046335232,0.362488,0.201904,0.48645,0.768799
109046352795,0.362305,0.202026,0.486633,0.768799
109046374233,0.362305,0.202026,0.486633,0.768799
109046395265,0.362305,0.202026,0.486633,0.768799
109046419264,0.362305,0.202026,0.486633,0.768799
109046434318,0.362244,0.202026,0.486633,0.768799
109046456715,0.362244,0.202026,0.486633,0.768799
109046471745,0.362427,0.201904,0.486511,0.768799
109046494660,0.36261,0.201782,0.486389,0.76886
109046516745,0.362671,0.201599,0.486267,0.768921
109046531731,0.363098,0.20166,0.486206,0.768738
109046555060,0.363098,0.20166,0.486206,0.768738
109046576702,0.363525,0.201721,0.486084,0.768616
109046591054,0.36377,0.201721,0.486084,0.768555
109046614312,0.36377,0.201721,0.486084,0.768494
109046636744,0.36377,0.20166,0.486084,0.768494
109046651029,0.363708,0.20166,0.486084,0.768555
109046674323,0.363892,0.201782,0.486145,0.768372
109046696702,0.363892,0.201782,0.486145,0.768372
109046711036,0.363525,0.201538,0.486267,0.768555
109046734215,0.363342,0.201355,0.486267,0.768677
109046756687,0.363281,0.201355,0.486267,0.768677
109046771125,0.363525,0.201416,0.486145,0.768616
109046794241,0.363831,0.201355,0.486145,0.768494
109046824358,0.364258,0.201538,0.485962,0.768372
109046831104,0.364502,0.201355,0.485718,0.768494
109046855201,0.364197,0.200745,0.485657,0.768799
109046876769,0.364258,0.200378,0.485779,0.768799
109046891594,0.365112,0.200562,0.485718,0.768433
109046914261,0.36554,0.200684,0.485657,0.768188
109046937177,0.365662,0.200562,0.485474,0.768311
109046957808,0.365662,0.200378,0.485168,0.768555
109046974731,0.365906,0.200256,0.484802,0.768677
109046996718,0.365906,0.200256,0.484802,0.768677
109047017879,0.366821,0.200378,0.484985,0.768127
109047034353,0.366089,0.199768,0.485474,0.768311
109047056771,0.365356,0.198792,0.485962,0.768616
109047077967,0.366211,0.198792,0.485596,0.768372
109047094321,0.367249,0.199158,0.484985,0.768188
109047116715,0.367676,0.198914,0.485596,0.7677
109047138026,0.369385,0.199402,0.486572,0.766113
109047154300,0.371887,0.198975,0.485901,0.765442
109047176765,0.374512,0.199219,0.484619,0.764893
109047197796,0.37738,0.201599,0.483337,0.763733
109047214370,0.379211,0.203491,0.48291,0.762573
109047236825,0.379395,0.203735,0.48291,0.76239
109047257786,0.377747,0.202576,0.482483,0.763733
109047274288,0.376709,0.201172,0.482117,0.764893
109047296770,0.377747,0.20166,0.481689,0.764526
109047317856,0.380432,0.203918,0.481201,0.762878
109047334443,0.381226,0.204529,0.481018,0.762451
109047356742,0.380066,0.20343,0.481445,0.763062
109047379316,0.379089,0.201843,0.48114,0.76416
109047394300,0.379639,0.200989,0.480896,0.764282
109047416721,0.382324,0.201904,0.480408,0.763
109047439314,0.384521,0.202698,0.480347,0.761719
109047454286,0.384277,0.202087,0.480591,0.761841
109047476826,0.383057,0.200256,0.480286,0.763184
109047499361,0.383301,0.199585,0.479675,0.76355
109047514288,0.385376,0.200195,0.478882,0.762878
109047538279,0.388123,0.201294,0.478455,0.761475
109047559290,0.388062,0.201172,0.478333,0.761597
109047580393,0.38678,0.199768,0.478027,0.762817
109047596855,0.387146,0.19928,0.477295,0.763184
109047619281,0.389648,0.199951,0.476685,0.762146
109047633637,0.391602,0.200989,0.476746,0.760803
109047656822,0.391724,0.200928,0.477112,0.760559
109047679306,0.390442,0.19989,0.477539,0.76123
109047693645,0.389038,0.198975,0.477783,0.762024
109047716784,0.389526,0.199463,0.477966,0.761536
109047739298,0.389587,0.200684,0.47821,0.761047
109047753612,0.387695,0.2005,0.478516,0.761841
109047776855,0.385986,0.198914,0.478577,0.763062
109047799425,0.385925,0.198181,0.478455,0.763367
109047813580,0.387024,0.199341,0.478271,0.762634
109047836813,0.388916,0.200562,0.478271,0.761353
109047859313,0.389282,0.201111,0.478516,0.760864
109047874384,0.387451,0.200256,0.479004,0.761719
109047896797,0.385559,0.198975,0.479492,0.762695
109047919313,0.383667,0.197815,0.480042,0.763611
109047940363,0.382874,0.197815,0.480347,0.763855
109047956842,0.382507,0.198364,0.480286,0.763916
109047985375,0.382019,0.198914,0.480713,0.763733
109048000611,0.381104,0.199036,0.48114,0.763916
109048016818,0.380188,0.19928,0.481201,0.764221
109048039359,0.379883,0.200256,0.481079,0.764221
109048060465,0.379333,0.201782,0.481018,0.76416
109048082845,0.378174,0.202454,0.481262,0.764343
109048099421,0.376831,0.202881,0.481995,0.764465
109048120313,0.376099,0.203003,0.48291,0.764221
109048136770,0.374939,0.202698,0.483643,0.764404
109048166781,0.373291,0.202637,0.483765,0.765137
109048180366,0.371033,0.202148,0.484314,0.766052
109048196743,0.369202,0.201965,0.485107,0.766479
109048219297,0.367981,0.202209,0.486084,0.766357
109048240373,0.367432,0.202637,0.487305,0.765747
109048256816,0.366577,0.202576,0.488098,0.765686
109048279305,0.365051,0.201721,0.488464,0.766357
109048300352,0.36377,0.200806,0.488525,0.767212
109048316796,0.363037,0.200684,0.488586,0.767517
109048339336,0.36322,0.201294,0.488586,0.767273
109048361646,0.363647,0.202087,0.488464,0.766968
109048376797,0.363953,0.202271,0.488525,0.766724
109048399420,0.364014,0.202271,0.488403,0.766724
109048421797,0.363831,0.202148,0.488037,0.76709
109048436806,0.363647,0.20166,0.488037,0.767334
109048459356,0.363647,0.20166,0.488037,0.767334
109048481810,0.363953,0.201599,0.488098,0.767151
109048496157,0.364258,0.20166,0.48822,0.766907
109048519323,0.364258,0.20166,0.48822,0.766907
109048541817,0.364319,0.201721,0.48822,0.766907
109048556198,0.364014,0.201782,0.48822,0.767029
109048579327,0.363525,0.201721,0.488464,0.76709
109048601766,0.363159,0.201599,0.488708,0.767151
109048616202,0.362732,0.201416,0.488892,0.767273
109048639311,0.362732,0.201416,0.488953,0.767273
109048669800,0.362732,0.201416,0.488953,0.767273
109048676118,0.362732,0.201416,0.488953,0.767273
109048699428,0.362732,0.201416,0.488953,0.767273
109048721790,0.362549,0.201233,0.489014,0.767334
109048736118,0.362305,0.20105,0.488953,0.767517
109048759374,0.362305,0.200989,0.489014,0.767517
109048781820,0.362488,0.20105,0.488831,0.767517
109048802903,0.362732,0.201111,0.488708,0.767517
109048819379,0.362976,0.20105,0.488586,0.767456
109048841838,0.363342,0.200867,0.488525,0.767334
109048862879,0.363342,0.200867,0.488586,0.767334
109048879316,0.363647,0.200867,0.488525,0.767212
109048901809,0.363953,0.200806,0.488464,0.767151
109048922838,0.364136,0.200745,0.488342,0.767151
109048939288,0.36438,0.200745,0.488342,0.767029
109048969320,0.364441,0.200745,0.488342,0.766968
109048982860,0.364441,0.200745,0.488342,0.766968
109048999359,0.365051,0.200928,0.488464,0.766602
109049021830,0.364868,0.20105,0.488525,0.766602
109049042915,0.363892,0.200684,0.488831,0.766968
109049059374,0.362549,0.199463,0.489197,0.7677
109049081846,0.362183,0.198425,0.489685,0.767822
109049102893,0.363037,0.198853,0.489624,0.767334
109049119366,0.364136,0.19928,0.489319,0.766907
109049141833,0.364441,0.199646,0.489441,0.766541
109049163053,0.36438,0.200134,0.489624,0.766357
109049179370,0.364136,0.200073,0.489624,0.766541
109049202851,0.363464,0.199341,0.489502,0.76709
109049223013,0.36322,0.199036,0.489502,0.767273
109049239298,0.363586,0.19928,0.489563,0.767029
109049262008,0.363892,0.199341,0.489746,0.766724
109049284387,0.363892,0.199341,0.489746,0.766785
109049299366,0.364319,0.199036,0.489746,0.766602
109049321876,0.365112,0.199158,0.489319,0.766418
109049344448,0.365784,0.199463,0.489319,0.766113
109049359462,0.367249,0.200195,0.489319,0.765198
109049381840,0.367859,0.200317,0.489258,0.764893
109049404362,0.36908,0.199341,0.487915,0.765442
109049419380,0.370239,0.19873,0.486511,0.765869
109049441857,0.373352,0.200562,0.485779,0.764404
109049464396,0.376038,0.203003,0.485535,0.762573
109049478746,0.375671,0.202637,0.485168,0.763062
109049501828,0.373596,0.200134,0.484924,0.764954
109049524413,0.372498,0.19812,0.484497,0.766235
109049538683,0.374634,0.197937,0.483948,0.765625
109049561868,0.378845,0.199768,0.483704,0.763245
109049584407,0.380676,0.20166,0.483948,0.761658
109049605430,0.378601,0.200806,0.484436,0.762573
109049621848,0.376221,0.198547,0.484131,0.764587
109049644351,0.375366,0.197388,0.484009,0.765381
109049665583,0.37677,0.198181,0.484009,0.764404
109049681912,0.378906,0.199341,0.48407,0.763062
109049704384,0.378967,0.199402,0.483948,0.763062
109049718669,0.378357,0.197876,0.483582,0.763977
109049749345,0.379089,0.197571,0.482971,0.764099
109049764371,0.380798,0.197876,0.482788,0.763306
