timestamp,emg1,emg2,emg3,emg4,emg5,emg6,emg7,emg8
1441193758101689,-7,-4,0,-6,-3,0,-1,-8
1441193758101689,-4,2,-2,-2,1,-3,1,-2
1441193758102685,4,-3,-3,0,-1,-3,0,5
1441193758102685,1,0,-1,0,-3,-2,0,0
1441193758108687,-2,0,0,2,0,-2,-4,-5
1441193758108687,-1,-1,-3,-3,0,-5,-1,-1
1441193758108687,1,0,-2,0,-2,0,3,1
1441193758108687,1,-1,1,-11,0,-2,-1,-2
1441193758110733,-5,-2,-2,2,-4,0,-2,-4
1441193758110733,-4,-1,3,0,-1,0,-2,-4
1441193758115686,3,0,3,1,-3,-3,-2,6
1441193758115686,2,0,-4,-1,-2,2,-1,2
1441193758128903,-4,1,2,-3,0,-2,-2,-6
1441193758128903,-2,-1,-4,0,1,-2,-1,-3
1441193758137695,0,0,-1,-2,3,-2,3,4
1441193758137695,0,1,2,2,-7,0,-2,-1
1441193758142890,0,0,0,-3,0,0,-1,-6
1441193758142890,-1,-6,-3,7,-7,3,-2,-1
1441193758157741,2,0,0,-22,-2,2,0,2
1441193758157741,-1,-4,2,6,0,-4,-1,1
1441193758166723,-3,1,-4,1,-2,0,-1,-5
1441193758166723,-1,0,4,-3,-4,-4,0,-2
1441193758174688,0,-1,-1,0,1,-1,2,-2
1441193758174688,1,0,-1,0,2,0,-1,-4
1441193758221691,-2,-2,-3,3,-4,-2,1,-1
1441193758221691,5,0,-3,-17,-1,-4,1,8
1441193758222693,0,-2,-1,-2,0,0,-1,-3
1441193758222693,-5,-2,0,0,0,0,-3,-5
1441193758223687,-2,4,-2,-1,2,1,-1,1
1441193758223687,3,-2,-2,2,-3,1,6,4
1441193758225709,3,0,1,-2,3,-1,-1,-2
1441193758225709,-6,1,-1,0,-3,-2,-1,-6
1441193758234688,-5,-2,1,-7,2,1,-3,-1
1441193758234688,2,-2,0,3,2,-3,-3,4
1441193758240806,2,2,-2,-2,-6,0,2,4
1441193758240806,-2,-1,-4,-1,0,1,-3,-6
1441193758249691,-5,-1,3,-11,1,-1,-1,-4
1441193758249691,1,-1,1,8,2,0,3,4
1441193758262750,0,-1,1,-3,0,0,-2,1
1441193758262750,-2,3,-2,-2,-1,0,0,-6
1441193758272690,0,-1,-1,3,-2,-2,1,-2
1441193758272690,3,-3,-2,3,1,1,-1,4
1441193758277964,0,1,1,0,-1,-5,-1,-1
1441193758277964,-3,-2,6,-2,3,-2,-2,-4
1441193758294693,2,-1,0,5,-3,-1,-3,-1
1441193758294693,1,-1,-1,-11,1,-1,-1,-1
1441193758300695,-1,-1,1,12,-2,2,-1,-2
1441193758300695,-1,-3,-4,-8,-2,-1,-1,1
1441193758310693,1,-1,-4,1,-2,-1,4,0
1441193758310693,-1,-2,0,0,-2,1,-1,-1
1441193758322944,1,2,-5,-6,3,-1,-2,-1
1441193758322944,-3,0,2,5,-1,1,-2,-3
1441193758331694,1,0,-1,-1,0,-1,-3,2
1441193758331694,1,1,-2,7,1,1,0,-1
1441193758337951,-1,-2,-1,-3,0,0,-3,0
1441193758337951,-2,0,-1,-9,-3,-3,-1,-1
1441193758354694,0,-3,-2,7,1,1,0,0
1441193758354694,-1,-2,0,-13,-4,-5,1,0
1441193758360696,-2,0,-2,4,-1,-1,-4,-1
1441193758360696,0,-4,1,2,1,2,-1,-1
1441193758369695,1,-1,1,0,0,0,0,-1
1441193758369695,-2,-4,1,2,3,-1,-2,-1
1441193758382895,-1,-1,-1,-1,1,-3,3,-1
1441193758382895,0,1,0,3,-2,0,-1,0
1441193758391694,-1,-3,0,-3,0,-1,2,-2
1441193758391694,1,0,-2,3,-2,-2,-1,1
1441193758397692,-3,-2,1,9,-5,-2,0,-1
1441193758397692,-1,0,-4,-14,-1,0,0,-4
1441193758414692,-2,0,-1,0,-1,0,0,2
1441193758414692,-2,-2,-2,-11,-2,2,-1,-2
1441193758420775,-1,-1,1,-4,0,1,-1,-1
1441193758420775,0,0,0,0,-2,-2,-3,-2
1441193758429692,0,-2,0,-3,2,-1,-2,-1
1441193758429692,-1,2,0,3,-3,1,1,-2
1441193758442689,-2,-3,0,2,-2,2,0,-1
1441193758442689,-1,-2,-5,-4,0,1,2,0
1441193758451692,1,1,2,10,-1,1,-1,2
1441193758451692,-1,-3,-5,11,-2,-3,-1,3
1441193758457874,1,0,0,-23,0,2,-2,-2
1441193758457874,-1,1,1,5,1,-2,-1,0
1441193758474697,1,-2,-4,-1,-5,-2,1,0
1441193758474697,0,0,-2,-7,-2,0,0,-1
1441193758480829,-1,1,-3,9,0,0,2,-4
1441193758480829,-1,-2,1,-5,-2,-2,-2,-2
1441193758489693,0,-3,-9,-13,-2,-1,0,0
1441193758489693,-1,-3,4,7,-4,2,-1,1
1441193758502696,-4,0,-2,-6,-2,-2,0,-2
1441193758502696,0,-1,-1,4,1,-4,-3,-2
1441193758512693,-1,1,0,0,0,0,0,0
1441193758512693,-1,0,2,4,-3,-3,-2,0
1441193758525897,-3,-1,-1,-14,-1,-2,-1,0
1441193758525897,-1,-3,0,13,-5,-2,1,-2
1441193758534698,0,2,-1,-3,-4,-1,-1,-1
1441193758534698,0,1,5,2,1,-1,0,0
1441193758540716,-1,-1,-1,-9,-3,1,-2,-2
1441193758540716,-5,0,-2,3,2,2,1,-3
1441193758549694,7,0,-1,3,0,-2,-3,1
1441193758549694,-1,-3,-3,2,-1,2,-1,-3
1441193758562930,1,-3,1,-10,-4,-1,1,-4
1441193758562930,-4,1,0,2,-2,-3,0,-2
1441193758571696,-3,-2,0,-1,-5,-1,-1,-1
1441193758571696,0,-1,2,-4,1,0,1,0
1441193758585779,-3,-2,0,18,0,-3,-1,1
1441193758585779,5,2,-4,-1,-4,0,-2,-1
1441193758594695,-1,-1,1,-2,-2,-1,1,1
1441193758594695,0,3,-5,-8,1,-1,0,0
1441193758600800,0,0,2,7,1,0,-1,-2
1441193758600800,0,-2,0,-5,-1,1,0,0
1441193758609697,-1,-2,0,3,0,-2,-1,0
1441193758609697,-2,-2,0,-1,-1,-1,-4,0
1441193758623010,0,-1,2,2,-2,1,-4,-1
1441193758623010,-2,0,1,3,-1,0,1,0
1441193758632695,-1,-2,0,4,3,-2,2,-2
1441193758632695,1,1,-3,-2,2,-2,0,-1
1441193758653925,0,1,-4,0,-2,-2,-1,-2
1441193758653925,1,-3,0,6,-1,1,-3,0
1441193758655696,-1,-1,-3,6,4,0,-1,-1
1441193758655696,0,0,1,2,-2,-2,-2,-2
1441193758660830,-1,0,-5,-1,-2,-3,-1,0
1441193758660830,-2,-2,1,-2,1,-2,1,0
1441193758669697,-2,-1,-1,-4,-2,0,-2,1
1441193758669697,-1,-1,-1,-2,-1,1,-1,-1
1441193758682758,-1,0,-1,2,3,-1,-4,-3
1441193758682758,1,-2,-1,6,-5,-1,-3,1
1441193758691699,0,0,1,-5,-3,-2,2,-1
1441193758691699,-2,-3,-6,-6,3,0,0,-1
1441193758705857,0,-1,-1,4,-2,0,0,-2
1441193758705857,0,1,-3,-10,0,-3,-1,-1
1441193758714702,0,-1,4,14,-3,1,0,-1
1441193758714702,1,0,1,2,-5,0,2,-1
1441193758720819,-2,-2,-1,-3,1,0,0,-1
1441193758720819,0,-3,-2,-1,1,-5,-1,1
1441193758729702,-1,0,-3,-18,-3,-1,-4,-2
1441193758729702,0,1,3,6,-3,-1,-1,0
1441193758742958,-1,-2,-3,-2,0,-1,4,0
1441193758742958,0,-3,0,-3,1,2,0,-1
1441193758751741,-2,-3,-2,2,-3,-5,-1,2
1441193758751741,-1,-4,-2,-2,-1,-3,-2,0
1441193758765852,-1,-1,1,-2,-2,0,-1,-3
1441193758765852,-2,0,0,3,-4,1,-2,1
1441193758774702,1,0,-2,-3,1,-2,2,0
1441193758774702,0,-4,0,-2,1,3,-6,-4
1441193758780699,-2,-1,-2,-18,-5,-1,1,1
1441193758780699,-1,-1,-1,-5,1,0,-2,-2
1441193758789702,-1,-2,1,7,0,1,-2,-3
1441193758789702,0,4,1,0,-3,-1,0,-4
1441193758802914,0,1,1,4,-2,-1,-2,-2
1441193758802914,-1,1,0,-3,-2,0,1,-1
1441193758812703,-1,-1,0,-1,0,0,-2,3
1441193758812703,-1,1,-3,-3,1,-2,-1,0
1441193758825703,2,0,0,2,-2,-3,-1,-2
1441193758825703,0,1,-1,2,-1,-3,2,0
1441193758834699,0,-1,0,0,-4,2,-1,1
1441193758834699,-1,-4,-1,0,-4,-1,-2,-1
1441193758840777,0,2,1,2,3,-2,-5,-2
1441193758840777,0,-3,-2,11,-4,-2,0,-2
1441193758855846,-1,-2,-3,-10,1,-2,1,-1
1441193758855846,0,1,-5,-13,1,-1,-2,-1
1441193758862787,-1,-1,-2,6,1,0,0,-1
1441193758862787,0,1,0,-5,6,-1,-3,-1
1441193758872706,2,-2,2,-2,2,-1,-2,-1
1441193758872706,0,-2,-3,4,-5,0,3,1
1441193758885850,-1,-1,2,0,-2,3,-2,-1
1441193758885850,1,-2,-2,-2,-7,0,-1,2
1441193758894705,-7,3,-2,-8,-1,1,-3,1
1441193758894705,17,-2,1,3,3,-1,-3,-4
1441193758900767,-4,-1,-3,-3,0,2,1,-2
1441193758900767,0,-4,-1,-1,-2,-1,0,-3
1441193758915915,-2,0,-2,-2,-4,1,-2,2
1441193758915915,-6,-1,2,2,-1,-2,1,-2
1441193758922718,0,1,-1,-8,1,-2,-1,-2
1441193758922718,1,0,-2,15,1,-2,-3,2
1441193758932700,0,-4,-2,1,-1,-1,0,-1
1441193758932700,-5,0,-2,-3,3,1,3,1
1441193758945843,-2,-1,1,9,-2,0,-3,1
1441193758945843,-5,-1,-2,-6,3,0,-1,-1
1441193758954703,2,0,1,0,0,-3,-3,0
1441193758954703,-2,-2,0,6,-3,-3,1,0
1441193758960762,-1,-5,0,5,1,0,3,-2
1441193758960762,0,1,-3,-16,-3,0,-1,0
1441193758975707,-1,-2,2,11,1,1,2,0
1441193758975707,-1,-5,0,0,-2,0,0,-2
1441193758982961,-2,-3,-1,1,-1,0,-3,0
1441193758982961,1,-1,-2,-3,-3,0,1,-1
1441193758991703,0,-1,-2,-5,2,0,1,-2
1441193758991703,-4,-1,1,-3,0,-1,-1,1
1441193759005832,-1,0,-3,0,-8,0,0,-1
1441193759005832,0,1,2,-2,0,-2,-1,0
1441193759012952,-1,0,-3,-2,-2,-3,-2,0
1441193759012952,-2,0,-3,4,-1,1,-3,-3
1441193759020864,1,-3,0,2,0,-2,-1,-3
1441193759020864,1,0,-4,-4,-1,1,-1,1
1441193759035705,1,-1,2,0,-4,-2,2,-2
1441193759035705,-3,-1,0,-3,-1,-2,1,1
1441193759042963,-1,4,1,-6,1,0,-3,-4
1441193759042963,-2,-4,2,-1,-2,0,1,-2
1441193759051704,1,-4,0,3,1,0,0,0
1441193759051704,0,0,1,2,-4,2,1,-2
1441193759065960,-1,0,3,5,-1,-2,-1,1
1441193759065960,-3,0,-4,5,-1,3,-1,-1
1441193759073705,-2,-4,-1,1,2,0,-1,0
1441193759073705,-1,-2,-2,-5,-3,-2,0,-1
1441193759081703,0,1,-1,-3,1,-5,-1,-1
1441193759081703,0,-4,-3,-5,-1,-4,-1,-2
1441193759095703,-1,-1,-1,-1,-1,-1,1,0
1441193759095703,-1,1,3,-1,0,0,-2,-1
1441193759102805,-1,0,-3,0,1,2,-2,-1
1441193759102805,-1,-2,-3,-2,-3,-1,1,-1
1441193759112709,0,1,0,3,-3,-1,-2,-1
1441193759112709,-1,2,-1,-21,0,-1,-1,0
1441193759125840,-1,-2,-1,4,-1,0,0,0
1441193759125840,0,0,5,-6,-3,0,1,-2
1441193759132706,1,-1,-2,0,2,-1,-1,-2
1441193759132706,-1,-1,-1,11,1,0,-3,1
1441193759140703,-1,-2,-1,-7,-2,1,-2,-2
1441193759140703,0,1,2,2,1,-2,1,0
1441193759155806,1,0,-1,-4,-4,0,0,1
1441193759155806,1,2,2,-3,1,1,-4,-3
1441193759162948,-1,-3,0,-6,1,-2,-2,-1
1441193759162948,-2,1,1,3,0,-2,-2,-1
1441193759171709,0,-3,0,6,-2,1,1,-1
1441193759171709,-2,1,-3,1,4,-1,-2,-4
1441193759185950,-1,-1,-2,-2,1,0,2,0
1441193759185950,-1,-1,1,-1,-4,1,-2,1
1441193759192980,-2,1,0,-4,0,-2,1,-1
1441193759192980,-2,-3,-3,2,-4,0,0,0
1441193759208824,-2,3,-1,5,1,-1,0,-4
1441193759208824,-5,-1,-2,5,2,0,1,-1
1441193759215844,7,0,-3,-5,-1,-1,0,2
1441193759215844,-1,-1,-1,5,-4,-3,1,-1
1441193759231921,-3,-2,2,0,-2,0,2,1
1441193759231921,1,1,0,-6,-2,2,-1,-3
1441193759233711,-5,-2,2,5,1,-4,-1,2
1441193759233711,0,0,-2,5,3,0,-1,-2
1441193759245949,1,-2,-2,-3,-1,-5,-2,1
1441193759245949,-3,-2,-1,3,1,1,-2,0
1441193759254712,-1,0,0,-7,0,2,-1,0
1441193759254712,0,-2,0,-3,-1,-5,-2,1
1441193759268910,-3,1,2,4,-4,-1,1,-3
1441193759268910,1,-2,1,4,-3,-2,1,-1
1441193759275749,0,1,1,-2,-1,1,-3,-1
1441193759275749,2,-2,2,-3,1,0,1,-1
1441193759291782,-2,0,-3,-2,-1,0,-3,-2
1441193759291782,0,1,-4,-6,6,-2,-1,-1
1441193759293706,0,0,-2,2,-3,4,1,-2
1441193759293706,-3,-2,1,1,0,-2,0,-1
1441193759306711,1,-1,-1,-3,-1,-2,-4,1
1441193759306711,-1,-1,0,1,2,-1,0,0
1441193759312775,-3,1,0,-1,-1,0,-2,-2
1441193759312775,-2,0,0,-1,-4,-1,-1,-3
1441193759329731,-1,-1,0,3,-2,1,0,1
1441193759329731,0,1,0,0,2,0,-1,2
1441193759335835,0,-1,-1,-4,2,-3,0,0
1441193759335835,-1,-2,-3,-17,-1,-2,-1,-1
1441193759351951,-1,1,-1,14,-2,0,-2,-1
1441193759351951,0,-2,0,-2,-1,-1,1,0
1441193759353714,0,-1,-3,2,-3,-1,0,1
1441193759353714,-2,1,-3,4,-2,-2,1,-3
1441193759365849,0,-1,2,-6,-2,-3,-2,-1
1441193759365849,1,-3,2,-2,-6,2,1,-2
1441193759374710,0,-1,-1,3,0,0,-1,-1
1441193759374710,-2,-3,1,5,-3,3,-1,-1
1441193759388711,-2,0,-4,-9,1,1,2,-3
1441193759388711,0,-2,3,-6,0,1,0,-1
1441193759396713,-2,1,1,11,-1,-3,-2,0
1441193759396713,-1,0,1,5,-1,1,-3,-1
1441193759412003,0,0,-5,-8,-1,2,0,0
1441193759412003,0,0,1,-4,0,-1,-3,2
1441193759413715,-1,-2,0,-6,-2,-3,0,0
1441193759413715,-1,-1,-2,2,2,-5,-2,-2
1441193759426709,-1,-3,-1,2,0,-2,-1,-2
1441193759426709,-1,-1,-1,3,-3,-1,-1,0
1441193759434709,-1,-5,-2,-2,1,-2,-2,0
1441193759434709,-1,4,-1,-1,0,0,-1,1
1441193759448908,-2,-2,-3,-15,0,0,1,-5
1441193759448908,-2,-6,-5,2,0,-2,0,1
1441193759455720,0,0,-1,-8,3,0,-3,1
1441193759455720,-1,0,-4,4,-3,2,0,2
1441193759471913,-1,-3,0,0,2,1,0,2
1441193759471913,0,1,1,-3,-3,-2,-4,0
1441193759473753,0,0,-4,-3,2,-3,0,0
1441193759473753,-1,-1,4,-2,-3,-1,-2,-3
1441193759485714,1,2,4,6,-5,-1,0,0
1441193759485714,1,-2,-5,-2,-3,-2,1,-1
1441193759494716,0,-2,0,2,-1,0,-1,0
1441193759494716,-1,-2,2,1,2,-3,0,-1
1441193759508716,-2,1,-1,3,6,-2,0,0
1441193759508716,-2,-2,2,8,3,0,-1,1
1441193759515851,-1,-1,1,-2,-1,2,-1,0
1441193759515851,-1,-3,-6,-1,-1,2,-1,-1
1441193759532713,-2,-2,0,0,-2,-1,-1,0
1441193759532713,-1,0,-3,-1,0,1,0,0
1441193759533714,-1,0,1,1,-1,-1,-1,1
1441193759533714,-1,-1,3,-4,2,0,1,-2
1441193759545793,-2,-2,-2,0,1,0,-4,0
1441193759545793,0,2,1,-24,3,-3,2,-1
1441193759554714,-1,1,-2,0,-5,-2,0,2
1441193759554714,0,-2,0,-3,-2,-1,0,-1
1441193759568898,0,0,0,-4,-3,-3,0,0
1441193759568898,0,-1,-1,3,-2,-1,-1,-1
1441193759575715,0,-3,0,-3,0,1,0,-4
1441193759575715,-1,-1,1,-7,-4,-2,-2,0
1441193759592714,-1,1,-1,1,-1,-1,-1,0
1441193759592714,-3,-2,-4,2,0,-3,-3,2
1441193759593715,-1,-2,1,3,2,-1,-1,-1
1441193759593715,-1,1,-2,1,-2,-1,-1,-1
1441193759605853,-1,-3,-2,1,3,2,-2,-1
1441193759605853,-1,1,-1,1,0,-2,0,-1
1441193759614719,0,0,0,-5,-2,-1,-1,-1
1441193759614719,-2,0,0,4,2,0,-1,-1
1441193759629785,-2,-4,-2,12,-2,-3,0,1
1441193759629785,-1,0,-1,6,-4,-2,-2,1
1441193759635833,0,-1,-3,-4,0,-2,-1,-1
1441193759635833,-2,-2,1,0,-1,0,-2,-2
1441193759651953,-1,3,-3,0,-2,1,0,-1
1441193759651953,1,-4,1,5,-1,2,-1,-3
1441193759653714,-1,-1,-2,-1,0,-4,0,-4
1441193759653714,-1,1,1,-2,-2,-2,-1,-1
1441193759665865,0,0,1,6,-4,-1,-1,-4
1441193759665865,0,2,1,-1,1,-1,-2,-2
1441193759674716,0,-7,-1,4,-1,1,1,2
1441193759674716,-1,0,-3,-5,2,-1,-2,-3
1441193759688756,-1,-1,-1,-2,1,1,1,-1
1441193759688756,-1,-1,-2,-1,-5,-1,-2,-1
1441193759695926,0,2,-1,1,-5,0,2,-1
1441193759695926,-2,-3,-4,-8,0,-2,0,3
1441193759711938,1,-4,0,0,-4,-5,-6,0
1441193759711938,-2,-1,-2,0,0,-2,0,2
1441193759713715,-1,-1,2,-1,1,0,-3,0
1441193759713715,0,-1,-3,2,-3,0,-2,0
1441193759725753,0,-1,1,-7,1,1,3,-2
1441193759725753,0,-2,0,2,0,0,-1,-1
1441193759734718,-2,0,0,7,-1,-2,0,0
1441193759734718,1,0,-5,-24,-2,-1,0,0
1441193759748899,0,-2,0,3,-1,-4,0,0
1441193759748899,0,-3,-1,3,-1,2,2,-1
1441193759755903,-2,1,-2,-4,-1,1,-1,1
1441193759755903,1,3,0,4,-2,-5,0,-1
1441193759772717,-2,-1,-2,-6,-2,-4,-3,1
1441193759772717,-3,-1,0,-2,2,0,-1,3
1441193759773717,-1,-2,-2,0,-1,-1,-3,3
1441193759773717,0,-1,4,4,-3,1,3,-1
1441193759794769,-1,-2,-3,-2,2,-1,0,0
1441193759794769,0,1,3,1,-2,-2,-1,-1
1441193759796720,1,1,-2,-4,-2,2,-1,-2
1441193759796720,-1,-3,2,3,4,-1,0,-2
1441193759808856,-2,-1,-1,-1,2,2,1,-1
1441193759808856,0,-2,-4,-5,3,0,1,-1
1441193759815840,-1,-2,0,4,-1,-4,0,1
1441193759815840,0,-3,-1,2,-1,1,0,-1
1441193759831721,0,-1,0,-3,-4,1,-2,-1
1441193759831721,-1,-3,-1,-5,2,-3,-1,-1
1441193759837948,-1,0,-3,-4,-2,-1,1,0
1441193759837948,-2,0,-2,6,1,1,-2,-1
1441193759853954,-1,0,4,-4,-3,0,0,0
1441193759853954,0,-3,-4,6,-3,1,-2,1
1441193759855720,0,-6,0,-19,-3,0,-2,-1
1441193759855720,-2,-4,-1,9,1,-3,2,2
1441193759869738,-1,-3,-4,-8,-4,-2,-1,1
1441193759869738,1,-1,-1,-1,1,-3,-1,0
1441193759875722,-1,1,1,5,1,2,2,-2
1441193759875722,-1,-1,-3,-3,2,1,-3,-1
1441193759890950,-1,1,-1,2,2,-2,-1,-2
1441193759890950,-2,-2,0,-5,-2,-2,0,-1
1441193759897954,-2,-1,-1,2,1,-2,0,1
1441193759897954,-1,0,1,-1,-2,-1,0,0
1441193759914723,0,-1,0,5,4,1,0,0
1441193759914723,-2,1,0,-18,-6,-2,-1,-1
1441193759916773,0,-2,0,5,3,1,-3,-4
1441193759916773,0,-1,0,6,-3,-2,-2,-1
1441193759928769,0,-2,-3,-8,0,0,-3,0
1441193759928769,0,0,5,8,-6,-1,0,2
1441193759935844,1,-1,-1,-18,-2,-3,0,-2
1441193759935844,-2,2,-2,-2,-5,1,-2,1
1441193759951724,-3,-2,1,3,1,-1,0,-2
1441193759951724,0,-3,-2,3,2,1,-1,2
1441193759957956,1,-1,0,0,0,2,-2,-1
1441193759957956,-1,-1,-1,-7,0,-2,2,-3
1441193759974723,-1,-1,2,7,-4,-4,-2,-2
1441193759974723,-1,-3,0,7,4,0,-2,0
1441193759975722,-1,-2,1,1,-3,-3,0,2
1441193759975722,0,-3,1,0,2,-1,-2,-4
1441193759988871,0,-2,-2,-8,0,4,-2,-1
1441193759988871,1,-2,-1,2,-1,-3,3,0
1441193759995884,0,0,0,1,-1,-1,-2,-1
1441193759995884,0,-1,-3,3,-2,-1,-5,-2
1441193760011729,1,1,-1,-1,0,-3,1,-3
1441193760011729,1,0,-3,-3,-3,-2,2,-3
1441193760017849,-2,-1,1,4,0,2,-1,-1
1441193760017849,-3,0,-1,0,-5,-1,2,0
1441193760034729,-3,1,1,7,-3,1,-3,-1
1441193760034729,-1,-3,-4,-3,-3,0,2,-3
1441193760036725,0,-1,4,8,1,-2,-1,-2
1441193760036725,-2,-2,1,0,3,2,-2,0
1441193760048899,-1,-1,-6,0,-1,-1,-1,0
1441193760048899,-1,-3,0,-1,3,1,-1,1
1441193760055797,1,-1,-3,-2,-1,-1,0,-1
1441193760055797,1,-2,-1,-2,0,0,-3,-3
1441193760070931,0,1,1,1,-4,0,-2,0
1441193760070931,-1,-1,-2,0,2,-1,-2,0
1441193760077728,-2,0,-2,-3,-3,-4,-3,-3
1441193760077728,-3,-1,-1,-4,0,0,1,-2
1441193760094765,-2,-2,-3,2,1,-3,1,-1
1441193760094765,1,-1,1,5,-1,-1,-1,0
1441193760095724,0,0,1,-1,1,-3,-1,0
1441193760095724,0,1,2,-1,0,0,-2,-1
1441193760108845,0,0,2,-10,1,-1,-1,-2
1441193760108845,-2,-1,2,-1,1,-2,-4,-1
1441193760115759,1,-3,-1,15,3,0,0,1
1441193760115759,0,-4,-2,-2,-2,-4,-3,0
1441193760131725,-1,0,-2,13,0,0,2,-2
1441193760131725,0,-1,1,1,1,-1,-1,-1
1441193760137959,-1,1,-5,-6,-1,-3,0,0
1441193760137959,-1,-4,-2,3,0,0,0,-2
1441193760154727,0,0,-1,-8,-1,-2,-3,1
1441193760154727,1,3,-3,-6,-2,-2,1,0
1441193760155725,-3,1,-3,4,-1,2,-1,1
1441193760155725,-1,-1,0,-1,1,0,1,-3
1441193760168834,-2,-1,-1,-2,0,0,-1,1
1441193760168834,-1,-3,-2,-3,1,3,2,-3
1441193760175724,-2,-1,-2,3,1,-2,0,-1
1441193760175724,0,1,-1,-21,-3,1,1,2
1441193760190902,1,-1,0,-2,-1,-1,-1,-2
1441193760190902,0,0,-5,1,2,-2,-1,-1
1441193760197945,-3,0,2,-5,-1,2,-1,-1
1441193760197945,-1,0,-1,0,0,-2,-1,-2
1441193760214797,-1,-1,2,-1,2,-1,1,0
1441193760214797,0,-1,0,-2,-5,0,-2,0
1441193760216729,0,-3,0,-3,-1,-2,1,-2
1441193760216729,-3,-5,-1,5,-3,0,-2,0
1441193760228910,0,-4,-1,0,-5,2,-1,0
1441193760228910,0,-1,0,4,1,-4,-2,0
1441193760235725,-1,0,-4,3,-2,0,0,-2
1441193760235725,1,2,0,4,0,-2,-2,-2
1441193760251731,-2,-3,-2,-4,-1,-2,0,0
1441193760251731,0,-2,3,-3,-5,-1,0,4
1441193760257970,0,1,-4,-11,-3,-1,2,0
1441193760257970,0,-2,-4,3,1,-2,-2,-1
1441193760274765,-3,-1,-3,3,-5,-3,1,-1
1441193760274765,1,-1,-4,0,1,2,2,0
1441193760276730,1,-3,1,-4,-2,0,-2,2
1441193760276730,-2,3,-1,4,-4,-1,-1,-1
1441193760288864,-1,-3,3,-4,1,0,-1,1
1441193760288864,-1,-4,1,4,3,-2,-2,-1
1441193760295825,-1,-3,0,-5,1,0,-2,0
1441193760295825,-3,1,-1,20,1,-1,-1,-3
1441193760310922,0,-3,-6,-25,-3,-2,0,0
1441193760310922,-1,-1,0,-4,-3,-1,-1,-1
1441193760317997,-2,0,0,2,-3,-1,0,-2
1441193760317997,-1,1,1,-1,0,2,-4,0
1441193760334730,-1,-1,-1,-1,3,1,0,-1
1441193760334730,1,-2,-3,1,-2,-1,-2,2
1441193760335728,-2,-1,-4,-8,-3,0,3,-1
1441193760335728,-1,1,-2,-6,0,1,1,-1
1441193760348734,1,-1,-1,6,-3,-4,0,-1
1441193760348734,-1,-1,-2,-6,0,3,1,1
1441193760355905,0,0,1,10,-3,-1,-2,-1
1441193760355905,0,-3,-2,-8,-2,0,0,-2
1441193760370961,-2,5,-1,2,1,-2,0,-2
1441193760370961,1,-1,-1,2,-3,-4,-1,-2
1441193760377794,-1,-2,0,-4,-5,0,-1,-2
1441193760377794,-2,0,2,-1,1,0,-3,-1
1441193760394731,0,2,0,2,0,0,0,-3
1441193760394731,-2,1,1,12,0,-2,1,1
1441193760395730,-7,0,0,11,-1,0,-3,2
1441193760395730,11,-2,2,-9,-1,0,0,-4
1441193760407952,0,0,1,8,2,1,-2,-3
1441193760407952,0,0,-2,-3,-1,0,2,-1
1441193760417771,-2,1,-3,-6,1,0,2,-2
1441193760417771,-5,1,0,15,-1,0,-1,-2
1441193760430997,-1,-3,2,-23,-2,-3,-2,1
1441193760430997,-4,0,0,-10,-1,0,-1,-2
1441193760437985,1,-1,-1,-5,3,-2,-3,0
1441193760437985,-3,0,-2,-8,-4,2,0,0
1441193760454735,0,-2,-1,4,-3,0,1,-1
1441193760454735,-2,-1,-2,-5,0,-3,-2,-2
1441193760455730,2,0,2,5,0,-2,1,-1
1441193760455730,-1,0,0,-4,-1,-2,-1,0
1441193760468016,-4,1,-1,6,2,1,-1,-1
1441193760468016,0,1,0,0,-1,0,-2,4
1441193760476734,0,-2,2,4,1,1,-1,0
1441193760476734,-2,-5,-2,-3,-4,-3,0,-1
1441193760490955,0,1,-2,0,-2,-1,-4,0
1441193760490955,1,-2,-3,0,-2,-1,0,1
1441193760497965,1,-2,-3,0,0,-2,0,-2
1441193760497965,-3,-1,-1,9,2,-2,-1,1
1441193760514855,-1,0,-1,-1,-4,2,0,-2
1441193760514855,1,-1,1,-4,-1,0,1,0
1441193760515732,-1,-1,0,-2,-1,-3,-2,-2
1441193760515732,-1,1,0,2,2,-5,-1,-1
1441193760527956,0,-3,2,6,-1,0,1,-1
1441193760527956,1,-3,1,5,4,2,-3,1
1441193760536734,2,0,-3,2,-4,-1,1,0
1441193760536734,0,0,-2,-20,-2,-3,-2,-3
1441193760550928,-1,-2,2,-3,0,0,-3,-2
1441193760550928,0,-1,-3,3,-4,0,-1,-1
1441193760558733,1,0,1,-14,2,0,-1,0
1441193760558733,-4,-5,0,4,-1,0,0,0
1441193760574738,0,-1,-4,-1,-2,-1,0,0
1441193760574738,1,1,-2,-1,-1,-1,1,-1
1441193760575733,-1,2,-2,1,-2,-1,-1,0
1441193760575733,-1,-1,2,1,2,0,-3,-2
1441193760587966,0,0,1,-6,2,1,-1,3
1441193760587966,0,-1,-1,2,2,-3,1,-2
1441193760596733,0,1,3,7,0,-1,-2,1
1441193760596733,0,0,-1,-3,-5,3,0,1
1441193760610937,0,-1,1,8,1,-4,-1,-2
1441193760610937,-1,0,1,-4,-7,1,0,1
1441193760617978,-1,1,-2,-4,-2,0,-2,-1
1441193760617978,-4,0,-3,3,-1,1,0,-2
1441193760634737,-1,-2,0,2,-2,-1,1,1
1441193760634737,0,2,-1,-4,1,2,1,-1
1441193760635734,-2,-3,-2,-5,-4,1,1,-1
1441193760635734,1,-1,-1,4,-4,-1,-1,0
1441193760647977,0,1,0,-2,-3,-1,-2,1
1441193760647977,0,-3,-2,-5,-1,-3,-1,1
1441193760657735,1,-2,-2,0,0,0,0,-3
1441193760657735,-1,0,-3,1,1,-2,-2,-2
1441193760670931,-1,-1,-2,-8,-1,0,-2,-1
1441193760670931,0,-8,0,11,-5,2,-1,2
1441193760677949,0,0,-1,-4,1,-1,-1,1
1441193760677949,-1,-1,0,7,-3,0,-2,0
1441193760694747,-1,-2,-3,1,0,2,-1,0
1441193760694747,-2,-1,-4,-3,1,-1,0,2
1441193760695735,1,-1,0,-16,0,-4,-1,-3
1441193760695735,-1,0,0,0,-3,-1,0,-3
1441193760707940,0,-3,-2,-2,-1,-2,3,1
1441193760707940,1,1,2,1,0,-2,-2,1
1441193760716739,-2,-4,1,4,-2,-1,0,-1
1441193760716739,-1,-1,0,-3,1,-4,-1,0
1441193760731752,0,1,-3,-2,-2,0,2,-1
1441193760731752,-2,-1,-2,-7,1,0,-1,0
1441193760737989,1,-1,-1,3,-5,-2,0,2
1441193760737989,-2,-4,-1,-5,-3,0,-1,-1
1441193760753006,-1,-1,-1,7,-3,2,-3,-2
1441193760753006,-1,2,4,6,-4,-3,0,1
1441193760760866,-3,0,4,3,-3,1,2,-2
1441193760760866,-1,-2,-1,3,1,-1,-2,-2
1441193760776740,-2,0,2,-5,-3,0,0,1
1441193760776740,0,0,-3,4,-1,-2,-3,1
1441193760776740,0,1,0,1,-5,-2,1,0
1441193760776740,-3,0,-4,-2,1,1,0,-2
1441193760791738,0,-2,0,0,0,-3,-3,-2
1441193760791738,0,-3,1,-4,-3,0,0,-3
1441193760797968,-1,-2,-3,-1,-2,0,-1,0
1441193760797968,-1,2,1,-1,2,0,-1,-2
1441193760812738,-3,2,1,-12,1,0,-2,-2
1441193760812738,0,1,-1,4,2,1,-1,-1
1441193760820865,-2,0,-1,-9,3,-2,-2,-1
1441193760820865,-2,0,-3,6,1,-1,-2,-3
1441193760837161,-1,-2,-2,3,2,-1,1,0
1441193760837161,-3,0,1,-4,-1,-1,0,1
1441193760837737,0,1,-3,1,4,0,-3,2
1441193760837737,1,-1,-3,0,-3,-2,-3,-1
1441193760851740,-3,0,-1,5,-1,-3,-2,1
1441193760851740,0,-5,-3,-10,-4,0,0,-2
1441193760857991,-1,1,1,8,-1,1,-2,-2
1441193760857991,0,0,-1,-12,-1,-1,-2,0
1441193760872991,0,-4,0,12,0,0,0,-1
1441193760872991,1,2,1,-5,-2,1,3,0
1441193760880793,3,0,-2,2,-1,-3,-3,-3
1441193760880793,-2,-1,-2,-12,-2,-3,-1,-1
1441193760903917,0,0,-2,-1,2,-1,0,-3
1441193760903917,0,0,-1,-4,2,0,-2,1
1441193760904743,-3,-2,3,0,-1,-2,0,-2
1441193760904743,0,0,0,6,-3,1,2,0
1441193760911740,1,-3,0,-2,2,1,-3,0
1441193760911740,-1,-2,1,11,1,-3,-2,0
1441193760917990,-1,0,-3,-14,-2,-3,-1,-2
1441193760917990,-1,-1,2,0,-1,-3,1,0
1441193760932963,-1,-1,2,-2,-1,0,-1,-1
1441193760932963,-1,0,-1,1,3,-1,-1,-3
1441193760940772,-2,-5,-1,9,-2,3,-3,1
1441193760940772,-1,1,-1,-10,1,-3,-2,-2
1441193760956740,-2,-4,2,0,-2,1,2,-2
1441193760956740,1,0,-1,-7,-2,0,0,-2
1441193760956740,0,3,0,6,-2,-1,0,-1
1441193760956740,-2,-1,1,-1,2,-1,-2,-3
1441193760971751,-1,-3,-1,2,-1,0,-1,-1
1441193760971751,-1,-1,0,5,-2,-2,-2,0
1441193760977801,1,-5,0,-2,1,-3,0,-1
1441193760977801,0,-2,1,8,0,2,0,-3
1441193760992915,-6,-3,0,1,0,-2,1,-1
1441193760992915,6,-1,-1,-3,-5,-1,-3,-2
1441193761000836,-2,-1,-3,7,1,-1,-3,-2
1441193761000836,-1,-1,-3,3,-1,1,1,1
1441193761015966,-3,2,-2,-6,-1,0,1,2
1441193761015966,-2,-2,-3,-7,-1,-2,1,1
1441193761016875,0,-3,-2,3,0,-1,1,-1
1441193761016875,-1,1,-1,-4,-4,3,-3,-1
1441193761031745,2,1,-2,-6,1,-3,-3,0
1441193761031745,-1,-2,-3,2,-3,2,-1,0
1441193761037893,0,0,2,-10,-5,0,0,-1
1441193761037893,-4,0,-5,-1,-1,-3,1,0
1441193761050739,8,-2,0,4,-1,0,-2,-3
1441193761050739,-1,2,1,7,1,2,-2,-3
1441193761060798,4,-13,-6,-21,0,2,0,5
1441193761060798,-14,2,2,5,1,-3,3,1
1441193761076743,2,7,-3,-5,-2,2,-2,-2
1441193761076743,0,-4,0,-1,2,-5,0,-1
1441193761077781,0,0,-2,5,-2,0,3,0
1441193761077781,14,-1,1,-2,-2,-3,-2,-2
1441193761091746,-3,-2,-2,6,-2,1,1,3
1441193761091746,-2,0,0,-5,0,1,-3,0
1441193761097765,-3,5,1,1,3,-1,-4,-1
1441193761097765,2,-4,-4,4,0,-2,-1,-2
1441193761112989,-3,-1,-1,1,0,-3,-1,-2
1441193761112989,0,-3,1,2,-3,0,2,-2
1441193761120747,-1,-3,1,3,-2,-2,-3,-2
1441193761120747,-3,1,-2,-6,-3,0,-2,-2
1441193761136007,0,-4,0,0,0,-3,-2,1
1441193761136007,-7,0,-2,-3,3,2,0,0
1441193761136749,-4,3,0,2,-2,0,1,-4
1441193761136749,-1,-3,-1,7,0,0,-1,-3
1441193761151748,-2,0,-4,-5,-2,-1,-1,0
1441193761151748,-1,-3,0,-6,-3,-3,2,2
1441193761157745,0,1,2,7,1,-1,-1,-2
1441193761157745,-1,-2,3,1,-3,2,0,-1
1441193761172968,-1,-4,-1,-4,0,-1,0,0
1441193761172968,0,-1,-3,-6,-1,-3,-1,-4
1441193761180744,-3,0,-5,6,-1,0,-4,-4
1441193761180744,-2,0,-2,1,-3,-1,1,0
1441193761196745,-3,-3,-3,-1,-3,0,0,-2
1441193761196745,-1,0,-4,9,-2,0,-2,1
1441193761196745,-3,-4,-1,-25,-2,-1,-2,1
1441193761196745,0,-4,2,-3,-4,1,-1,1
1441193761212748,-1,-1,2,-4,-2,-2,0,-2
1441193761212748,0,0,0,0,3,0,-3,-1
1441193761218010,-1,1,-1,1,0,-3,0,-3
1441193761218010,-4,0,-4,-3,0,3,-3,-2
1441193761232749,0,-1,-1,0,1,-2,0,-1
1441193761232749,0,-1,1,-9,-2,-2,0,2
1441193761240745,-2,-1,0,7,0,2,2,-2
1441193761240745,-1,-1,-1,0,0,-4,-3,-2
1441193761255745,0,1,0,0,-3,-2,-3,0
1441193761255745,0,-2,-4,0,1,1,0,-1
1441193761256750,0,1,0,7,0,-3,-1,1
1441193761256750,-3,-2,2,1,-3,-2,-2,-2
1441193761271749,0,-1,-1,-4,-1,-2,3,1
1441193761271749,0,-1,-1,3,-1,0,0,-1
1441193761278010,-1,2,3,-1,-4,-1,0,0
1441193761278010,-1,0,-3,2,0,0,0,-2
1441193761292804,0,0,0,0,-2,3,-1,-1
1441193761292804,0,0,2,7,-2,-4,-2,0
1441193761300759,-1,-3,-4,2,-3,0,-2,3
1441193761300759,-1,2,-2,1,3,-3,1,-3
1441193761315992,0,2,0,-4,1,-3,-1,0
1441193761315992,1,-3,-1,-1,-1,0,0,0
1441193761316747,0,2,-2,5,0,-2,-1,-2
1441193761316747,-2,-1,-1,-11,-6,-1,-2,-3
1441193761332749,1,-1,2,7,-2,1,-1,4
1441193761332749,0,-3,0,-4,1,-2,-1,-1
1441193761337985,-1,-2,3,-1,2,0,-1,-3
1441193761337985,0,-1,0,6,0,1,-4,0
1441193761352968,-1,-1,-5,-27,1,4,-2,-1
1441193761352968,-2,0,1,-2,0,-1,-1,-2
1441193761360760,0,-3,-2,-5,-2,-2,-1,-3
1441193761360760,0,-1,1,3,-3,0,2,0
1441193761375749,-1,-2,-1,1,-2,1,0,-2
1441193761375749,-3,-1,1,-2,-3,-2,-3,1
1441193761376750,1,-2,0,-4,1,1,-1,-1
1441193761376750,0,-2,3,-2,1,-2,-1,0
1441193761391750,-1,-1,-3,7,1,-3,1,0
1441193761391750,-1,0,0,-6,-3,1,0,-1
1441193761398750,-1,2,0,1,0,0,-2,-2
1441193761398750,-3,4,1,1,1,-1,-3,0
1441193761412815,0,-2,-2,2,2,-3,-2,-4
1441193761412815,-1,1,-1,-10,3,0,-1,-1
1441193761420896,-2,-1,1,0,-3,-1,0,0
1441193761420896,1,1,3,3,1,0,-1,1
1441193761436750,0,-2,-2,1,-1,0,-1,1
1441193761436750,0,0,-5,-3,2,-1,-2,1
1441193761436750,-2,-1,-6,1,0,0,-1,-2
1441193761436750,0,-9,-3,1,3,2,2,-1
1441193761452751,-2,-3,1,12,-3,-1,0,2
1441193761452751,0,-13,0,3,-2,2,1,6
1441193761458003,1,1,-1,-4,-1,-1,-2,-1
1441193761458003,-1,1,-1,0,-1,-3,-3,0
1441193761472858,-3,-1,2,-2,1,0,-1,-4
1441193761472858,0,3,-2,7,0,0,1,-1
1441193761480764,-3,-3,0,-4,0,0,0,-2
1441193761480764,-1,-3,-1,-4,-3,0,1,0
1441193761495801,-2,1,-1,-5,-5,-4,-1,1
1441193761495801,2,2,-2,-2,-4,2,-1,-1
1441193761496756,-6,-3,0,-5,1,0,-2,-3
1441193761496756,-1,2,-1,-1,1,-1,-3,-2
1441193761511755,1,0,2,1,-1,-1,2,-4
1441193761511755,1,1,0,-3,1,-5,0,-3
1441193761518056,1,2,3,13,0,-2,-1,2
1441193761518056,-1,-4,-1,-7,1,2,-3,-1
1441193761532805,1,-1,-1,-2,-1,1,0,6
1441193761532805,0,-7,0,-3,1,-1,-2,-1
1441193761540873,2,4,-2,11,-1,0,2,0
1441193761540873,-2,1,0,-7,0,-2,-2,-5
1441193761555964,-4,-2,-2,3,-1,-1,-2,0
1441193761555964,-3,1,2,-1,0,1,0,-2
1441193761556756,-2,-2,0,-6,-2,-1,0,1
1441193761556756,-2,-1,-2,3,0,-3,3,2
1441193761571754,0,-1,0,-2,0,-2,-3,-1
1441193761571754,-1,3,0,0,0,-4,-3,-2
1441193761578034,0,0,0,0,3,2,-2,-4
1441193761578034,-1,2,2,9,1,-1,3,0
1441193761592923,0,-1,0,0,2,-2,0,-2
1441193761592923,-1,1,3,7,-3,0,0,-3
1441193761600754,-1,-2,-8,-5,-3,1,0,-2
1441193761600754,-3,-4,-3,0,-3,-1,-3,4
1441193761615754,-1,2,2,-5,-1,2,1,-4
1441193761615754,-1,0,-2,-1,-1,-1,-4,0
1441193761616754,-3,-13,-1,5,0,-1,-2,3
1441193761616754,-1,-1,-3,-11,-5,0,-3,-4
1441193761632755,-1,1,-3,3,-3,-1,-2,0
1441193761632755,-1,3,2,-3,-2,-3,4,5
1441193761638000,1,2,1,-7,-1,-5,-5,-6
1441193761638000,1,2,-1,7,-2,-4,0,0
1441193761652999,-2,-7,-3,-4,-5,0,-2,1
1441193761652999,-2,1,-2,5,-1,0,0,-4
1441193761660855,0,-3,0,-4,-1,1,2,1
1441193761660855,-2,3,-2,-9,0,-2,3,5
1441193761675901,-1,5,1,4,3,1,-2,-1
1441193761675901,3,2,-5,3,-2,-3,-6,-3
1441193761676755,4,4,-2,-2,-6,0,8,-14
1441193761676755,13,6,-2,-6,-2,-1,-10,15
1441193761691756,14,-17,-3,4,2,2,2,20
1441193761691756,-45,-6,2,2,1,-4,4,-5
1441193761697990,51,6,-1,-2,-6,3,-2,11
1441193761697990,-45,-10,10,0,0,2,4,-35
1441193761713008,-11,2,0,-5,-1,-3,-6,28
1441193761713008,56,-1,-4,3,-2,0,-2,-13
1441193761720824,-52,-6,4,6,2,-3,0,7
1441193761720824,-2,-4,0,-28,-3,-1,0,-19
1441193761735756,-12,4,2,5,-3,-2,-2,-3
1441193761735756,4,-1,0,-3,-3,-3,-1,0
1441193761742904,-9,3,-1,3,1,2,-2,-8
1441193761742904,15,-1,-2,5,1,0,1,9
1441193761760754,-4,0,-7,-7,1,-5,0,-16
1441193761760754,2,-1,-3,-8,3,2,-1,12
1441193761760754,1,1,-1,-5,-4,-2,-1,-4
1441193761760754,-7,-2,-6,10,1,-1,-2,5
1441193761772801,13,-3,-4,-26,-2,-2,1,-4
1441193761772801,-14,-4,2,1,-5,0,1,-3
1441193761780834,-5,0,1,1,0,-4,-4,8
1441193761780834,8,-2,-5,6,-3,4,1,0
1441193761795933,-4,5,7,16,4,3,1,-10
1441193761795933,1,-2,2,-22,-4,-4,-2,4
1441193761803003,-1,0,-1,7,1,0,1,-3
1441193761803003,6,2,0,-20,-5,-7,-2,3
1441193761818758,0,0,-6,10,-1,0,4,-5
1441193761818758,-10,-1,1,-6,-5,2,-1,2
1441193761818758,5,0,-2,-1,4,-1,-3,-1
1441193761818758,-3,-4,-2,5,0,-3,-3,-1
1441193761832815,-3,-1,2,-3,-5,-2,0,-3
1441193761832815,0,-3,2,0,-3,-1,1,2
1441193761840766,-3,-2,-3,-5,-2,-2,-1,-2
1441193761840766,3,-3,1,3,0,-1,0,3
1441193761855914,0,-1,-1,0,-1,-2,-4,-2
1441193761855914,0,3,-6,2,-2,0,0,0
1441193761862914,-3,5,4,-3,-3,4,0,0
1441193761862914,-5,1,-6,3,2,-1,0,-1
1441193761878800,7,2,1,-2,-1,2,-1,-1
1441193761878800,1,-1,-7,2,2,-2,-2,-1
1441193761879799,-18,-1,-6,1,2,-2,-2,-1
1441193761879799,23,2,0,-8,-6,0,-1,-2
1441193761892881,17,4,4,-2,-1,0,-4,-10
1441193761892881,0,2,3,4,1,-2,0,0
1441193761900761,1,-2,-3,0,-2,-5,-4,-2
1441193761900761,1,4,0,4,0,0,3,-3
1441193761915848,-4,-5,-1,1,2,0,-2,-1
1441193761915848,-1,-1,-1,-5,-5,2,-1,1
1441193761923012,8,-3,-1,3,-2,-1,0,3
1441193761923012,-7,-3,1,2,-1,0,-4,1
1441193761938897,-5,-2,2,-1,-2,-2,-1,-1
1441193761938897,-4,-1,-2,-2,3,-3,0,-2
1441193761938897,-3,-1,2,6,-3,1,-2,-3
1441193761938897,0,1,1,-16,-2,-1,-2,2
1441193761952859,-8,-6,-4,5,-1,0,0,-2
1441193761952859,2,-2,0,6,-1,1,1,-1
1441193761960827,2,0,1,2,3,0,0,-4
1441193761960827,-4,-1,0,1,-3,-2,-1,-1
1441193761975767,-1,8,2,1,0,-3,1,1
1441193761975767,-2,3,3,4,-6,-1,-2,-2
1441193761983992,1,-1,-6,-10,-3,0,1,0
1441193761983992,-5,-5,2,13,2,0,-3,1
1441193761998878,-5,0,-5,-4,-3,0,2,1
1441193761998878,0,-2,1,5,-2,1,1,-1
1441193761999764,-1,-2,0,-9,-1,-2,-2,-1
1441193761999764,-1,2,-1,3,-1,-2,-1,1
1441193762012767,-2,-2,-10,-8,-3,-1,-2,0
1441193762012767,-2,-1,-3,3,1,1,-4,-1
1441193762020914,-1,-2,-5,-2,-2,0,0,-1
1441193762020914,-3,1,0,5,0,1,0,-1
1441193762035765,-1,-2,1,1,-4,-2,2,-2
1441193762035765,-2,-2,-2,0,0,0,-1,-2
1441193762043906,-6,0,0,-6,-1,-1,0,-2
1441193762043906,3,-4,0,3,-4,1,0,0
1441193762058887,-3,-6,-4,-8,-1,-1,0,2
1441193762058887,-2,2,3,-1,2,-4,2,-2
1441193762058887,2,-2,2,5,-2,-1,-2,-1
1441193762058887,-4,-5,0,-6,0,-1,-3,3
1441193762073045,3,-3,3,17,-1,-2,1,0
1441193762073045,0,-1,-2,-2,-4,2,-1,0
1441193762080767,-1,-3,-1,-5,-1,-4,-2,-1
1441193762080767,0,-14,-2,4,-2,0,1,-1
1441193762095908,0,2,-1,1,-1,-3,-3,0
1441193762095908,-2,-2,-4,-3,3,0,1,-2
1441193762103955,2,-2,-2,1,0,-1,1,0
1441193762103955,0,1,-1,-10,3,0,0,-2
1441193762118976,0,-2,5,8,-2,0,-1,1
1441193762118976,-2,-2,0,-6,1,-1,0,0
1441193762119763,1,-2,-2,-2,0,-1,-2,-1
1441193762119763,-2,3,0,1,2,-1,1,-2
1441193762132766,-1,-2,-2,-5,1,0,3,-4
1441193762132766,-1,1,2,0,-2,-1,-5,0
1441193762140799,0,0,-2,-5,-1,0,-3,-2
1441193762140799,-1,1,-1,5,-5,0,1,0
1441193762155814,-1,-1,-3,11,1,0,-3,0
1441193762155814,-2,4,-2,-4,0,-1,-1,1
1441193762163951,1,2,0,-1,0,-4,0,-4
1441193762163951,-2,4,-1,6,1,1,-2,-3
1441193762178939,1,2,-3,-17,-2,1,1,-1
1441193762178939,1,-2,1,2,0,0,2,-2
1441193762179765,-1,-3,-1,5,0,1,-2,-1
1441193762179765,-3,0,-2,-4,-3,-2,-2,-1
1441193762192804,-2,0,-1,2,-2,-1,0,0
1441193762192804,-1,-1,3,1,-2,-3,0,-1
1441193762200777,-1,-3,0,0,0,1,-1,0
1441193762200777,0,1,0,-5,-1,-3,1,-1
1441193762215911,-1,-3,-4,0,0,-1,-5,-3
1441193762215911,0,0,-1,2,-7,-4,-5,-2
1441193762223874,-1,-2,1,2,-1,0,0,1
1441193762223874,-2,2,3,-3,-1,0,-2,1
1441193762238959,-1,0,-1,5,-3,-2,1,0
1441193762238959,0,2,0,-9,-1,1,-1,-2
1441193762239769,-2,-12,0,-2,1,1,-3,1
1441193762239769,-2,1,-5,-3,-2,-1,-1,0
1441193762252771,-1,-2,3,2,1,0,0,2
1441193762252771,0,-5,-3,-2,-2,-3,-2,-2
1441193762260872,-2,1,1,-5,-3,-1,-1,-2
1441193762260872,-1,-4,-1,-1,-2,2,-3,-1
1441193762275777,-1,-1,0,0,-1,-2,0,0
1441193762275777,1,-1,-1,3,1,1,1,0
1441193762283969,-1,3,4,3,-3,-1,-3,-1
1441193762283969,0,2,-2,-2,3,-2,-1,-2
1441193762298934,1,1,1,-1,-3,1,-3,-1
1441193762298934,-2,-4,0,0,-2,-2,-3,1
1441193762299805,-2,-6,-3,1,-5,2,2,-2
1441193762299805,-1,2,-3,1,-1,-2,1,-3
1441193762313004,-1,0,-1,-11,0,-2,-4,2
1441193762313004,0,-3,0,-3,3,3,-2,-2
1441193762320927,0,1,0,-3,1,-2,-1,1
1441193762320927,-1,0,1,9,-3,0,-2,-3
1441193762335806,0,-1,-4,-14,4,-1,2,-2
1441193762335806,-1,2,-4,5,-3,-4,1,-1
1441193762343942,-1,3,0,0,1,0,-1,-2
1441193762343942,0,-7,-3,-5,-3,0,-1,2
1441193762358884,-3,-3,1,10,-2,-1,0,0
1441193762358884,-1,-1,1,-3,-2,1,-1,0
1441193762358884,-1,-3,-6,-4,2,-3,-2,-1
1441193762358884,0,2,-1,8,-1,-2,0,-2
1441193762373053,0,1,4,4,1,2,0,0
1441193762373053,0,-3,0,-3,-6,0,-2,1
1441193762380851,-1,1,0,-2,-2,0,-1,-3
1441193762380851,1,-1,1,1,-1,1,0,-2
1441193762395895,1,5,-3,-23,-2,-2,1,-3
1441193762395895,-1,5,-1,10,-2,-4,-3,-1
1441193762403953,-1,5,-1,-1,0,0,-3,-3
1441193762403953,-1,-4,2,-6,-4,0,1,0
1441193762418900,-1,0,0,-1,0,2,2,1
1441193762418900,-1,-3,-1,-2,4,1,0,-1
1441193762418900,0,-1,-1,-4,1,-2,-1,-3
1441193762418900,0,1,-2,-6,0,-3,-3,-2
1441193762432913,-1,-1,0,2,-3,0,1,2
1441193762432913,-2,-2,-3,-6,-2,0,-2,1
1441193762440909,-1,0,-1,9,1,-1,0,-2
1441193762440909,0,1,-3,-2,1,-2,-2,1
1441193762455899,-2,-3,2,17,1,0,-1,-1
1441193762455899,0,-3,-3,3,3,-2,0,1
1441193762463958,0,4,1,-10,-2,-1,3,0
1441193762463958,0,-2,1,-3,-6,-4,3,-1
1441193762478925,-1,-6,0,8,-3,-2,-2,-2
1441193762478925,-3,2,-3,0,4,0,0,-3
1441193762478925,0,-8,-2,-1,-1,2,-1,-5
1441193762478925,-1,0,1,2,2,-3,-1,1
1441193762492774,0,-1,-1,3,-1,-1,-3,0
1441193762492774,0,4,3,-2,-3,0,0,-5
1441193762500917,-1,-6,3,-5,-6,-1,-1,0
1441193762500917,-1,-1,-2,7,-1,-1,-1,-2
1441193762515848,-3,-2,-6,-35,-4,-4,0,-2
1441193762515848,-1,-2,-5,-3,1,1,-2,0
1441193762523865,-2,0,0,5,-3,-3,-1,0
1441193762523865,0,-1,2,-9,0,3,0,-3
1441193762539011,1,1,1,4,5,-2,-2,1
1441193762539011,-1,-1,0,-5,4,0,2,-2
1441193762539770,-1,6,0,1,-2,-1,-2,-1
1441193762539770,-1,-1,0,-3,0,0,-3,-3
1441193762553023,1,0,-3,-2,-2,0,1,2
1441193762553023,0,-1,3,5,-3,-2,0,-1
1441193762560777,0,3,0,-18,-2,-2,0,-3
1441193762560777,-1,-4,-1,12,-1,0,-1,2
1441193762575773,0,-1,-4,0,0,1,-1,3
1441193762575773,-1,-3,1,-4,0,-2,-2,1
1441193762583965,-3,-1,1,-4,-1,2,-1,-1
1441193762583965,-2,-2,0,1,-2,-3,-1,0
1441193762598884,0,-2,-3,-8,-1,-1,3,-3
1441193762598884,0,-1,0,9,1,0,-2,0
1441193762599772,-1,-2,-4,-8,-1,0,-1,2
1441193762599772,-1,1,-4,-3,-2,2,-1,1
1441193762613030,-1,-2,1,9,-3,-3,-3,-2
1441193762613030,0,2,-3,-3,-6,-1,0,-1
1441193762620912,-1,-13,-5,12,2,-2,-2,-3
1441193762620912,-3,3,-1,-1,0,-4,-1,0
1441193762635775,1,-6,2,0,0,0,0,-2
1441193762635775,-2,-1,-3,-7,-3,-2,-1,-1
1441193762643991,0,0,1,8,-4,-2,-1,-1
1441193762643991,-1,-1,-3,-8,-2,1,2,-1
1441193762658775,-1,-4,1,4,-3,-4,0,1
1441193762658775,-2,-3,0,-6,-3,1,1,0
1441193762665931,0,4,3,1,1,-1,-3,0
1441193762665931,0,-2,2,4,-1,0,1,-2
1441193762672857,1,0,-1,-7,0,0,-2,1
1441193762672857,-1,-1,1,21,1,-2,-2,0
1441193762680871,0,1,-1,-7,-2,-1,-1,0
1441193762680871,-2,1,1,2,-2,0,-1,-2
1441193762695941,-1,-2,-1,3,2,2,0,1
1441193762695941,-1,-3,-1,-6,3,-3,-3,0
1441193762703941,-3,4,-3,-2,-2,-1,-1,-1
1441193762703941,0,0,0,4,3,-3,-1,1
1441193762717781,-1,-12,-2,3,-1,3,0,0
1441193762717781,-1,2,1,7,0,2,-1,-2
1441193762725857,-1,0,-1,-15,0,2,-2,0
1441193762725857,-1,-2,1,-5,0,-2,-3,-1
1441193762740981,-2,4,-2,3,2,-2,1,-2
1441193762740981,0,-1,-5,-5,-6,-1,1,0
1441193762741780,0,-4,0,1,0,2,-2,-3
1441193762741780,-2,1,1,3,-1,2,-2,-4
1441193762756779,1,1,-6,-2,-1,1,0,-1
1441193762756779,0,-4,-1,-8,-1,-5,0,0
1441193762764784,-3,5,-3,5,-1,0,1,-1
1441193762764784,1,-3,-7,-1,-3,1,0,0
1441193762777994,-1,1,-2,-4,-2,-2,-2,-3
1441193762777994,0,2,1,1,-3,-2,1,-3
1441193762785968,-1,-1,3,3,0,-1,0,-1
1441193762785968,0,-4,-1,12,-1,-2,-1,-1
1441193762801014,-2,-1,4,1,-5,-2,-2,1
1441193762801014,-2,-4,0,8,-1,3,1,1
1441193762801782,-2,1,-1,0,1,-2,-2,-3
1441193762801782,0,1,-3,-10,0,2,0,0
1441193762815844,-2,0,1,-5,1,-2,-1,-4
1441193762815844,-3,0,3,-4,-1,-3,-3,1
1441193762823929,-1,1,-2,12,0,-3,-1,-2
1441193762823929,-1,-2,0,-11,-4,-1,-3,-1
1441193762838048,2,3,-1,2,3,0,-1,-4
1441193762838048,-1,-3,-2,-13,-4,-1,1,-1
1441193762846037,-2,-4,3,17,-4,-2,-3,-2
1441193762846037,-1,1,0,-9,-2,-3,-1,-1
1441193762861013,0,2,1,1,-4,0,-2,2
1441193762861013,0,-1,-2,-7,-1,-1,0,-2
1441193762861779,0,-1,-4,-8,-2,1,2,-1
1441193762861779,0,-2,1,3,-1,-1,1,-2
1441193762875784,0,4,-2,-6,-1,-3,-1,3
1441193762875784,1,-1,1,-1,-1,-1,-5,-4
1441193762883908,-2,0,-2,8,-1,0,-1,1
1441193762883908,-1,-4,-1,8,-2,-4,0,3
1441193762898091,-1,1,-1,1,0,3,-3,0
1441193762898091,-2,0,-5,-3,1,4,0,-1
1441193762906782,-2,-1,-2,-3,2,-2,1,-2
1441193762906782,0,1,0,-4,3,-1,-1,-1
1441193762920961,1,-5,0,4,-1,-1,1,1
1441193762920961,-8,-3,-2,-14,0,-2,-1,-2
1441193762921783,14,-3,5,-5,-1,-1,-3,-4
1441193762921783,-2,-1,-5,-5,3,-1,-2,1
1441193762935955,3,1,1,-3,1,-3,1,0
1441193762935955,0,-2,0,1,-1,-3,0,-1
1441193762943975,-5,1,1,-5,-2,1,2,-2
1441193762943975,-2,-1,0,-6,-1,1,-3,-1
1441193762958056,0,-2,-1,3,-3,0,2,-1
1441193762958056,2,0,-5,-9,-3,-3,-4,-1
1441193762966780,-3,-14,-5,3,1,3,0,-2
1441193762966780,0,1,-1,-2,-1,-2,-2,-1
1441193762980833,-3,-3,0,1,-2,-1,-4,1
1441193762980833,1,-2,-1,6,-1,-1,0,0
1441193762981782,-1,-1,-3,-4,-1,-2,-3,1
1441193762981782,-1,-1,2,-7,0,2,1,-3
1441193762995891,-2,-3,-2,20,-4,-3,1,4
1441193762995891,1,-1,-3,2,1,-2,-2,2
1441193763003942,-2,3,1,-4,-3,-2,-5,-2
1441193763003942,-1,-2,2,9,0,-1,0,0
1441193763018935,-2,-3,-2,-4,2,-1,0,0
1441193763018935,0,1,0,4,0,1,0,0
1441193763025891,-4,2,0,5,2,-1,0,1
1441193763025891,1,-1,0,2,-4,-1,-3,-3
1441193763040814,1,-3,1,-17,-1,-1,-2,-4
1441193763040814,0,0,3,6,-2,0,0,0
1441193763041785,-4,2,-1,-5,-3,-1,-4,-3
1441193763041785,0,-2,-3,0,-1,-1,1,-1
1441193763055813,-1,5,-3,-3,-6,2,3,-1
1441193763055813,-2,3,0,1,2,-1,-4,-2
1441193763064829,-1,-3,1,-8,-3,-2,0,-1
1441193763064829,-1,1,-3,-4,1,0,0,-2
1441193763078786,-1,0,7,11,-2,-2,-2,1
1441193763078786,-1,-1,-2,-11,-2,-1,-1,0
1441193763086785,-1,1,-1,-4,2,-2,-1,-2
1441193763086785,-1,0,-5,4,1,0,-1,-1
1441193763101877,0,-1,0,-6,0,0,-1,-3
1441193763101877,2,-2,-3,1,-2,-3,-1,-2
1441193763101877,-1,-3,0,-1,-3,1,-1,0
1441193763101877,-1,-3,3,5,-5,0,1,1
1441193763115967,-1,0,-2,-10,0,1,-3,-1
1441193763115967,0,-2,1,18,-2,-1,2,-2
1441193763123842,-1,2,-2,-4,2,-1,0,-1
1441193763123842,-4,-13,2,7,1,-1,0,0
1441193763138026,7,-3,-2,8,-1,-2,-3,-3
1441193763138026,0,0,1,-19,-2,0,-2,-3
1441193763146029,-2,1,-2,1,-1,0,2,-3
1441193763146029,-5,5,2,-6,1,-1,1,0
1441193763160985,-3,-3,0,4,3,-2,3,1
1441193763160985,1,-5,0,3,1,0,-1,-2
1441193763161788,0,-1,-3,0,-1,-1,-3,-2
1441193763161788,0,1,0,2,-2,-2,-2,0
1441193763175788,-1,-1,-5,-9,0,0,-1,-1
1441193763175788,0,2,2,0,3,0,-1,0
1441193763184024,-4,1,0,13,0,-1,0,1
1441193763184024,-2,0,-3,-13,-2,-1,-2,-1
1441193763197916,2,-1,-2,-5,2,-2,-1,-1
1441193763197916,-1,1,2,3,-5,0,2,0
1441193763205995,1,6,1,-5,0,1,-5,-2
1441193763205995,2,2,-3,-3,-1,-1,-2,0
1441193763221035,-2,-4,2,2,0,2,1,0
1441193763221035,0,-2,0,-4,-2,-1,0,1
1441193763221790,-1,-1,-2,-2,2,0,1,-2
1441193763221790,0,1,1,10,-2,-1,-2,-2
1441193763235788,-3,2,-3,2,1,-3,-3,3
1441193763235788,-1,0,-2,0,3,0,-1,-3
1441193763243835,0,-2,1,0,-2,-2,-1,-1
1441193763243835,-2,-1,-4,1,-2,-1,1,-1
1441193763258026,-1,-3,0,-3,-4,-1,1,-1
1441193763258026,-1,-3,-1,12,-4,0,-2,0
1441193763266011,-1,-2,-1,3,-1,0,0,-1
1441193763266011,-1,-4,0,-3,2,-1,0,0
1441193763280994,-1,5,-1,-4,-7,-1,-1,-1
1441193763280994,-1,-11,0,6,-1,-2,-2,-1
1441193763281790,0,-6,-1,-9,0,1,-1,1
1441193763281790,1,4,0,-9,-3,-1,-2,-2
1441193763295920,0,2,0,11,0,1,-1,2
1441193763295920,-2,1,-2,-4,0,0,-2,0
1441193763303861,-1,0,1,6,-1,2,2,0
1441193763303861,1,-1,-2,2,-1,-2,2,0
1441193763318028,-1,2,2,-3,1,1,-1,1
1441193763318028,-1,1,-3,1,-3,-1,-1,-2
1441193763325899,-1,1,-1,0,-2,1,-1,-1
1441193763325899,-1,-1,-1,-6,2,-2,2,-1
1441193763340788,-2,-1,-2,-1,-1,-4,1,0
1441193763340788,-2,0,1,-3,2,-3,1,0
1441193763341788,-2,0,-1,-1,-3,0,-1,-3
1441193763341788,0,-1,0,6,-4,1,1,0
1441193763355890,-1,-4,-4,-8,-1,-1,-1,0
1441193763355890,0,6,2,0,-2,1,0,-3
1441193763364000,-1,-2,2,6,-2,-4,-3,-1
1441193763364000,1,-1,-2,-14,-3,-4,-2,-1
1441193763378017,0,-2,1,3,-6,1,1,-4
1441193763378017,1,5,-2,14,-1,-2,-1,0
1441193763386791,-3,-2,-4,-8,-3,-3,-1,-1
1441193763386791,-1,-1,0,-1,-1,2,-1,-1
1441193763400793,0,-3,3,3,2,-2,-1,1
1441193763400793,-2,-5,-3,-12,-1,-1,1,-1
1441193763401791,0,-1,1,5,-2,-1,-1,-2
1441193763401791,-1,-3,-3,1,-2,-2,-3,1
1441193763415797,-1,-2,-1,-19,-2,-1,-1,-1
1441193763415797,0,0,0,8,-7,0,0,-2
1441193763423907,-3,0,2,0,1,-1,-1,0
1441193763423907,1,2,-1,2,0,1,-1,-1
1441193763437999,-1,-2,-1,1,-2,-1,-2,-2
1441193763437999,-1,-6,0,-7,0,1,-1,1
1441193763446030,-1,4,-6,-12,-2,-4,0,-4
1441193763446030,-2,1,3,8,-5,-3,-3,1
1441193763461055,1,-3,-1,-1,-1,-1,2,1
1441193763461055,-1,-1,0,-1,0,0,0,0
1441193763461794,1,-1,0,2,0,-2,-1,0
1441193763461794,0,-2,-2,-2,-3,0,-2,1
1441193763475849,-2,0,1,8,-1,-3,-1,-1
1441193763475849,-1,1,-4,-7,-2,-3,-3,-1
1441193763483959,-1,-5,0,-10,-5,2,1,2
1441193763483959,0,-2,-4,-2,0,-2,-2,-3
1441193763498806,-1,0,-2,3,1,-1,1,-1
1441193763498806,-1,0,0,2,2,-1,-1,-2
1441193763506040,0,-1,0,-11,0,-4,-3,-1
1441193763506040,-2,-2,0,4,1,-2,-1,0
1441193763520992,-3,-4,-5,-4,-2,0,-1,0
1441193763520992,-1,8,2,11,2,-1,2,1
1441193763521795,-1,3,-3,-19,1,-1,-1,-1
1441193763521795,0,1,1,-5,0,-1,0,0
1441193763535846,0,-2,1,6,0,-1,0,-2
1441193763535846,-1,-1,-2,-8,-4,0,-2,-4
1441193763544000,-1,-3,3,8,1,0,-1,-2
1441193763544000,-2,0,0,-1,-2,1,2,0
1441193763558021,0,4,2,1,-3,1,-2,0
1441193763558021,-1,-3,0,-9,-5,-2,-2,-3
1441193763566059,-1,-2,1,9,0,1,1,0
1441193763566059,0,-3,-2,6,0,2,-3,-1
1441193763580804,1,-1,0,-11,-1,-3,-2,-2
1441193763580804,-1,-2,-2,-7,7,0,-1,-2
1441193763581792,-2,-4,-5,13,0,1,-2,0
1441193763581792,0,-2,-1,0,1,0,-1,0
1441193763595863,-1,0,-3,2,-1,-2,0,-1
1441193763595863,0,-3,0,0,0,-3,-1,-1
1441193763604796,-1,0,-1,-3,-3,0,-1,-1
1441193763604796,0,-3,-1,-3,-2,-1,1,0
1441193763618015,-1,1,-2,-3,0,1,0,0
1441193763618015,-3,-1,2,1,1,-1,-4,0
1441193763626795,0,6,-1,-6,0,2,1,-1
1441193763626795,-2,2,1,5,0,1,0,-1
1441193763640917,-1,-1,-2,1,0,0,-3,-2
1441193763640917,0,0,-4,-4,-1,-2,0,2
1441193763649834,1,-2,-1,4,-2,1,-1,-1
1441193763649834,-2,-2,-1,-3,-1,0,-1,-2
1441193763664826,-1,-3,-2,-7,-2,-4,1,2
1441193763664826,-3,1,1,1,0,0,-1,0
1441193763665792,-1,-4,2,10,1,-3,-1,0
1441193763665792,-1,-1,-5,-6,1,-1,0,1
1441193763677795,-1,0,0,-9,0,1,-3,-2
1441193763677795,0,-3,-2,18,-5,0,-2,-3
1441193763687796,0,0,0,0,-2,-4,2,-2
1441193763687796,-1,-4,-2,0,1,-1,1,-1
1441193763700910,0,0,-3,0,0,0,-2,1
1441193763700910,-1,0,0,-1,-1,-3,0,-2
1441193763709799,-2,1,0,1,-2,-3,0,0
1441193763709799,1,-10,-1,6,0,1,-1,1
1441193763724894,1,-2,0,-2,-2,2,-1,0
1441193763724894,-2,0,-2,-6,-3,-1,-1,-2
1441193763725802,-1,-1,-1,2,1,1,-1,-2
1441193763725802,-1,4,2,-6,-2,-4,0,1
1441193763737852,1,0,3,18,-1,-1,0,3
1441193763737852,0,-4,-1,-2,0,0,-1,-3
1441193763747798,0,-1,1,-4,0,1,0,-3
1441193763747798,0,1,-2,0,-1,-4,-1,2
1441193763760926,0,-2,1,-5,0,-1,-1,-4
1441193763760926,-1,2,-2,0,0,-2,-1,0
1441193763769800,-2,-3,-4,-7,-1,-3,-2,-2
1441193763769800,-1,0,5,2,-4,-3,1,-2
1441193763784800,0,-1,-4,10,2,-1,-2,-1
1441193763784800,1,-2,1,-2,-1,2,-2,0
1441193763786798,-1,-17,-6,1,-1,4,-3,-1
1441193763786798,-1,1,1,-6,3,0,2,-1
1441193763798056,-2,-2,1,8,-5,-1,0,-1
1441193763798056,-1,0,3,0,-2,1,-3,-1
1441193763807798,1,3,1,0,-3,-1,-2,0
1441193763807798,1,0,-1,0,-2,3,-2,-2
1441193763820797,-1,-2,-3,-5,-1,1,0,-2
1441193763820797,0,-2,-2,-4,1,-1,2,-1
1441193763829802,-1,2,2,6,-5,-3,-3,3
1441193763829802,0,-1,-3,-5,-2,1,0,-3
1441193763844081,0,3,-3,-7,-2,-3,-2,-2
1441193763844081,-2,-2,-2,10,1,0,-2,0
1441193763845797,0,-1,-4,-6,-1,-2,-2,-2
1441193763845797,-1,1,1,-1,-1,0,0,-1
1441193763858078,0,-4,2,-5,0,-1,-1,0
1441193763858078,1,-2,-2,-5,0,0,0,-3
1441193763866799,-1,0,0,2,0,-2,-1,-1
1441193763866799,-2,1,-1,1,1,-3,-2,-1
1441193763880803,-1,-2,-2,-4,-4,1,-2,0
1441193763880803,0,-5,0,-2,0,-1,-2,-2
1441193763889802,-1,4,3,4,2,0,2,0
1441193763889802,-1,0,-3,0,-1,-1,-1,1
1441193763903813,2,4,0,-14,-5,0,-1,-1
1441193763903813,-1,0,-1,3,-2,-2,-2,0
1441193763905802,-1,-1,-3,-3,-2,-2,-2,0
1441193763905802,0,2,1,0,0,-3,-2,-3
1441193763918051,-2,-3,-3,4,0,-1,1,0
1441193763918051,-2,0,0,-2,-1,-2,-1,-2
1441193763927801,-2,-3,0,-6,-1,4,0,1
1441193763927801,1,-2,0,12,-3,-1,-3,2
1441193763940942,-2,0,5,0,3,-1,-1,-1
1441193763940942,-2,2,0,-4,2,0,-1,0
1441193763949803,0,1,-1,-2,-3,-2,-1,-4
1441193763949803,-2,0,-2,-3,-2,-2,-3,0
1441193763964874,1,-12,-1,8,0,-1,-1,0
1441193763964874,-1,1,-3,-5,-3,-2,2,-1
1441193763966798,-2,0,-2,2,3,-3,-1,-1
1441193763966798,-1,-2,0,4,1,1,0,-1
1441193763978018,-1,1,1,-14,-2,-2,1,0
1441193763978018,-3,-2,-2,6,-1,2,1,-1
1441193763986801,-1,1,0,1,0,3,-1,-1
1441193763986801,0,1,-3,-10,2,0,-2,-1
1441193764000989,-1,4,-2,2,-4,-4,-2,-2
1441193764000989,0,0,3,-8,-2,-1,0,-3
1441193764009802,0,0,0,-5,-5,-1,0,-1
1441193764009802,-1,-2,-2,4,2,-1,-2,-2
1441193764024876,0,3,-2,-1,1,-1,0,-1
1441193764024876,-2,0,1,6,-1,-2,-1,2
1441193764026843,0,4,0,1,0,-1,2,-2
1441193764026843,-1,-4,-1,-11,-2,-3,0,2
1441193764038084,0,-1,-2,1,-2,0,-1,1
1441193764038084,0,4,1,2,-3,-1,-1,-2
1441193764046800,-2,-3,-2,-4,0,-1,-5,0
1441193764046800,-1,-1,-2,-5,1,1,0,-1
1441193764060814,0,4,-1,-9,1,1,1,-3
1441193764060814,-1,-2,1,-2,0,-3,0,0
1441193764069802,-1,-3,2,6,3,-1,-1,-3
1441193764069802,0,-3,1,-18,-4,1,-1,-1
1441193764084850,-1,-4,-2,-2,0,1,0,-2
1441193764084850,1,-1,0,6,-2,0,-2,1
1441193764085802,-1,-1,-2,-1,-2,0,-1,-2
1441193764085802,-1,-2,-2,-4,-2,-4,2,0
1441193764097997,-1,3,-1,5,2,-1,0,-2
1441193764097997,-1,4,-3,-6,-3,-1,-5,-2
1441193764106802,0,3,1,4,-1,0,4,-1
1441193764106802,-1,-3,-1,11,-1,1,1,-1
1441193764120976,-1,0,5,-1,-2,-2,0,-1
1441193764120976,-1,-1,3,-1,0,0,-2,0
1441193764129804,-1,-1,-3,-8,1,-3,-1,-1
1441193764129804,-1,5,-2,3,0,0,-2,1
1441193764144854,-1,-3,-5,4,-3,-1,-1,-2
1441193764144854,0,-1,2,-10,-5,2,1,-1
1441193764145802,0,-3,-2,1,-1,1,-1,-2
1441193764145802,0,-2,0,-3,1,-2,1,0
1441193764157930,-2,7,-2,-2,2,-4,-3,2
1441193764157930,-3,-2,0,2,3,-1,-3,-5
1441193764166804,-1,-3,-4,-12,-4,3,0,0
1441193764166804,0,1,-1,7,1,0,0,-1
1441193764180975,-3,0,2,2,2,0,-1,-1
1441193764180975,-1,-3,-3,-1,-3,-3,-2,1
1441193764189803,0,1,1,-10,0,-4,-1,-1
1441193764189803,-2,-1,2,8,-4,0,0,-2
1441193764204804,-1,-5,-1,1,-2,-2,-5,0
1441193764204804,-1,-3,-1,5,0,0,0,-2
1441193764205805,0,-2,2,3,-2,0,-2,0
1441193764205805,0,2,-3,5,-2,-1,2,0
1441193764218057,1,-3,1,-17,-1,-3,0,0
1441193764218057,0,-1,-1,-8,3,3,-1,-3
1441193764232964,0,1,-3,6,-3,-3,-1,-1
1441193764232964,-3,0,1,-1,0,-1,-2,-5
1441193764240804,1,0,1,-1,-4,-2,0,-1
1441193764240804,-2,0,-3,15,2,-1,-1,-2
1441193764249848,-1,-3,1,2,2,-3,-3,0
1441193764249848,-2,-3,2,9,-4,0,-3,-1
1441193764264887,1,-3,0,-5,-1,0,-1,-1
1441193764264887,0,-1,0,0,-2,0,1,0
1441193764265805,-1,6,0,3,3,-3,-2,0
1441193764265805,-2,-6,-1,-4,-4,-1,-4,-1
1441193764278806,-3,-1,-3,7,0,-2,1,1
1441193764278806,-2,2,-1,-9,-5,-4,2,-1
1441193764286806,0,1,2,-4,1,0,-1,-2
1441193764286806,-1,1,-1,-11,3,-1,3,2
1441193764300918,-1,-1,0,-1,-3,1,-1,-1
1441193764300918,-2,-1,0,5,-1,-4,0,-2
1441193764309810,-1,-4,-2,2,-2,-2,1,1
1441193764309810,1,-2,-2,1,2,-1,0,0
1441193764324810,-1,1,-3,-5,-2,2,-2,1
1441193764324810,-1,1,-3,5,1,0,-1,0
1441193764326811,0,-2,0,10,-3,0,-2,-2
1441193764326811,1,-1,3,3,0,-3,1,-3
1441193764338811,-3,-2,-4,0,0,3,0,1
1441193764338811,0,2,-1,-9,1,2,-1,-2
1441193764347810,-3,-2,0,-2,0,-2,0,-1
1441193764347810,-2,-1,0,-5,0,2,-1,0
1441193764360922,0,-1,-3,-6,0,-1,0,-3
1441193764360922,-1,-5,-2,6,-3,0,-5,-1
1441193764369809,0,1,-3,-4,2,-2,1,-1
1441193764369809,-1,4,-1,-7,-2,-1,1,1
1441193764384810,-2,0,1,1,1,-2,0,-2
1441193764384810,-1,-3,4,-5,1,1,2,-3
1441193764385807,0,0,-2,-2,-3,-1,-3,-2
1441193764385807,0,-1,-3,2,-6,0,0,2
1441193764398070,1,0,2,18,1,-3,-1,-1
1441193764398070,-1,0,1,-10,1,2,-2,-1
1441193764406808,-2,-15,-2,4,2,1,3,0
1441193764406808,-1,0,-1,-4,-3,1,-1,0
1441193764420848,-1,-1,0,10,-2,0,-3,-3
1441193764420848,-1,0,-2,2,-1,-2,1,-2
1441193764429809,-1,3,1,-4,0,2,-1,-1
1441193764429809,1,1,-2,-1,1,-3,-3,-1
1441193764444042,-1,-1,-2,-14,-2,-2,0,0
1441193764444042,-1,0,-3,-2,2,-2,-4,1
1441193764445809,-1,-1,5,-5,-1,-1,0,-1
1441193764445809,0,-4,-3,-2,-6,-1,2,1
1441193764458070,1,1,3,16,1,0,-1,-4
1441193764458070,-2,1,-2,-3,-2,-3,-2,0
1441193764466809,0,3,-1,4,-3,-2,1,-1
1441193764466809,-1,-4,-1,5,-1,-1,-1,0
1441193764480934,-3,2,1,4,1,-1,0,-1
1441193764480934,1,3,-2,-12,-4,1,-1,-2
1441193764489809,-2,-1,-2,16,-1,1,0,-1
1441193764489809,0,-2,-2,-10,-3,1,0,-2
1441193764512028,-3,1,-1,-10,-2,0,1,2
1441193764512028,1,-7,-1,4,0,-1,0,-1
1441193764513822,-1,2,-7,-7,-2,2,-2,0
1441193764513822,1,2,-1,1,-1,-3,-3,-2
1441193764518077,1,-1,1,-7,-1,2,1,-2
1441193764518077,0,0,0,-2,-2,-1,-1,0
1441193764526813,1,-3,4,-1,-2,-3,-3,-2
1441193764526813,-1,-5,-3,-3,0,-2,-1,1
1441193764540812,0,-1,-1,1,-5,2,0,-1
1441193764540812,-3,-1,-2,6,-2,-1,0,-1
1441193764549811,-1,2,-3,-21,0,-1,-3,-1
1441193764549811,-1,10,3,-2,0,-2,-3,0
1441193764563987,-1,-3,-2,-5,-3,-3,-2,-2
1441193764563987,-2,0,5,7,-2,1,-4,-3
1441193764570882,0,-4,-8,-2,0,0,1,2
1441193764570882,1,-1,0,-5,-1,-1,2,0
1441193764578064,-2,-1,-3,0,-4,-3,-4,1
1441193764578064,-1,-4,-1,0,-1,-1,-1,-2
1441193764586815,1,0,-4,1,-1,0,-2,-2
1441193764586815,-1,-3,-3,11,3,0,-1,3
1441193764600992,0,-3,1,10,0,-3,-1,1
1441193764600992,-3,-1,0,-5,2,-2,-1,-1
1441193764609817,1,-2,1,0,-4,1,-3,-1
1441193764609817,-1,-2,0,1,2,0,1,0
1441193764623818,-2,0,-5,-6,0,-3,1,-3
1441193764623818,-1,8,2,-2,-4,-1,-1,0
1441193764630914,-2,2,2,-6,1,0,2,-1
1441193764630914,1,-5,-3,-1,-4,-1,-1,0
1441193764646875,-1,-3,-1,0,0,-2,2,0
1441193764646875,2,0,-3,2,-2,0,-1,0
1441193764647873,-2,-4,0,10,1,-1,0,-1
1441193764647873,1,-1,-1,-2,0,-4,1,-2
1441193764660819,0,0,1,9,0,-1,-2,0
1441193764660819,-1,-1,0,-9,2,-3,-1,-5
1441193764669814,-1,-2,-1,4,-2,-3,-5,1
1441193764669814,0,0,-1,1,0,1,1,0
1441193764684011,-2,-2,1,-1,2,-1,-1,-2
1441193764684011,-1,-3,-1,1,-7,-3,-1,-2
1441193764690923,-3,-2,1,-7,0,2,1,0
1441193764690923,-2,4,1,2,-4,-2,0,-2
1441193764707069,3,-1,0,-7,-2,0,-2,-1
1441193764707069,-3,-5,0,6,2,0,-2,-2
1441193764708813,2,-1,0,-4,0,0,-1,1
1441193764708813,2,-2,-1,1,0,-2,-1,-1
1441193764720884,0,1,-1,-3,1,1,-2,2
1441193764720884,-2,0,-5,-4,-2,-1,1,1
1441193764729817,0,-2,0,5,-3,-2,0,-2
1441193764729817,-1,-5,2,7,-2,-1,-1,1
1441193764744818,1,0,0,-2,0,0,-1,-3
1441193764744818,-1,-2,-1,-5,-2,-1,-3,-2
1441193764758818,-2,1,1,2,-4,-1,-1,-1
1441193764758818,1,-3,-3,-7,-2,1,0,-1
1441193764767074,0,0,-1,0,0,1,3,2
1441193764767074,-2,3,0,9,-3,0,-2,-4
1441193764767815,-2,3,0,-10,0,-1,0,-1
1441193764767815,-1,-2,-1,-4,-4,1,0,-1
1441193764780844,1,1,1,6,-2,-5,2,-1
1441193764780844,2,0,-2,-17,1,2,3,-3
1441193764789819,0,1,1,6,-1,-1,0,0
1441193764789819,-1,-1,-1,-7,2,-2,-2,-1
1441193764803981,-3,-3,3,-3,-2,-2,-3,-3
1441193764803981,-1,-6,-4,-4,-3,-1,-2,0
1441193764810960,-1,0,2,1,1,-3,-3,-1
1441193764810960,-2,-3,3,-3,-1,1,1,1
1441193764827036,-1,-2,-3,-1,-1,3,-3,0
1441193764827036,0,3,-2,1,-3,-3,0,-1
1441193764828821,0,0,-5,3,-2,-2,-1,-4
1441193764828821,-1,-6,2,-5,-1,0,-2,1
1441193764840935,0,-1,-6,-9,0,-1,-1,-3
1441193764840935,-2,2,1,4,0,1,-2,1
1441193764849821,-1,-3,-3,-3,-2,-1,-2,2
1441193764849821,0,4,-3,-4,0,-2,-2,-1
1441193764863891,-2,-4,2,0,1,1,-1,-2
1441193764863891,-3,-3,-6,3,-4,2,-1,-1
1441193764870869,1,-2,1,-2,-3,0,0,1
1441193764870869,0,0,-2,0,0,-1,0,1
1441193764887028,1,-1,-1,-7,-3,-3,0,1
1441193764887028,-2,-1,0,14,1,2,-1,-1
1441193764888822,-2,-1,1,-16,0,-3,-1,-2
1441193764888822,0,1,-2,-12,0,1,-2,-1
1441193764901036,-2,-9,-2,2,-1,1,1,1
1441193764901036,2,-1,2,-8,-3,-3,-2,0
1441193764908864,-4,-2,1,-1,-4,-3,-2,-2
1441193764908864,0,-4,3,10,-1,-1,1,0
1441193764923884,0,1,-3,-15,-3,-3,-3,-3
1441193764923884,0,-2,2,3,5,2,-1,-1
1441193764930885,0,1,-2,3,2,-1,-2,2
1441193764930885,0,1,-4,2,2,-3,0,-2
1441193764947027,-2,3,0,4,-3,0,0,0
1441193764947027,-2,-1,0,13,-2,-2,-3,0
1441193764948820,0,2,2,-2,-5,3,2,-1
1441193764948820,0,0,-3,-4,-2,-4,-2,-1
1441193764961044,-1,-1,3,6,1,-1,-2,0
1441193764961044,-1,-2,-3,3,-3,-1,-1,-3
1441193764968075,-1,4,-3,-12,0,1,0,-1
1441193764968075,-2,3,2,4,-2,0,-2,-1
1441193764983972,-2,0,-1,-2,-1,-5,0,-2
1441193764983972,0,-3,1,-6,-2,-3,1,-2
1441193764990956,2,-2,1,10,-2,-2,-5,1
1441193764990956,-1,-3,-2,-3,1,1,0,-1
1441193765006988,0,0,-3,-3,-1,1,-3,-3
1441193765006988,-1,1,-2,-12,-1,-1,-1,0
1441193765007820,-3,-1,-1,10,2,-1,1,-3
1441193765007820,1,-1,-1,0,0,1,0,1
1441193765020821,-2,1,2,16,0,-2,1,-1
1441193765020821,0,-3,-3,-16,-1,0,-3,1
1441193765028060,1,-3,-1,-2,-2,1,1,-2
1441193765028060,-1,-2,-3,1,-1,-1,-1,0
1441193765043822,1,0,-2,8,0,-1,-1,-2
1441193765043822,-1,5,2,-5,-1,0,-2,-2
1441193765050853,0,-9,3,6,-2,-1,-3,-1
1441193765050853,-2,0,2,-3,0,0,1,0
1441193765066880,1,-2,0,-8,0,3,-1,-1
1441193765066880,-1,0,2,7,1,-1,0,-3
1441193765068850,0,-3,-2,-1,0,-1,3,1
1441193765068850,0,-4,-2,0,-1,1,-2,-2
1441193765082076,-2,0,-4,0,-2,-1,-2,1
1441193765082076,0,-4,-3,-6,-1,1,0,1
1441193765087900,-2,1,-4,-10,-4,-3,0,0
1441193765087900,0,-2,3,17,0,1,2,0
1441193765104031,1,2,1,-4,2,-1,0,-4
1441193765104031,-1,-4,0,2,0,-2,0,-2
1441193765110850,-1,1,-1,5,1,0,0,-1
1441193765110850,2,0,-2,-9,-3,-3,0,0
1441193765127074,-2,-2,-3,-2,-4,-1,-2,1
1441193765127074,-2,1,-2,7,2,-1,2,-1
1441193765128825,-1,-3,1,-6,0,1,0,-1
1441193765128825,-2,-1,5,0,1,-1,-2,-1
1441193765140824,0,-12,-4,-5,-1,1,1,1
1441193765140824,0,2,-1,-13,0,-1,-3,-3
1441193765149826,-4,-1,-4,0,-1,1,1,-1
1441193765149826,-1,-3,-3,2,-2,0,-2,1
1441193765163956,-2,-1,4,1,-1,0,-2,0
1441193765163956,0,-1,-3,-2,0,1,-1,2
1441193765170921,1,-2,-3,-4,-2,1,-2,-2
1441193765170921,0,-1,-1,-2,-2,0,1,0
1441193765187046,-2,1,2,9,-1,0,-4,-2
1441193765187046,-1,0,-2,12,1,-1,-1,-2
1441193765188827,2,0,0,-24,-2,-1,1,3
1441193765188827,-3,-2,-3,-1,-2,-1,1,-2
1441193765200958,0,1,3,3,2,0,-2,1
1441193765200958,0,6,1,3,-1,-3,-2,0
1441193765209828,0,3,-1,9,2,-2,-2,0
1441193765209828,-2,-2,-2,-14,2,0,0,-2
1441193765223961,-1,-2,0,1,-3,-3,-1,0
1441193765223961,-2,-2,-1,-2,-4,1,2,-1
1441193765230877,-1,-5,-2,2,0,-1,1,1
1441193765230877,1,0,0,1,0,-2,-4,2
1441193765247023,-1,1,1,-13,-1,-2,0,-2
1441193765247023,1,-6,1,-1,2,-1,-2,0
1441193765248829,-1,0,-2,-5,-3,0,-2,1
1441193765248829,0,-3,-1,3,-1,-2,1,1
1441193765260830,0,-1,-1,-7,-6,1,2,-3
1441193765260830,0,1,-2,-2,-1,-2,1,-4
1441193765269825,-3,-13,0,6,-2,0,-3,-3
1441193765269825,-1,2,5,-2,0,-1,-4,0
1441193765284000,-1,3,-2,-1,-1,1,-1,0
1441193765284000,-2,1,0,-6,-6,-3,-2,-5
1441193765290827,-1,4,-2,11,6,0,-1,-1
1441193765290827,-1,-3,-1,-12,-4,-1,-1,0
1441193765307065,-1,-2,-1,17,-3,-4,1,-1
1441193765307065,-2,-6,2,-6,-3,-1,-1,1
1441193765308830,-1,0,1,9,-4,-1,0,-3
1441193765308830,0,2,-3,-3,-2,-2,-1,0
1441193765320938,0,9,0,-7,-1,0,-1,-2
1441193765320938,-1,2,-2,1,-1,-2,0,-2
1441193765329867,1,5,0,-9,-5,3,-2,0
1441193765329867,-2,-1,0,6,-3,0,3,1
1441193765343949,-2,-1,-3,-1,1,1,-3,-2
1441193765343949,-2,-4,1,-2,-1,2,0,0
1441193765351001,-2,-1,-2,0,2,-5,3,-3
1441193765351001,0,5,-2,-2,-1,-1,0,0
1441193765367052,0,-4,0,-2,-1,-4,-1,2
1441193765367052,0,-3,0,8,-2,0,-2,-2
1441193765368830,0,-3,-4,-13,-1,-1,-1,-1
1441193765368830,-2,-1,0,0,0,1,0,3
1441193765381025,-3,-2,-3,-1,-1,-2,-2,1
1441193765381025,-2,4,-1,-2,3,0,-3,-4
1441193765389829,1,-5,2,11,0,-3,-2,0
1441193765389829,1,0,-1,8,0,-1,-1,-2
1441193765403906,0,-4,-5,-5,3,-2,2,-1
1441193765403906,0,0,0,-5,2,0,-1,0
1441193765410837,0,-1,0,6,-4,-2,-1,1
1441193765410837,-1,-4,-2,-1,1,-3,2,0
1441193765427088,0,-3,0,-2,0,1,0,-1
1441193765427088,-1,-2,2,1,-2,-1,-2,1
1441193765428830,-1,4,2,6,5,-1,1,-2
1441193765428830,0,-1,-4,-21,-1,1,-4,-2
1441193765440886,-1,0,0,2,2,-1,-1,0
1441193765440886,-1,-2,-3,-3,3,-2,2,0
1441193765449852,-2,1,0,7,-2,2,-2,-1
1441193765449852,0,0,2,3,-2,0,-1,-2
1441193765464018,0,-2,0,-2,-2,1,-2,0
1441193765464018,-1,2,-1,0,1,-3,0,1
1441193765471068,0,-6,1,-9,0,-1,-1,-1
1441193765471068,0,0,-2,6,1,2,0,0
1441193765486057,-3,0,1,-7,-2,0,-2,-2
1441193765486057,-1,-3,-2,10,-3,3,1,-1
1441193765493013,-1,3,-3,-7,2,-1,4,2
1441193765493013,0,-2,1,-2,0,-1,1,1
1441193765500990,0,-3,3,4,0,-1,-1,-1
1441193765500990,-1,0,0,-3,-3,-4,-1,0
1441193765509833,-1,-2,-3,-5,-1,0,-1,-2
1441193765509833,0,0,1,6,1,0,-1,0
1441193765524034,-1,0,-4,6,-5,-2,1,1
1441193765524034,-3,-1,0,-2,0,-1,2,0
1441193765530836,1,-2,1,1,-5,0,0,1
1441193765530836,1,0,-1,0,0,-3,1,0
1441193765546032,0,-13,-3,-1,-1,-1,0,0
1441193765546032,-3,-5,0,-4,-1,1,-5,-1
1441193765553075,-1,0,-4,-1,0,0,1,-2
1441193765553075,0,-3,-1,3,0,-1,1,1
1441193765569885,-1,4,-1,-15,3,-2,2,-1
1441193765569885,0,-2,1,22,0,-2,-1,0
1441193765570830,-1,-4,1,1,-3,-1,-2,0
1441193765570830,-2,0,-2,-4,-5,-1,1,0
1441193765584048,-1,2,1,4,0,-1,0,-2
1441193765584048,0,5,-1,-4,-2,-1,1,0
1441193765591000,-2,-1,3,-3,1,-2,-1,-3
1441193765591000,0,-1,2,0,2,-2,1,-1
1441193765606075,-2,-2,1,7,-3,1,-2,-1
1441193765606075,-1,0,-4,-8,1,1,0,-1
1441193765612836,1,1,-2,5,1,2,0,-1
1441193765612836,-1,-5,-2,9,0,3,0,3
1441193765629850,1,3,-2,0,1,1,0,-2
1441193765629850,-1,-2,-1,-7,1,-2,-2,0
1441193765631862,1,-3,-4,5,-2,-2,-2,2
1441193765631862,0,0,-2,-3,-3,-2,-1,-1
1441193765643999,-2,2,0,0,-1,3,-2,-2
1441193765643999,-1,-2,0,-1,-2,-1,2,-2
1441193765650880,-3,2,-1,-4,0,-3,-1,-1
1441193765650880,0,-1,-3,-4,0,-1,-1,1
1441193765665998,0,1,-1,2,-2,-2,0,0
1441193765665998,2,-2,-2,-2,-2,-1,0,-2
1441193765673050,-3,-4,-1,-5,-3,2,0,0
1441193765673050,-1,-4,0,1,-2,0,-2,-3
1441193765689863,-4,-3,-2,0,1,-3,-1,-4
1441193765689863,-1,-1,1,0,-2,2,0,-1
1441193765690833,0,5,3,8,-4,0,0,-1
1441193765690833,-1,0,1,-14,0,-2,0,-1
1441193765704094,-1,1,1,1,-4,0,-2,3
1441193765704094,-2,5,4,2,1,-1,1,-4
1441193765710839,-1,4,-3,-6,0,-1,-1,-1
1441193765710839,-2,4,0,-3,-1,0,-2,2
1441193765725864,1,-4,-2,5,1,0,-3,-2
1441193765725864,-3,-1,-2,-4,-6,2,0,-1
1441193765733070,0,-3,0,-7,0,-1,1,0
1441193765733070,0,0,1,11,0,0,-1,-3
1441193765749835,1,1,-1,-24,2,0,0,-1
1441193765749835,-2,-3,-1,6,-1,-1,-3,2
1441193765750834,0,-4,-5,-4,1,3,0,-1
1441193765750834,-1,-1,-1,-1,-1,-2,-1,1
1441193765763949,0,-1,2,9,1,-2,1,1
1441193765763949,0,-4,-1,-11,-1,-3,-2,-3
1441193765770873,1,-2,0,4,2,1,1,-1
1441193765770873,-1,1,-1,-12,-1,-1,-2,-1
1441193765786062,-2,8,2,8,1,-1,-2,0
1441193765786062,-1,3,-1,-4,0,-2,-2,-4
1441193765793007,-3,4,0,4,4,-5,0,0
1441193765793007,0,-2,-1,3,0,-2,-2,1
1441193765808885,-1,-1,-1,-18,-4,0,-2,-2
1441193765808885,-2,-6,-2,13,-6,-1,-2,1
1441193765810852,1,-1,0,-17,-4,-1,0,0
1441193765810852,0,-1,0,10,0,-2,1,-1
1441193765823937,-1,-6,0,4,2,-1,-4,-2
1441193765823937,-1,0,-7,-8,-2,0,-3,1
1441193765830872,-2,-1,-3,-8,0,-2,-2,-1
1441193765830872,-2,-1,4,17,-1,-4,-1,-1
1441193765846842,0,-2,-5,-2,-1,1,-3,-2
1441193765846842,0,-2,1,1,-1,-1,2,0
1441193765852884,0,2,-2,-3,0,0,-1,-1
1441193765852884,-1,-2,-2,-10,-3,1,-2,0
1441193765869839,-2,2,1,4,-4,-1,2,-1
1441193765869839,-1,-14,-1,3,2,-1,-2,-2
1441193765870836,0,-1,0,-2,-2,-1,-2,0
1441193765870836,1,-2,0,-1,0,2,-1,-1
1441193765884035,-2,0,1,4,-5,0,4,-1
1441193765884035,-1,3,1,-17,0,1,-2,1
1441193765890928,0,1,0,6,-3,1,0,-1
1441193765890928,-2,2,-2,0,-6,-2,1,2
1441193765906080,-1,-2,1,-5,-3,-1,-2,-1
1441193765906080,-4,-3,-4,13,-1,-3,-1,-2
1441193765913091,-1,-2,-3,-1,0,-3,-3,1
1441193765913091,-1,0,-1,-4,1,-1,2,-2
1441193765929838,2,-2,-1,-8,0,0,0,0
1441193765929838,1,2,1,5,1,0,-2,-1
1441193765930841,-1,-1,0,-16,-1,-1,-1,1
1441193765930841,-1,-1,-1,-9,-1,2,-1,-3
1441193765943985,-2,-2,-5,2,-2,-1,4,0
1441193765943985,-2,5,2,-6,2,-1,1,-1
1441193765950927,-1,0,5,18,-2,-3,-1,-1
1441193765950927,-2,-2,-2,-3,-1,-1,-1,2
1441193765966049,1,0,-1,5,-4,-1,-1,-2
1441193765966049,0,2,-2,-4,-3,-2,-2,-1
1441193765973096,-1,-4,3,3,0,0,1,-1
1441193765973096,0,1,-1,-1,0,-3,-2,-3
1441193765989841,-3,1,1,1,0,-1,-1,0
1441193765989841,-1,-2,-2,1,0,0,0,0
1441193765990863,-1,-2,-1,0,0,-1,-1,-1
1441193765990863,1,-3,0,-1,4,-1,0,0
1441193766004002,-1,-2,-1,1,1,-1,-1,-1
1441193766004002,1,-2,-5,0,2,-1,1,1
1441193766010884,0,-2,-4,-19,-2,-6,1,-3
1441193766010884,-1,-1,0,5,-3,-2,-1,1
1441193766026001,-2,1,6,2,1,-1,0,-1
1441193766026001,-3,4,-1,-6,-2,1,-1,0
1441193766032856,-1,3,-2,0,-2,1,-1,-2
1441193766032856,0,-3,-2,4,-4,-2,-1,-1
1441193766048970,-2,-3,-2,4,-3,-2,-4,0
1441193766048970,0,0,0,-2,-3,0,1,-1
1441193766050841,-1,-3,2,13,-3,0,3,1
1441193766050841,0,-1,-1,-3,-4,-3,-1,-2
1441193766063060,-1,1,-1,2,1,0,-2,-2
1441193766063060,-2,-1,-1,5,-1,-2,-3,0
1441193766071844,1,-1,-1,2,2,1,-4,0
1441193766071844,-1,-1,-1,5,-3,0,1,1
1441193766086031,-1,-1,1,7,-2,-2,-2,-2
1441193766086031,-1,-3,-1,-1,0,-2,-1,-2
1441193766092883,-1,-2,0,0,1,0,-1,-1
1441193766092883,0,1,-1,-12,-2,1,-1,0
1441193766108845,-2,-2,0,-1,2,1,-1,-2
1441193766108845,1,-4,-1,0,-1,4,0,0
1441193766110842,-1,-3,-1,4,2,-1,-1,-1
1441193766110842,1,1,1,-8,2,3,-2,0
1441193766123091,1,-4,-3,-5,-1,-4,2,0
1441193766123091,-1,-3,0,8,3,-1,-1,-1
1441193766132842,0,0,-5,-4,-3,0,-1,0
1441193766132842,-3,-2,2,-1,-1,-1,0,-2
1441193766146128,1,-2,1,15,1,1,-1,-2
1441193766146128,0,-1,-2,-5,-2,-1,-1,-2
1441193766153120,1,-1,-2,2,-1,-1,-1,1
1441193766153120,1,3,-1,-9,0,-1,-1,-2
1441193766169900,2,1,1,-1,-2,0,-2,-2
1441193766169900,-1,-2,0,-3,0,0,-1,0
1441193766170845,-1,0,-3,-4,-3,2,1,1
1441193766170845,-1,-3,-2,10,4,-1,0,2
1441193766183121,0,-1,-4,6,-3,6,0,-1
1441193766183121,0,1,-2,-11,-3,-4,0,0
1441193766191843,0,-3,-4,2,-3,-3,-1,-1
1441193766191843,-3,-1,-2,2,2,-2,1,-2
1441193766206058,0,0,-3,-5,-1,-4,-3,1
1441193766206058,-2,-3,-1,0,-2,-2,2,0
1441193766213099,-2,1,-3,-1,1,2,0,4
1441193766213099,2,-1,-1,2,-3,0,1,-1
1441193766228917,0,-3,1,-7,0,0,-1,-1
1441193766228917,0,-3,-1,0,2,0,-3,-2
1441193766230843,-1,-3,5,-5,-3,-1,-3,-3
1441193766230843,-1,0,1,2,-1,1,2,-1
1441193766242905,-2,2,-8,-11,1,-2,-1,-2
1441193766242905,-5,-2,2,-5,0,0,-5,-4
1441193766251844,-5,-1,-2,1,-4,-6,-4,-4
1441193766251844,-1,2,2,1,0,17,3,-7
1441193766266860,-5,0,1,5,4,-4,-4,-5
1441193766266860,-2,1,-1,-6,-2,-1,-2,-2
1441193766273162,-2,-3,0,-2,2,-3,-1,-2
1441193766273162,-3,-1,-2,4,-3,-6,-3,-1
1441193766289117,0,-2,1,-3,-5,2,3,1
1441193766289117,5,6,1,4,1,2,2,2
1441193766290848,-1,-4,3,-2,-1,1,-2,1
1441193766290848,0,3,3,-5,-3,-9,-4,2
1441193766303061,-2,-6,-5,1,-5,-3,0,1
1441193766303061,3,3,-6,-1,-3,-5,3,5
1441193766312848,4,-3,0,3,-1,2,2,2
1441193766312848,-1,-5,-2,1,-1,-2,-1,3
1441193766325910,0,1,4,0,0,-1,-1,0
1441193766325910,0,-2,2,4,-2,-3,-1,-4
1441193766332846,3,-2,-4,-22,-2,0,1,-1
1441193766332846,-2,-5,3,4,0,0,0,1
1441193766349910,0,2,-1,-5,2,0,-2,-1
1441193766349910,-2,-3,-9,-2,-3,2,-4,-4
1441193766351908,-2,1,0,12,1,-2,0,-3
1441193766351908,2,1,-3,-6,-3,0,-1,-1
1441193766363112,-1,1,-1,-2,1,-2,0,-1
1441193766363112,-1,0,3,3,-1,1,-2,-1
1441193766372877,0,0,2,-5,0,1,1,2
1441193766372877,0,-2,0,0,1,-2,-1,-1
1441193766385957,0,1,1,2,-4,1,0,1
1441193766385957,1,-1,0,-1,1,-2,-1,-2
1441193766392919,-1,0,-2,5,0,4,6,-1
1441193766392919,-1,-2,-5,-3,1,0,-2,0
1441193766409084,-3,-4,-1,0,-1,-1,-10,-8
1441193766409084,-3,1,3,-2,0,1,5,4
1441193766411850,-2,-1,-3,-1,2,-3,-8,-3
1441193766411850,-1,-6,-4,-10,0,0,8,3
1441193766423113,1,0,-1,-5,-4,-4,-10,-12
1441193766423113,-1,-2,1,-3,-2,3,-10,-1
1441193766431848,0,1,0,1,-2,1,4,6
1441193766431848,1,-1,3,3,-1,-4,-5,2
1441193766446109,-4,1,0,-2,1,-1,-10,-4
1441193766446109,1,3,-3,3,-3,2,12,25
1441193766452903,-2,-6,-5,-1,1,-3,17,1
1441193766452903,3,0,-2,-1,-7,-2,-14,1
1441193766469851,0,1,1,-4,-3,0,4,-7
1441193766469851,-1,-3,-3,3,2,-2,-12,-7
1441193766475850,0,0,0,-3,-1,-2,-6,3
1441193766475850,-5,-5,-5,0,0,-3,-7,-6
1441193766491088,1,-4,-1,-5,-1,-2,4,6
1441193766491088,-10,-6,-2,-5,0,-5,-4,-34
1441193766491850,7,3,0,2,0,0,-4,-7
1441193766491850,-4,-4,-4,4,-2,1,-27,47
1441193766506855,5,3,-4,-2,2,3,48,12
1441193766506855,-6,-1,2,-1,0,-3,13,-24
1441193766513116,-17,-2,-3,3,-3,1,27,-1
1441193766513116,8,5,2,-2,3,-1,-19,-26
1441193766528139,-5,-12,-6,3,-3,0,-31,-31
1441193766528139,-3,-3,-4,-1,-4,-7,-41,48
1441193766536001,3,4,5,5,-4,7,20,-34
1441193766536001,9,-8,-5,-2,-3,-6,22,13
1441193766550910,3,1,2,-1,-3,-1,15,-24
1441193766550910,4,2,2,2,1,3,-46,-34
1441193766551849,-21,0,-11,-2,-3,-2,9,-25
1441193766551849,31,-2,-11,-4,-3,1,-32,14
1441193766566851,-7,6,-18,1,2,-4,-5,20
1441193766566851,-1,-10,-8,0,0,0,13,-20
1441193766572851,3,2,-3,2,-2,-4,-36,7
1441193766572851,-4,3,6,2,0,-1,14,-11
1441193766588056,-4,7,8,-4,3,-1,26,-12
1441193766588056,0,2,7,1,0,-6,-19,23
1441193766595890,-7,-6,1,0,2,0,4,17
1441193766595890,-13,5,20,0,5,0,23,-13
1441193766611134,-2,-7,4,3,-3,4,-8,9
1441193766611134,1,-1,5,-4,-6,-3,-6,-4
1441193766611855,13,2,11,-1,0,-2,18,36
1441193766611855,12,0,-9,4,2,3,-7,-7
1441193766627855,-21,-4,5,-1,-2,-1,4,12
1441193766627855,-2,2,4,0,-1,3,11,37
1441193766633135,23,-3,-8,-4,0,-1,15,-12
1441193766633135,-52,6,-8,1,-5,-2,8,-6
1441193766648855,60,3,-4,0,0,0,15,50
1441193766648855,-7,7,-6,1,2,-2,-27,-15
1441193766655854,-24,3,-4,-2,-5,-1,-24,14
1441193766655854,29,2,-11,0,2,0,-15,-12
1441193766670969,42,-2,-1,4,-2,2,2,-4
1441193766670969,-70,-14,-13,-6,3,-1,63,-28
1441193766671852,74,23,-1,-2,0,-7,-38,-6
1441193766671852,-63,-12,5,-2,-4,-2,30,-10
1441193766686853,5,9,13,-1,-2,-3,-37,2
1441193766686853,7,-2,5,-2,-3,2,-39,-14
1441193766692977,67,7,0,0,0,8,45,41
1441193766692977,-34,-20,-1,2,-1,-1,18,-36
1441193766708119,82,22,-6,-3,0,-2,2,2
1441193766708119,-91,-17,-1,-4,-1,-5,-1,18
1441193766715893,37,-4,-3,3,-2,1,12,-53
1441193766715893,9,-6,-7,-2,-1,-7,-79,-7
1441193766731092,-65,-3,-2,1,-3,-2,-3,-7
1441193766731092,54,17,1,1,-1,5,26,1
1441193766731858,-58,-17,-2,-3,-3,-6,-63,-7
1441193766731858,24,9,3,-5,-1,6,47,19
1441193766747859,-4,-29,-9,0,-1,-4,-16,-23
1441193766747859,-5,-14,-4,-2,-5,-4,12,-23
1441193766753093,-40,-16,1,-3,6,-6,-30,12
1441193766753093,-6,1,2,3,-2,0,-11,7
1441193766768018,-21,-2,-4,-3,2,0,2,-1
1441193766768018,22,-3,-6,0,0,1,-6,25
1441193766775854,-18,0,3,2,2,6,24,-8
1441193766775854,-27,1,0,-3,2,-3,-3,5
1441193766791084,51,-6,0,-1,-1,-9,-44,22
1441193766791084,-23,-4,4,1,-3,3,19,12
1441193766791854,-26,6,-4,0,-3,-5,-14,-13
1441193766791854,3,-3,0,-3,-2,-9,-39,-8
1441193766806855,-52,10,6,5,-3,13,66,-14
1441193766806855,9,11,4,1,1,-4,-92,1
1441193766812891,-5,-4,-3,-5,0,3,49,19
1441193766812891,-8,-8,2,1,2,2,-3,2
1441193766828857,1,3,1,-2,2,-1,-6,-22
1441193766828857,42,0,-6,-2,-1,-1,-4,-1
1441193766835861,-17,-1,3,0,-2,-4,-40,-5
1441193766835861,64,6,1,2,-2,4,22,9
1441193766851115,-2,-14,1,-2,-3,1,-13,1
1441193766851115,26,2,5,4,0,7,75,31
1441193766851855,-17,-4,-9,2,-3,2,16,5
1441193766851855,-43,-6,-1,-2,-1,-2,4,-2
1441193766866862,-29,10,-2,-3,1,-4,-28,-10
1441193766866862,21,-3,-2,-3,-4,-3,2,6
1441193766872908,11,2,1,0,0,-2,-24,-9
1441193766872908,30,8,-5,0,1,6,6,-1
1441193766888143,1,0,0,4,4,11,82,2
1441193766888143,30,-15,-1,5,-1,-4,5,-1
1441193766895952,-48,-9,2,0,1,-1,7,-8
1441193766895952,-24,5,-2,-6,-5,-4,-25,-17
1441193766911129,0,-4,2,-3,0,-3,-38,-10
1441193766911129,22,2,-3,-2,2,1,-6,-9
1441193766911861,35,2,4,0,3,1,27,-27
1441193766911861,3,0,2,1,0,0,-5,16
1441193766949862,10,0,0,5,-4,-2,-17,2
1441193766949862,-17,1,5,-1,3,2,-5,-1
1441193766950860,-10,-7,5,1,-3,-7,-15,6
1441193766950860,43,14,2,-1,-2,-4,-6,-1
1441193766970858,-81,9,3,0,-1,-2,8,12
1441193766970858,-32,-9,0,-3,-1,4,26,-23
1441193766979861,-29,-11,-1,-1,-1,3,35,4
1441193766979861,36,2,-1,-4,-2,-3,13,1
1441193767002036,-4,-13,-2,5,-2,0,-22,3
1441193767002036,-47,16,-3,4,-3,-5,-32,-4
1441193767009858,18,9,-7,-5,-3,4,17,23
1441193767009858,-25,-9,-4,-4,2,-1,-15,-9
1441193767032088,15,-4,-10,-7,-3,-3,-1,-4
1441193767032088,-14,7,5,0,1,-1,30,-24
1441193767032859,30,-15,-3,-4,-3,-8,-65,-27
1441193767032859,43,-6,-1,-5,2,-3,18,62
1441193767054098,38,-3,-6,-2,3,-4,-15,-16
1441193767054098,13,0,4,-1,0,-3,-8,0
1441193767055859,3,-1,-3,-2,-1,-3,-6,11
1441193767055859,25,-6,-1,3,2,-1,-6,-40
1441193767085935,-28,-16,-1,-3,0,-1,-2,21
1441193767085935,-6,-5,-1,-2,-7,-5,10,-1
1441193767086863,4,3,3,2,-3,-4,-30,-10
1441193767086863,-35,-6,-1,-2,-3,1,12,-2
1441193767107010,-33,9,-3,-1,-4,-3,-3,-11
1441193767107010,10,1,1,-3,-1,-1,-8,-16
1441193767108861,-4,2,-2,1,0,1,5,27
1441193767108861,-73,-7,1,4,-5,1,14,-7
1441193767137151,22,0,-3,-1,0,-4,5,-2
1441193767137151,11,-3,-6,-6,-6,0,-8,-4
1441193767137865,0,8,0,-4,-1,0,1,-2
1441193767137865,-4,1,-4,0,-1,-2,-12,-1
1441193767159109,70,13,5,-1,-4,5,42,-6
1441193767159109,-1,-7,-4,1,2,-2,-6,0
1441193767160862,1,-1,-4,3,2,2,-8,1
1441193767160862,-33,10,1,-2,0,0,-13,-4
1441193767189122,4,15,-1,0,0,-2,-39,12
1441193767189122,-15,-10,1,-1,3,6,72,-26
1441193767190865,-16,-12,-6,-4,-3,-3,-26,34
1441193767190865,18,4,1,-1,-2,0,17,4
1441193767212895,-29,-4,-1,1,1,-5,-6,-7
1441193767212895,3,1,-1,-2,0,1,-16,8
1441193767213867,19,3,0,-5,-1,-1,8,-2
1441193767213867,-6,4,1,1,-6,4,16,-8
1441193767242117,-12,-7,-2,-2,0,-3,-4,-1
1441193767242117,26,-1,1,0,1,2,-1,24
1441193767243865,-21,20,-2,0,0,-2,4,-10
1441193767243865,-12,-3,-3,-1,-3,-3,-6,1
1441193767265065,-16,-5,3,-2,-3,1,-16,-6
1441193767265065,74,-1,-3,0,0,-2,0,-4
1441193767267864,-53,-3,-1,1,-3,2,12,4
1441193767267864,-8,-2,-2,-3,2,-1,-6,-17
1441193767294903,-21,0,1,-2,-5,-2,1,3
1441193767294903,8,3,-2,0,0,-5,-25,-8
1441193767295864,36,-7,3,0,-1,0,12,-15
1441193767295864,-16,-7,-5,-1,4,-4,-16,1
1441193767317032,10,-5,2,-2,-1,2,3,-6
1441193767317032,-5,3,1,2,-3,-3,-24,2
1441193767318871,-21,-2,3,2,1,2,35,6
1441193767318871,6,1,2,1,1,1,-2,2
1441193767348031,3,-3,-1,0,2,-3,-2,1
1441193767348031,-27,1,-3,-2,-1,-1,2,1
1441193767350890,5,13,0,-4,3,2,-8,-15
1441193767350890,60,1,0,4,-5,2,19,-19
1441193767368987,-42,-13,-4,-4,1,-5,-14,29
1441193767368987,3,15,1,5,0,-1,-16,11
1441193767375940,-18,-1,-2,-3,-3,-1,-1,-9
1441193767375940,14,5,-3,-2,1,-5,-17,2
1441193767399869,7,5,-1,-1,0,-1,0,-10
1441193767399869,-30,0,-3,-1,-2,1,5,-2
1441193767400869,11,-6,2,-1,1,-2,-15,-2
1441193767400869,5,-2,0,0,-1,-6,-5,8
1441193767421885,-7,2,-1,-1,-4,2,-1,-8
1441193767421885,3,3,-5,-1,0,-4,-3,-1
1441193767429867,8,-5,-3,-2,-3,-3,-4,2
1441193767429867,-9,0,0,-1,0,0,10,1
1441193767452887,10,-1,-1,1,0,-1,3,-8
1441193767452887,-2,-2,-4,-1,0,-1,5,0
1441193767453867,13,1,-4,0,-1,0,0,0
1441193767453867,-9,-3,-3,-2,-2,1,6,4
1441193767483024,-2,-2,2,0,-1,0,-6,-8
1441193767483024,-5,-7,3,5,6,2,-2,-2
1441193767484869,0,1,-2,-4,-2,-7,-1,6
1441193767484869,3,-4,-3,8,-5,-6,-3,-3
1441193767502918,2,5,10,4,5,7,4,-3
1441193767502918,-4,-6,-3,6,-2,0,2,2
1441193767511869,13,-1,-39,14,0,4,3,4
1441193767511869,4,4,-7,-3,-1,-4,3,2
1441193767519028,-3,-4,14,-4,-2,-6,-1,-6
1441193767519028,-13,-3,11,2,1,-2,0,-2
1441193767519028,1,-2,40,4,-1,5,-5,0
1441193767519028,2,1,5,-7,0,2,-2,-1
1441193767527013,-5,-1,-5,5,-2,-3,0,-1
1441193767527013,2,2,-8,-4,-1,-1,1,-1
1441193767527949,3,-3,-22,-9,0,-7,-2,-3
1441193767527949,-3,2,-1,7,0,3,-2,-2
1441193767533968,1,2,-8,-18,-1,1,1,-2
1441193767533968,-2,2,16,21,0,0,3,-3
1441193767534868,-2,3,13,-4,-4,-6,-5,-5
1441193767534868,-5,-5,9,-42,-5,9,5,3
1441193767541152,9,2,-4,-3,3,-3,0,5
1441193767541152,-4,-7,-8,8,-4,-6,-7,-5
1441193767541870,0,-2,-10,54,-1,1,3,-1
1441193767541870,1,3,-2,-29,-1,-7,-2,-3
1441193767549879,-7,1,-1,35,-4,-2,-2,-5
1441193767549879,-4,-10,-22,-45,8,11,2,7
1441193767550871,3,-1,11,0,4,-6,-1,0
1441193767550871,2,0,-4,8,-2,2,-3,-3
1441193767556105,-5,-4,-11,18,-4,-4,-9,-10
1441193767556105,-1,4,12,-4,-4,0,0,-1
1441193767556874,-1,0,10,9,-1,2,0,-2
1441193767556874,2,-1,-5,-12,-2,1,1,5
1441193767564871,1,2,-3,-34,-6,-4,2,-4
1441193767564871,0,1,-4,-33,-3,-3,-3,-1
1441193767565869,-2,-5,-6,2,-5,-4,1,4
1441193767565869,-6,-6,-15,9,1,-6,-5,-5
1441193767571117,5,2,1,-2,-1,5,2,-3
1441193767571117,-3,-2,11,26,-8,-6,1,5
1441193767571871,13,10,-12,-11,6,10,4,6
1441193767571871,-8,-8,17,57,-1,-4,-2,-9
1441193767578991,-7,-13,-17,3,-4,-6,-5,0
1441193767578991,-1,0,24,-7,-3,-6,-4,-5
1441193767578991,4,-5,-30,-73,-2,-4,1,5
1441193767578991,-5,-3,8,-14,0,-4,-4,-3
1441193767586968,8,2,-14,9,4,3,1,3
1441193767586968,1,-1,4,22,-5,-5,1,-5
1441193767587870,-5,-2,-8,1,5,-2,-5,-4
1441193767587870,-4,-3,10,19,3,-5,1,0
1441193767593954,-7,-1,-14,-22,0,0,-2,-4
1441193767593954,0,6,-10,14,1,0,0,-5
1441193767594872,-3,0,20,45,-7,4,-1,-4
1441193767594872,4,0,-27,-2,2,5,2,5
1441193767602062,-2,-1,24,15,-1,-6,-4,-6
1441193767602062,1,-1,-16,-38,1,-3,0,0
1441193767602893,0,0,5,1,-4,4,2,1
1441193767602893,1,5,7,0,-4,-2,1,-4
1441193767608127,6,2,-4,15,5,11,2,1
1441193767608127,1,1,1,-8,3,5,1,0
1441193767616059,-9,0,26,19,-4,5,3,7
1441193767616059,5,3,0,-29,3,-3,0,-1
1441193767630952,5,3,-2,1,-1,3,1,6
1441193767630952,3,6,11,43,2,10,1,-1
1441193767638107,1,-6,-13,7,-3,-12,-3,-2
1441193767638107,-7,-6,-1,40,-3,0,-1,-3
1441193767654031,-4,-5,-14,-2,0,-2,-4,-4
1441193767654031,1,1,-22,-27,-2,0,0,3
1441193767654874,0,7,32,33,10,3,1,-2
1441193767654874,-2,0,0,-7,-1,-10,-6,-3
1441193767668099,1,1,10,-58,-3,3,-2,-4
1441193767668099,-5,-8,-16,27,1,4,1,3
1441193767675889,1,0,-6,-53,1,0,-4,-7
1441193767675889,5,6,1,26,7,7,3,-1
1441193767690949,-10,-1,21,52,1,-3,-6,-5
1441193767690949,10,6,2,-66,1,-2,1,3
1441193767698031,-5,-5,-5,29,-9,-7,1,1
1441193767698031,-1,-2,-16,-67,-1,5,2,0
1441193767714010,-3,-1,10,32,3,-6,-4,-3
1441193767714010,-4,-15,-41,-22,-5,-7,-1,0
1441193767714010,-2,-5,4,-42,-3,-1,-1,1
1441193767714010,1,4,5,-29,3,6,3,5
1441193767758895,0,1,0,21,-3,1,-1,-4
1441193767758895,2,1,5,10,3,1,-3,-2
1441193767760876,1,0,-8,19,-1,-4,-1,0
1441193767760876,0,1,11,-37,-4,7,2,-1
1441193767773928,-3,-4,-4,-17,0,-1,3,4
1441193767773928,-3,2,13,18,-2,-3,-6,-7
1441193767780875,1,-1,-12,-8,0,-2,2,0
1441193767780875,-3,1,17,39,-5,-4,-2,-3
1441193767796959,1,-5,-9,-27,-2,-7,-5,-4
1441193767796959,-1,5,27,83,1,0,2,4
1441193767797918,-2,-4,-5,-14,15,1,1,2
1441193767797918,4,-5,-21,-22,12,4,2,0
1441193767812877,2,-2,-14,-64,5,-1,10,11
1441193767812877,2,-2,-7,6,9,1,3,0
1441193767813874,3,-8,-16,-50,2,-5,1,3
1441193767813874,6,1,0,-5,9,2,2,9
1441193767825982,0,-5,-3,2,2,-7,-1,2
1441193767825982,1,-6,-23,24,8,4,1,2
1441193767834874,2,0,0,-24,5,-10,-1,7
1441193767834874,3,0,1,10,9,1,1,3
1441193767849878,4,-6,-29,1,5,-6,1,5
1441193767849878,2,3,4,-21,6,7,4,6
1441193767850874,1,-6,-14,26,6,2,4,6
1441193767850874,3,-5,-10,26,5,1,3,4
1441193767863111,6,3,4,32,7,7,4,5
1441193767863111,0,-8,-16,-36,-3,-5,5,4
1441193767871880,-1,0,25,86,2,-3,0,0
1441193767871880,-4,-11,-19,-18,3,-6,-2,-1
1441193767887037,2,-3,5,-3,6,8,9,5
1441193767887037,3,-1,-9,-23,9,1,1,1
1441193767887876,3,-2,-1,22,8,4,6,6
1441193767887876,4,-5,-15,27,-2,-5,3,1
1441193767900877,-3,1,6,15,2,7,-1,0
1441193767900877,-2,-7,-12,4,-6,-8,-2,-1
1441193767908127,2,-6,-13,-34,-2,1,-1,1
1441193767908127,0,-9,-27,-28,-5,-9,-2,2
1441193767924879,-5,-4,8,-6,-6,-3,0,2
1441193767924879,-1,-5,12,32,-4,-4,1,2
1441193767925876,-2,-4,-3,5,-15,-3,-4,-5
1441193767925876,0,-1,-8,28,-6,0,0,0
1441193767938149,1,5,7,6,-8,3,-4,-4
1441193767938149,-4,-2,10,-2,-10,-8,0,-4
1441193767946877,3,-1,-3,-54,-8,2,0,1
1441193767946877,-8,-2,17,20,-11,0,0,-3
1441193767962096,-1,-2,-5,-8,-10,-5,-4,-3
1441193767962096,-2,1,-1,13,-8,-3,-3,-2
1441193767962908,-3,0,-2,40,-3,3,0,-5
1441193767962908,2,8,9,-6,-11,1,-1,-4
1441193767984920,0,-3,-24,-33,-11,-7,-1,-2
1441193767984920,-3,-5,-19,50,-8,4,-3,4
1441193767985877,-2,1,9,-24,-10,1,-5,-5
1441193767985877,-1,-2,-2,-44,-6,-3,-2,2
1441193767999009,-5,0,8,20,-1,3,2,-5
1441193767999009,1,2,4,-8,-1,-1,1,-5
1441193768006881,-7,-10,-11,35,-11,-11,-4,3
1441193768006881,-2,2,3,39,-3,2,-2,-3
1441193768022098,0,-1,3,2,-3,-4,-4,-5
1441193768022098,-3,-2,-1,-23,0,1,-2,-3
1441193768023882,-1,2,8,-5,-1,5,-1,-2
1441193768023882,-1,1,10,12,-3,-4,-1,-3
1441193768044946,-6,-2,0,-2,-4,-5,-5,0
1441193768044946,-2,3,10,-18,1,5,-5,-6
1441193768046879,-4,-5,-1,3,-4,-6,-4,-7
1441193768046879,-2,1,6,3,-1,-3,-1,-2
1441193768058122,-1,-2,-2,-13,0,1,2,0
1441193768058122,1,4,-9,-58,-8,-2,-1,-1
1441193768067882,0,5,5,-32,-1,5,-2,-3
1441193768067882,3,3,2,-21,0,1,-2,0
1441193768081108,-6,-4,22,65,1,-1,2,1
1441193768081108,1,0,8,-7,-3,-2,0,-1
1441193768089883,-1,-3,-15,-9,-6,-2,0,-3
1441193768089883,-1,3,8,23,-2,-1,2,-3
1441193768103983,-4,-6,-17,13,-1,-5,-5,-8
1441193768103983,0,2,15,6,0,-4,-3,0
1441193768106879,3,0,-22,-52,-3,-1,1,3
1441193768106879,-3,1,5,4,0,0,1,0
1441193768118913,2,2,3,-5,-3,0,-3,-1
1441193768118913,-5,-4,-2,33,-1,-5,-3,-6
1441193768125946,-4,-6,-6,5,4,-6,-1,1
1441193768125946,-3,0,-4,-5,-5,5,-3,-3
1441193768141882,-1,-3,-4,-43,-7,1,0,-3
1441193768141882,1,0,-9,-54,-7,-3,1,6
1441193768143879,-1,3,14,15,3,4,2,0
1441193768143879,-2,-1,-7,-13,1,-1,-3,-2
1441193768164885,-3,-2,-16,4,-5,-5,-1,0
1441193768164885,-2,-3,0,16,-2,-1,-1,-2
1441193768166878,-4,-4,-8,24,-2,-1,-3,-2
1441193768166878,2,4,1,-7,-5,-2,-3,-4
1441193768178117,-2,3,4,16,2,-2,-2,-2
1441193768178117,2,0,-1,17,1,-1,-1,2
1441193768188884,4,2,5,14,0,1,3,3
1441193768188884,0,0,0,21,-4,-1,-2,3
1441193768202073,-1,-3,1,-27,5,11,-1,-3
1441193768202073,-1,0,3,10,-1,-1,-1,1
1441193768203882,2,1,6,5,2,-3,-1,-2
1441193768203882,0,1,1,-12,0,-2,2,0
1441193768224134,1,3,9,-4,-4,-4,-1,-3
1441193768224134,-3,-3,-5,-9,-1,-1,-1,-1
1441193768225882,2,5,11,8,-1,8,3,1
1441193768225882,-4,-2,3,-3,0,-3,-6,-3
1441193768238165,1,-3,6,20,-2,-1,1,0
1441193768238165,-5,-3,-10,-49,-6,0,-1,-5
1441193768246884,0,3,-7,-6,3,-1,0,0
1441193768246884,-3,-4,-2,3,0,-5,-1,-4
1441193768262105,0,4,-2,-31,-2,8,3,1
1441193768262105,1,-1,12,38,-2,-1,2,-2
1441193768262924,1,-4,-3,-26,-1,-3,-2,1
1441193768262924,1,-5,-4,0,3,1,0,1
1441193768284890,-2,2,4,2,-4,-5,-5,-5
1441193768284890,0,-1,-4,-25,-6,-3,2,-2
1441193768285886,-3,-5,-5,21,-2,-3,-7,-3
1441193768285886,-2,1,7,-31,-9,1,2,-4
1441193768298126,0,-3,-4,48,-4,4,-1,-2
1441193768298126,-6,1,7,-22,-7,-3,-6,-8
1441193768306888,-2,2,8,17,-7,3,-7,-8
1441193768306888,-1,0,5,-5,-11,-1,0,-3
1441193768322120,-8,-2,-5,-32,-9,-5,-2,-4
1441193768322120,1,1,13,23,-10,-2,1,1
1441193768323902,-5,-5,-2,-6,-10,5,0,-2
1441193768323902,-3,4,11,19,-5,-1,-4,-5
1441193768344130,-2,3,2,-24,-2,-2,-1,-5
1441193768344130,-2,4,10,27,0,-1,-2,-3
1441193768345884,-2,7,10,-15,-6,0,-1,-4
1441193768345884,-3,-3,-6,-13,-4,0,-5,-3
1441193768367101,-1,4,14,9,1,-2,-3,-3
1441193768367101,1,0,1,16,-2,-1,0,-1
1441193768368885,-2,-2,2,34,3,-1,-4,-3
1441193768368885,1,-2,1,-23,7,-1,-1,0
1441193768382117,1,1,4,-6,2,-4,0,-2
1441193768382117,-4,-3,-4,9,10,0,-3,0
1441193768383885,-2,-4,-1,-17,0,-8,-2,1
1441193768383885,-2,0,-3,18,4,6,1,-2
1441193768404141,2,-3,-2,-4,6,-6,-2,2
1441193768404141,0,-2,-1,31,10,1,-1,2
1441193768405885,0,-1,1,-26,1,-5,2,2
1441193768405885,0,1,4,-3,2,2,-3,0
1441193768418078,0,-6,-16,-33,3,0,2,2
1441193768418078,1,0,-7,-22,7,2,0,3
1441193768426891,2,2,7,31,7,2,1,0
1441193768426891,-5,-13,-11,20,3,-8,-5,2
1441193768442098,5,4,-2,0,7,2,0,1
1441193768442098,-1,-7,-9,-13,5,-1,1,-1
1441193768442887,-3,-4,-5,6,6,-1,-1,0
1441193768442887,-1,0,-5,2,6,-2,-1,0
1441193768464890,-1,-5,-6,-8,5,0,-2,0
1441193768464890,0,-3,-5,-20,3,-3,1,1
1441193768465890,4,-1,-9,-39,8,2,4,0
1441193768465890,-4,-2,-2,45,7,-4,-2,1
1441193768478148,2,1,9,13,6,-1,8,7
1441193768478148,-2,-3,-5,23,7,1,0,1
1441193768486892,1,-3,-12,-17,6,-4,-1,1
1441193768486892,4,-1,-8,-4,3,-1,0,4
1441193768502086,5,5,-3,-24,2,5,3,2
1441193768502086,-3,-8,-15,20,3,-1,1,2
1441193768503888,-1,0,3,9,1,2,1,0
1441193768503888,0,-3,-2,32,2,-1,1,-2
1441193768524090,-1,-1,-1,17,4,0,-5,0
1441193768524090,2,1,0,17,0,1,0,-2
1441193768526889,-2,-3,-6,-7,4,0,-2,2
1441193768526889,6,0,-16,-16,4,5,6,7
1441193768538124,-2,-4,-7,-8,-3,-5,-2,-2
1441193768538124,3,-1,-15,-23,0,0,3,5
1441193768546889,0,-3,9,50,3,0,2,5
1441193768546889,0,0,1,-28,-3,1,1,-3
1441193768562045,0,-2,-8,5,-1,-1,0,2
1441193768562045,2,-1,3,21,-5,0,1,4
1441193768562915,-1,-4,-9,-13,-7,-5,-1,0
1441193768562915,-3,-5,-3,-25,2,-2,0,0
1441193768584891,-1,-4,-2,43,0,-3,3,0
1441193768584891,1,0,4,-20,4,1,2,4
1441193768585889,5,2,4,-11,2,1,6,4
1441193768585889,0,-2,3,15,-8,-4,4,1
1441193768598096,-2,-6,-10,-6,3,6,-1,1
1441193768598096,-2,-1,-2,-20,2,1,0,-1
1441193768606890,1,-2,-3,-11,0,-1,1,4
1441193768606890,-3,-1,-18,-30,-2,-2,0,-4
1441193768621891,3,3,8,-18,1,-3,2,3
1441193768621891,-2,-3,-7,-29,-1,-2,-4,0
1441193768623889,2,3,8,-11,4,3,1,5
1441193768623889,-4,-7,-1,45,0,-5,-4,-1
1441193768644129,0,1,-1,12,-4,0,2,0
1441193768644129,5,1,0,11,1,2,0,-1
1441193768645890,-1,0,-6,-23,-3,-1,1,-1
1441193768645890,-3,-2,7,22,0,-2,-1,-1
1441193768666150,1,-3,-16,-24,-7,-5,-2,-1
1441193768666150,3,2,13,18,-6,2,5,3
1441193768674895,-3,-3,5,17,-7,-4,-3,-7
1441193768674895,3,2,-2,-6,-3,3,-2,0
1441193768682156,-6,-5,-7,-5,-13,-2,-2,1
1441193768682156,-5,-1,7,26,-8,3,-3,-7
1441193768683893,1,2,-2,-9,-8,0,1,-3
1441193768683893,-6,-1,7,9,-12,1,-6,-8
1441193768704956,0,-1,12,10,-11,1,-4,-6
1441193768704956,-2,1,6,-13,-11,-5,-1,-4
1441193768705895,-3,-3,-2,-17,-12,-2,-5,-4
1441193768705895,-3,-1,-5,-44,-10,0,-1,-5
1441193768750891,-6,1,10,25,-9,2,-7,-8
1441193768750891,-5,0,1,7,-11,-5,-2,-6
1441193768752892,-4,4,18,49,-10,-1,-4,-6
1441193768752892,-3,3,15,17,-5,1,-3,-1
1441193768758117,-7,-3,-2,-8,-5,-2,-2,-10
1441193768758117,-1,4,13,5,-5,0,-3,-3
1441193768760897,-6,-7,-18,-5,-6,-4,-4,-3
1441193768760897,-1,5,4,-7,-5,0,-7,-5
1441193768761892,-3,4,14,4,-8,1,-2,-2
1441193768761892,0,-2,8,-29,-1,-2,-3,-2
1441193768764104,-12,-2,-2,28,-5,-4,-9,-11
1441193768764104,-2,0,7,-8,1,-1,-6,-8
1441193768771041,-4,2,7,10,0,-3,-6,-7
1441193768771041,-2,1,-1,-19,-2,-3,0,-2
1441193768779012,2,1,-5,-28,2,3,1,-2
1441193768779012,1,1,-9,-27,-2,-1,3,0
1441193768793011,-7,-9,10,83,-2,-7,-2,-1
1441193768793011,3,0,-15,-3,-2,3,-1,5
1441193768801094,4,3,7,8,0,-1,-2,-1
1441193768801094,-3,-1,4,-12,0,-3,-1,-4
1441193768816081,0,1,-8,-31,4,1,-1,1
1441193768816081,-1,0,-1,11,-1,-2,-1,0
1441193768816893,0,0,-3,3,-3,-3,-1,1
1441193768816893,-1,2,3,0,-4,1,0,-4
1441193768830949,-2,0,5,20,-1,-2,1,1
1441193768830949,-3,-7,-7,-36,-7,1,-3,-4
1441193768840161,6,6,4,-14,-4,3,2,4
1441193768840161,-6,-12,-17,-12,-4,-6,-5,-4
1441193768853108,-2,-2,-3,-42,-2,0,1,-4
1441193768853108,1,7,11,10,2,-4,5,2
1441193768860894,-3,-1,1,28,-1,0,-1,-2
1441193768860894,0,2,6,7,3,2,0,-1
1441193768876016,1,-3,-8,-25,-1,-4,-2,-2
1441193768876016,0,-1,-2,24,1,3,-1,-2
1441193768876895,0,-1,-2,1,-1,-5,0,1
1441193768876895,-2,-5,-4,1,-5,-2,-1,-2
1441193768890896,-1,-2,5,16,-4,4,1,2
1441193768890896,-2,0,-6,-8,2,1,-3,-4
1441193768898999,2,-3,2,1,6,-2,2,4
1441193768898999,1,-3,-17,-16,1,4,4,4
1441193768913211,4,1,-11,-67,1,0,3,3
1441193768913211,0,-2,3,37,1,-5,1,2
1441193768921146,-2,-7,-16,-23,-1,-1,0,0
1441193768921146,3,3,8,5,-3,0,0,3
1441193768941892,0,-3,-14,-29,-4,0,-1,1
1441193768941892,-1,0,5,27,-1,-2,-1,3
1441193768941892,1,-2,-10,-8,3,1,0,3
1441193768941892,2,3,0,16,-1,2,2,1
1441193768950896,1,-3,-11,13,0,-1,1,0
1441193768950896,-1,-4,-6,-4,-3,0,-3,2
1441193768958957,0,0,-2,3,-4,2,0,-1
1441193768958957,4,2,14,8,0,0,3,3
1441193768972898,-1,-10,-15,18,-3,-4,-2,1
1441193768972898,2,-1,-10,-41,1,5,7,8
1441193768981025,-2,0,-6,-18,-3,-2,-1,2
1441193768981025,-1,-2,3,12,1,2,0,-3
1441193768996124,6,2,1,4,1,0,0,1
1441193768996124,1,-1,-7,6,0,0,2,2
1441193768996899,-9,-9,0,74,-3,-4,-1,1
1441193768996899,3,5,-8,-20,1,2,2,3
1441193769010914,-1,1,4,8,-2,-3,1,-1
1441193769010914,2,-4,-4,-2,0,-1,1,1
1441193769019060,4,0,3,-4,-5,-2,0,2
1441193769019060,-2,-1,-6,15,-3,2,-6,-4
1441193769033149,-3,-5,1,-36,-10,-4,-6,-2
1441193769033149,-3,-2,22,56,-6,-4,-5,-3
1441193769041128,-7,-9,-6,-43,-12,0,-2,-4
1441193769041128,-3,-4,0,-2,-10,-5,-1,-1
1441193769055904,0,3,3,-13,-7,-1,-3,-2
1441193769055904,-1,0,0,5,-12,0,1,-4
1441193769056902,1,2,10,6,-11,-1,0,-3
1441193769056902,-2,4,1,-17,-13,0,-3,-5
1441193769070963,-7,-1,20,99,-9,4,-1,-6
1441193769070963,-4,0,5,-16,-10,-6,-4,-6
1441193769079097,-2,4,10,18,-5,2,0,-6
1441193769079097,-7,-4,5,16,-12,-3,-6,-3
1441193769093077,1,3,4,-13,-7,-1,-5,-5
1441193769093077,-5,1,5,-2,-9,1,-6,-4
1441193769100993,0,2,0,-6,-4,-2,-2,-3
1441193769100993,-4,0,7,27,-1,-2,-4,-6
1441193769115907,1,4,-12,-48,8,11,3,-7
1441193769115907,-3,-6,10,44,-5,-6,0,6
1441193769132106,-6,-7,-17,-59,-4,-1,-3,-2
1441193769132106,1,2,-2,-12,-3,1,-3,-3
1441193769133900,-5,-4,2,27,-2,-4,-3,2
1441193769133900,3,3,-9,-46,3,1,2,-1
1441193769139024,3,3,8,15,1,-1,3,1
1441193769139024,-2,-2,3,16,0,-4,0,1
1441193769152950,1,0,-2,-51,-8,-5,-3,-1
1441193769152950,-4,-2,-3,19,-2,1,1,1
1441193769161153,-1,-3,10,-4,1,3,-1,-1
1441193769161153,1,-1,-7,-5,1,1,1,-1
1441193769176056,-2,0,2,3,1,-4,0,-1
1441193769176056,1,-1,-9,-20,0,-1,-1,0
1441193769176904,0,0,12,31,-3,-4,-5,-1
1441193769176904,-5,-5,-15,-56,-4,-3,-4,-4
1441193769198098,-2,0,2,5,-3,-1,-1,0
1441193769198098,0,0,-2,-8,0,1,1,1
1441193769206905,1,1,-2,-1,-4,-3,-3,-3
1441193769206905,1,2,4,15,-1,0,0,0
1441193769221113,-4,-4,5,30,0,-5,-5,1
1441193769221113,-3,-3,-5,-19,0,2,-1,-3
1441193769228903,3,6,-4,-36,-1,5,0,3
1441193769228903,-3,-8,10,27,-1,-2,0,3
1441193769244126,2,3,-4,-13,-2,3,-2,-1
1441193769244126,0,-1,-1,8,-3,-2,0,0
1441193769245902,-1,-2,-11,-3,1,1,-1,-1
1441193769245902,-1,-1,-9,-13,-4,0,1,-1
1441193769258097,1,0,0,4,0,2,-3,-1
1441193769258097,-1,-1,1,-22,-2,-1,-2,-1
1441193769266902,-4,-2,-4,4,0,0,-2,-1
1441193769266902,-2,0,7,0,1,-1,-2,-2
1441193769282113,0,-1,-14,0,-2,0,0,1
1441193769282113,-3,-5,-9,-28,-1,-3,-1,1
1441193769282937,1,3,3,2,1,2,-1,0
1441193769282937,-1,2,-1,8,1,0,-2,-1
1441193769304134,0,2,2,-24,-2,-1,2,0
1441193769304134,-1,-8,-4,45,1,-2,-2,-2
1441193769305906,0,-4,-10,20,-1,-6,-3,-3
1441193769305906,-3,1,-3,-2,-1,-1,0,1
1441193769318166,1,6,6,0,2,3,2,0
1441193769318166,-1,-3,-2,44,-3,-3,-2,2
1441193769327904,-4,1,8,-10,-3,-4,-4,-5
1441193769327904,3,3,0,-2,0,1,1,-3
1441193769341926,-4,-2,-1,0,2,0,-1,-1
1441193769341926,2,4,-3,-25,-1,1,2,2
1441193769343906,0,1,3,4,-1,-3,4,2
1441193769343906,-2,-3,-1,15,6,1,-4,-2
1441193769364144,-2,1,5,5,-1,0,-1,-1
1441193769364144,-1,-1,-3,-18,0,-2,-2,0
1441193769365905,1,-2,2,7,-4,0,-1,2
1441193769365905,1,-1,-2,-11,0,-3,1,-2
1441193769378169,-1,-3,-2,5,1,-5,-1,-1
1441193769378169,1,0,-5,-14,-1,0,1,-2
1441193769386907,0,2,-2,-8,0,-2,-1,-1
1441193769386907,-3,0,-3,1,1,0,-1,-4
1441193769401971,0,-4,-5,4,-4,1,-2,-2
1441193769401971,2,1,-1,-5,-1,1,0,2
1441193769402974,1,0,3,-1,1,0,-2,-1
1441193769402974,0,1,0,2,-5,-2,-2,-2
1441193769424168,-2,-12,-3,3,-5,1,2,-2
1441193769424168,-1,2,1,-10,-1,2,1,1
1441193769426906,1,-1,1,3,0,1,-3,0
1441193769426906,-1,0,-2,2,-3,-2,-3,-1
1441193769438023,0,3,-3,-1,-2,-8,-1,-1
1441193769438023,0,-1,3,-9,-1,1,-1,0
1441193769446909,-3,-3,-3,4,-6,1,1,0
1441193769446909,-2,0,0,2,-2,0,-3,-4
1441193769462115,-1,-1,1,3,-1,1,-2,-1
1441193769462115,0,-1,2,-4,-5,-5,0,0
1441193769462907,-1,2,-4,-1,1,1,3,-1
1441193769462907,-2,-4,-1,0,0,-1,-2,0
1441193769484913,-2,-2,-1,-1,-1,-2,0,-1
1441193769484913,0,1,-3,-4,-1,-2,-4,0
1441193769485904,-2,-1,2,-5,-3,4,0,0
1441193769485904,1,-1,0,-1,-6,-1,0,1
1441193769498123,-2,-1,1,0,-1,0,-2,-1
1441193769498123,2,1,2,-2,1,-2,1,-3
1441193769506907,0,-1,-2,2,-2,-2,-1,1
1441193769506907,0,-1,-1,0,1,-1,-1,-2
1441193769521167,-2,-1,2,0,2,-3,-1,2
1441193769521167,-1,-2,-5,-5,-4,-1,-2,-2
1441193769528921,1,0,0,0,2,-1,-1,-2
1441193769528921,-2,0,1,1,0,-1,-2,0
1441193769544176,1,2,-1,-3,-1,0,3,2
1441193769544176,-2,1,-1,-1,-1,-3,1,-1
1441193769546912,-2,-2,-4,0,0,2,0,2
1441193769546912,1,0,-1,-1,2,-1,0,-3
1441193769567101,-1,2,-1,1,0,1,-1,0
1441193769567101,-1,-1,-2,-2,-3,0,0,0
1441193769568905,-2,-2,0,0,1,-2,-1,-2
1441193769568905,-1,-3,1,0,0,-2,-1,0
1441193769580910,-2,-1,-2,-2,1,0,-3,-3
1441193769580910,-1,-2,1,-1,1,0,0,0
1441193769588140,0,0,2,0,2,-1,-2,-1
1441193769588140,-1,2,3,-1,-1,-1,-1,0
1441193769604162,-2,1,0,-3,-1,-1,-4,-2
1441193769604162,2,-2,-5,-2,-2,-1,-1,0
1441193769605912,0,0,2,-3,3,-1,-2,-1
1441193769605912,0,-1,0,0,-1,0,1,-1
1441193769627084,-1,0,1,2,-5,-2,0,1
1441193769627084,0,0,-2,-3,0,0,1,1
1441193769627906,2,-1,2,0,-3,-4,-3,-1
1441193769627906,-2,1,-2,-1,1,1,-1,-2
1441193769640947,-1,0,-2,-2,0,-1,1,-2
1441193769640947,-1,-4,0,-1,1,-2,-2,1
1441193769649910,-1,-1,-4,2,-1,3,-1,-1
1441193769649910,-1,-4,-4,-2,-2,1,-1,1
1441193769664915,0,0,-1,1,1,-2,2,-1
1441193769664915,-1,-1,1,-2,-3,-1,-4,0
1441193769666912,-1,2,-1,-1,1,-2,1,-1
1441193769666912,-2,-1,-3,1,-4,1,-2,-2
1441193769686989,-2,-2,-3,-1,-1,0,-2,-1
1441193769686989,-1,-2,0,3,1,-1,1,-1
1441193769688911,-1,-2,-1,1,2,-1,-1,-2
1441193769688911,-4,-2,-3,-2,2,3,-1,-2
1441193769700964,0,-1,-2,-2,-1,-2,-1,-2
1441193769700964,-2,-2,0,0,-3,-1,-2,0
1441193769708914,-1,-4,0,-1,-5,-3,-1,0
1441193769708914,0,0,1,-1,-3,-2,-1,-2
1441193769724943,-2,-2,0,-1,-4,0,0,-1
1441193769724943,-1,-1,-1,-2,-1,-3,-2,2
1441193769726914,-1,0,-3,-1,-3,0,1,-1
1441193769726914,-1,2,2,0,-3,0,0,-1
1441193769747075,-2,-3,-2,-2,-1,-1,0,2
1441193769747075,-1,-1,2,-2,-1,-3,-1,0
1441193769753203,-2,-1,-5,-3,1,0,-1,0
1441193769753203,0,-1,-1,-1,0,0,-1,-1
1441193769760947,0,0,0,1,-2,1,-1,-1
1441193769760947,1,-1,0,-4,-1,-2,1,1
1441193769768170,0,-3,1,-3,0,0,2,-2
1441193769768170,-1,-2,-2,-1,-3,-3,-3,0
1441193769784916,-1,2,-1,1,2,2,-2,-3
1441193769784916,0,-2,-4,-1,-2,2,-1,-3
1441193769785916,-2,0,2,3,0,-2,-2,0
1441193769785916,-2,-2,0,1,3,-1,-2,0
1441193769807033,0,-2,-2,-1,0,1,0,-1
1441193769807033,0,2,1,3,-4,-1,-3,-2
1441193769807960,-2,0,1,-3,-4,-1,-1,-4
1441193769807960,-2,-1,-2,0,3,-2,0,-2
1441193769820937,1,-1,-1,-1,0,0,2,0
1441193769820937,-2,0,1,-1,2,0,0,0
1441193769828180,-1,0,0,-1,3,-2,0,-2
1441193769828180,-3,-1,-1,-2,-3,-3,-1,0
1441193769843999,0,1,1,-1,1,-2,-1,-3
1441193769843999,-1,-3,-4,-2,-2,1,-2,0
1441193769845913,0,1,1,-3,-4,0,-2,0
1441193769845913,1,1,2,0,2,-2,0,0
1441193769867128,-2,0,-5,-2,-1,-3,0,0
1441193769867128,0,-3,0,1,1,0,4,1
1441193769868965,0,-2,-3,-1,-1,-5,-3,0
1441193769868965,-3,-1,-2,-1,-1,3,0,-4
1441193769881143,0,-1,-1,-3,-2,0,1,2
1441193769881143,0,-1,1,-6,-3,-2,0,-1
1441193769888125,-1,-1,-2,1,-1,-2,-1,-1
1441193769888125,-1,-1,0,3,-1,-3,1,0
1441193769904917,-1,-3,-1,-1,1,0,-3,-1
1441193769904917,-2,0,1,-3,0,0,1,-2
1441193769905914,-1,-3,1,-11,0,1,1,-2
1441193769905914,-1,-1,-1,-4,-6,0,0,-3
1441193769926956,-3,1,3,1,-2,-1,-2,-2
1441193769926956,0,-4,-4,-2,1,-1,-1,2
1441193769927919,-1,2,-2,3,-4,-1,-1,-2
1441193769927919,0,-3,-2,-5,3,-1,-1,-2
1441193769941144,1,-1,1,8,-1,1,-1,1
1441193769941144,-1,-1,1,-6,-1,-3,-1,0
1441193769948156,-2,0,-2,5,-4,2,-2,1
1441193769948156,-1,2,-3,-2,-2,-3,-1,1
1441193769964932,-3,-3,-1,1,-2,-2,-2,-2
1441193769964932,-1,0,2,6,3,0,0,-2
1441193769965916,0,-4,-4,-4,-1,2,1,-1
1441193769965916,-1,-2,-2,3,0,-2,-2,-3
1441193769987106,1,-1,-5,8,2,1,-1,-2
1441193769987106,-2,1,-2,-1,-1,-2,-1,0
1441193769988919,-5,-3,2,-7,-5,-3,-1,-1
1441193769988919,1,-1,0,1,-2,2,-1,1
1441193770001175,0,-3,-1,-8,0,2,2,2
1441193770001175,4,4,-3,7,-2,3,0,-3
1441193770007921,-6,-3,9,-34,1,-3,-1,4
1441193770007921,2,-5,-10,14,-4,2,-5,0
1441193770024979,-3,0,-2,-8,-1,0,0,-4
1441193770024979,25,6,19,53,-3,0,-2,2
1441193770026921,-31,-11,-5,-38,-3,1,0,1
1441193770026921,16,10,3,15,-2,-1,1,5
1441193770047133,-25,-8,-3,-5,1,-1,-5,-5
1441193770047133,10,2,-8,-4,-1,0,0,-1
1441193770048918,31,11,12,49,-3,-7,-10,-8
1441193770048918,5,-10,-7,-12,0,3,5,2
1441193770060986,-50,-17,-8,-21,-6,-10,-2,1
1441193770060986,-22,-2,-4,-26,0,1,-11,6
1441193770070920,2,-11,-7,8,0,-2,18,-11
1441193770070920,4,-13,-7,-33,-2,-3,-9,1
1441193770084079,-19,10,3,-5,-1,-7,-5,-3
1441193770084079,29,4,-9,3,2,6,3,16
1441193770085922,34,12,-4,-45,1,-5,-13,-1
1441193770085922,-5,15,10,68,2,2,-5,-24
1441193770107099,19,-22,4,-8,0,0,5,1
1441193770107099,9,2,5,-11,-7,2,0,3
1441193770108922,-2,5,-13,9,1,7,1,-3
1441193770108922,-6,3,2,-61,-4,-7,3,2
1441193770120919,25,7,11,69,-3,-2,-9,1
1441193770120919,-6,-5,-8,-32,-7,0,3,-3
1441193770129920,45,-4,-2,12,2,3,1,-3
1441193770129920,0,9,10,-16,-2,1,-3,-9
1441193770144197,-41,3,1,32,0,1,5,4
1441193770144197,-23,-14,-15,-34,1,-4,-1,-44
1441193770145919,-66,-23,5,46,6,-1,4,64
1441193770145919,88,13,-3,-9,-1,2,-6,-11
1441193770167073,-42,8,-6,-44,1,-2,-2,-12
1441193770167073,-5,-3,12,51,-4,0,4,-3
1441193770167930,-11,30,-2,-37,-1,3,-9,-17
1441193770167930,-32,4,-5,21,-2,-6,-4,5
1441193770180939,45,10,-4,4,-3,2,9,3
1441193770180939,-15,-1,-3,-17,2,-3,-4,3
1441193770189920,-22,1,0,30,-6,-2,1,-11
1441193770189920,0,-4,4,8,1,-1,1,8
1441193770204963,46,1,-9,10,-4,-8,-5,-7
1441193770204963,1,11,-3,-2,1,2,0,2
1441193770205923,8,-29,9,34,-4,-2,-3,-5
1441193770205923,-16,-7,1,20,2,2,2,-4
1441193770227091,52,19,6,-3,-1,1,-1,8
1441193770227091,-6,3,3,47,5,0,-1,0
1441193770228921,-69,-15,-4,4,-1,-2,-4,-8
1441193770228921,-10,-25,-19,11,-2,-4,3,6
1441193770240935,-10,-47,-8,4,-1,4,3,4
1441193770240935,32,25,0,-20,-2,-3,-4,3
1441193770249925,7,26,-4,14,2,6,1,-7
1441193770249925,-37,-13,-6,-36,1,-9,-5,-6
1441193770264992,16,65,3,-25,-4,-1,-6,-4
1441193770264992,-9,-1,1,-20,-3,-2,2,6
1441193770265925,17,-18,1,24,6,1,0,-1
1441193770265925,-9,-23,1,0,-8,-2,4,-3
1441193770287059,-20,-22,-2,-2,-1,-3,-2,-25
1441193770287059,58,-18,6,30,1,0,-3,40
1441193770288927,79,17,2,-56,-1,0,1,-1
1441193770288927,-71,-8,6,43,1,-3,-2,0
1441193770300978,-8,-5,-11,-23,3,1,0,-6
1441193770300978,-6,-15,2,19,-1,-1,-5,-13
1441193770310926,21,10,-8,-28,-2,3,2,2
1441193770310926,14,2,-1,13,-2,-1,-4,0
1441193770324963,-34,7,-6,-38,5,2,1,20
1441193770324963,-27,-2,-1,-8,-2,1,-5,-16
1441193770326927,1,-8,-12,0,-7,2,-3,0
1441193770326927,12,28,-6,-37,4,5,0,-4
1441193770347087,71,26,4,1,-4,1,-3,-15
1441193770347087,-69,-40,-22,-8,-7,-13,2,7
1441193770348924,-7,-10,-2,-36,-3,-2,-1,9
1441193770348924,44,34,6,-3,1,3,-1,-4
1441193770360925,22,0,-10,-35,0,3,5,-1
1441193770360925,-37,6,11,-66,-3,-3,5,16
1441193770369922,-16,0,6,15,-3,-4,-5,-12
1441193770369922,-12,-10,-7,-3,0,2,2,13
1441193770384136,7,-13,9,6,5,7,-1,-9
1441193770384136,-7,-9,0,-13,-3,-5,-1,-8
1441193770385924,-59,-16,21,71,-5,-11,-3,-18
1441193770385924,40,13,-9,-73,0,8,2,5
1441193770407083,-63,-18,5,33,-2,-3,0,9
1441193770407083,19,14,1,-9,-1,6,0,-6
1441193770408923,7,-11,-3,-8,-2,-7,-4,0
1441193770408923,-23,-4,6,5,-4,-5,-2,-14
1441193770420929,21,-10,-5,6,-6,-5,-4,2
1441193770420929,-20,-6,0,12,0,-1,-4,-6
1441193770429925,19,8,-1,1,1,5,-2,-50
1441193770429925,9,-20,-13,-13,1,0,4,88
1441193770444962,-75,-4,4,41,-1,-1,5,-7
1441193770444962,55,-1,-5,5,2,-5,-3,-30
1441193770446925,-28,1,-1,35,3,2,4,0
1441193770446925,57,16,1,-42,3,0,-2,-13
1441193770467121,7,8,13,-22,-3,1,-6,4
1441193770467121,2,-12,-14,39,0,3,0,-9
1441193770468930,28,4,-8,-69,-6,2,-4,30
1441193770468930,-44,-8,11,64,-2,-1,2,-26
1441193770481015,-65,-28,-13,-65,0,-6,-2,15
1441193770481015,-32,29,6,46,0,3,4,-17
1441193770489930,86,-2,-8,-17,8,-1,1,27
1441193770489930,-89,-2,-4,-11,-7,-4,6,-48
1441193770504943,114,-6,-3,29,5,-2,6,56
1441193770504943,-14,-7,6,30,2,0,0,24
1441193770505929,-51,2,-1,50,-1,2,-7,-42
1441193770505929,-44,7,10,-2,-10,-2,7,54
1441193770527001,-53,7,0,-13,-6,-2,-1,-25
1441193770527001,38,4,6,-6,-6,-8,3,10
1441193770527932,11,2,-1,-20,2,-3,-6,-20
1441193770527932,33,-10,-2,23,4,1,-3,6
1441193770549940,2,-4,3,43,-10,-11,-2,-8
1441193770549940,5,-6,-4,-69,-2,0,-4,16
1441193770551931,-16,5,-1,-25,-3,4,2,-14
1441193770551931,-1,5,4,10,2,1,-11,-27
1441193770564131,70,-6,-1,18,-4,-2,1,10
1441193770564131,-18,-10,-19,-77,-7,-5,1,12
1441193770565927,-98,-4,11,73,1,-2,0,-14
1441193770565927,32,23,10,38,-2,8,4,-33
1441193770587106,54,5,-3,-13,3,-3,-5,53
1441193770587106,24,-5,-5,6,-3,-2,3,-28
1441193770587989,50,-1,-7,-98,-2,0,-28,13
1441193770587989,-31,-10,1,53,1,-5,7,-17
1441193770617060,-46,-7,0,-19,-2,1,6,-53
1441193770617060,43,3,6,30,5,3,-8,30
1441193770617949,95,10,-5,-3,-6,-10,-5,-3
1441193770617949,95,-12,-2,-58,4,3,20,88
1441193770624189,-76,-65,-2,11,7,-2,-11,-27
1441193770624189,4,89,5,-20,-2,2,-1,-11
1441193770625929,53,79,12,-4,-2,-1,-21,-12
1441193770625929,-68,-4,-14,21,-4,-5,-12,-3
1441193770647145,17,-9,1,46,4,10,32,13
1441193770647145,-1,-68,8,34,6,-2,-13,2
1441193770648995,-74,-80,-25,-31,-7,-9,-6,-5
1441193770648995,10,-69,10,38,-1,-3,-1,-19
1441193770669932,-36,105,-5,-54,-6,4,-12,10
1441193770669932,-40,63,-3,-5,-3,1,13,-15
1441193770670929,11,32,2,-12,-3,-5,5,5
1441193770670929,40,-12,-22,-93,-2,0,-8,-11
1441193770684986,-6,-37,19,58,6,-5,-4,-14
1441193770684986,60,20,-6,-5,-1,4,-26,-27
1441193770686928,-53,-19,-3,-9,2,-2,7,-14
1441193770686928,53,-5,12,0,1,4,11,39
1441193770707146,-3,39,5,9,-4,-5,-18,-20
1441193770707146,2,23,-5,-51,-2,1,-2,0
1441193770708935,36,29,20,3,0,11,9,-30
1441193770708935,-31,51,-19,-42,-11,-12,-26,3
1441193770729190,87,2,-12,1,-6,1,24,18
1441193770729190,50,-61,-13,-32,1,-2,-6,16
1441193770730930,62,-40,15,72,-1,2,15,26
1441193770730930,-63,3,-20,-67,-2,-4,5,-97
1441193770744029,-37,-96,9,-18,-2,2,-6,108
1441193770744029,47,78,-1,32,0,3,15,-48
1441193770750204,-47,105,-12,-51,-1,0,0,20
1441193770750204,25,127,23,69,0,4,2,-28
1441193770767101,-11,84,-6,-10,-5,-1,8,17
1441193770767101,-76,-83,-13,38,-3,1,-5,-28
1441193770768933,-26,-20,14,45,2,1,6,34
1441193770768933,32,1,0,-46,4,3,13,51
1441193770789214,-63,-48,-6,-28,-4,-8,-15,-65
1441193770789214,-9,-14,-1,16,1,-2,11,12
1441193770790935,26,10,-11,10,4,7,-14,4
1441193770790935,-52,-49,12,43,0,1,19,10
1441193770804072,19,-27,-7,16,-1,2,-5,15
1441193770804072,6,-54,3,-46,4,-2,-1,-7
1441193770810935,-50,-70,-4,15,2,-8,24,-45
1441193770810935,-20,-122,-13,-14,1,-5,-18,-7
1441193770827107,1,115,1,-24,1,2,6,-39
1441193770827107,15,117,-5,-40,-7,-8,-2,15
1441193770828935,-31,53,-8,-29,-2,2,-8,-30
1441193770828935,56,35,-2,18,0,-4,-8,17
1441193770849937,28,-67,6,23,-5,-6,9,-45
1441193770849937,5,-85,-2,-2,-6,-4,-9,34
1441193770850936,29,-16,-6,-51,0,8,12,22
1441193770850936,40,26,2,9,-6,-3,-12,-49
1441193770864137,12,-30,-6,6,-1,1,-2,16
1441193770864137,-4,2,5,-16,0,0,1,38
1441193770870959,-8,-27,-1,26,-3,-5,3,-22
1441193770870959,-64,22,7,-14,4,6,-11,42
1441193770886162,33,10,-23,-31,0,-3,10,-33
1441193770886162,-5,1,8,-38,-4,6,4,-3
1441193770894934,-7,-3,-7,41,-3,-9,-12,-1
1441193770894934,109,39,16,-2,-1,0,-10,-20
1441193770909219,-30,21,0,14,3,4,-3,25
1441193770909219,-5,-7,4,10,1,3,9,9
1441193770910934,0,6,0,-58,-7,-5,-9,22
1441193770910934,-94,-38,-14,12,1,-8,-8,-60
1441193770923200,-5,8,9,12,3,6,-2,76
1441193770923200,-41,-25,6,36,-4,-3,2,-30
1441193770931936,-5,4,7,53,2,5,-5,-22
1441193770931936,42,12,-7,16,-2,3,20,11
1441193770947934,-64,-33,0,-60,0,-7,-12,-48
1441193770947934,6,3,-5,-10,3,3,-6,2
1441193770948935,29,-15,13,12,-4,-2,1,32
1441193770948935,-42,-12,-11,20,-5,-4,-3,-29
1441193770969938,23,9,4,9,2,4,-5,-12
1441193770969938,70,34,0,42,-4,-7,-5,-4
1441193770970938,-47,-8,-10,-67,-1,6,9,2
1441193770970938,-17,3,13,61,-4,-1,-7,19
1441193770984107,15,-24,-1,-29,-2,-2,3,-16
1441193770984107,-51,-24,4,29,-2,2,2,3
1441193770990940,35,10,-8,-15,0,3,-4,-3
1441193770990940,-17,4,6,-19,1,4,1,16
1441193771006942,111,15,-9,-7,-7,-2,-10,-20
1441193771006942,-56,-39,3,52,-2,-7,3,11
1441193771008940,6,-12,2,21,3,1,1,11
1441193771008940,20,7,-1,-30,-4,-1,-1,-4
1441193771029937,8,12,7,37,3,-4,-12,-22
1441193771029937,-6,-4,-2,-41,-1,1,7,-39
1441193771031943,33,-11,-5,23,0,-1,4,42
1441193771031943,-24,11,2,6,-1,1,-1,2
1441193771043115,6,25,-1,-4,-4,4,1,-1
1441193771043115,-20,4,-4,6,0,-1,-4,-13
1441193771051938,-14,-12,2,-3,-1,-5,1,-6
1441193771051938,22,-21,-3,3,4,1,-2,-6
1441193771067130,-11,13,6,14,-2,1,2,6
1441193771067130,15,31,3,-11,-1,-1,-2,9
1441193771068941,-22,-20,-11,-3,-3,2,-9,-15
1441193771068941,6,-20,2,14,0,-6,1,13
1441193771089207,-15,-3,0,-5,-6,-2,1,-3
1441193771089207,11,-2,0,9,2,18,1,8
1441193771090937,11,9,1,-15,-4,-6,-4,-2
1441193771090937,9,28,-1,-2,-2,1,4,0
1441193771103220,4,-13,1,14,0,-3,3,3
1441193771103220,6,20,7,-20,0,-3,-4,-4
1441193771111943,-9,19,-2,1,-4,-3,-1,1
1441193771111943,-3,-51,-6,-45,4,3,-5,-9
1441193771127089,-5,31,9,42,-3,-7,-5,-5
1441193771127089,3,26,-12,-29,3,0,-1,5
1441193771128942,-3,4,15,42,-2,-2,1,5
1441193771128942,12,24,0,9,-4,-2,-4,3
1441193771150031,-6,-24,-9,-19,1,2,-3,-3
1441193771150031,-5,-35,-4,0,0,-3,-5,-7
1441193771151943,8,57,1,-4,2,1,-1,2
1441193771151943,-1,-35,-1,4,-2,4,1,2
1441193771163172,-10,-12,-9,-9,1,-1,-1,3
1441193771163172,6,-10,2,12,-6,-4,-1,5
1441193771171943,41,33,-4,-13,2,-3,-1,3
1441193771171943,-60,-90,-22,-5,3,-4,0,-11
1441193771187168,-39,66,-3,-11,0,4,0,-44
1441193771187168,5,46,9,10,3,-3,8,50
1441193771188944,12,14,1,-5,-1,3,-1,-4
1441193771188944,34,28,3,2,-3,-1,-3,2
1441193771209206,17,-37,-9,1,1,-2,-2,7
1441193771209206,-10,-5,1,-2,0,-2,-3,-22
1441193771210943,6,-7,1,9,-3,2,4,0
1441193771210943,-2,45,0,12,-3,-2,2,-18
1441193771223165,-20,-8,-3,-2,0,-1,0,23
1441193771223165,4,1,-1,6,2,-2,-6,-7
1441193771231945,16,20,4,4,-1,1,-3,13
1441193771231945,8,-12,-2,-16,1,-2,7,0
1441193771247002,-27,-77,-3,-7,-7,-4,2,-4
1441193771247002,4,11,7,-4,-7,-4,-6,-4
1441193771248943,-33,-7,-7,-5,5,-4,-2,7
1441193771248943,66,118,15,6,-4,4,-6,0
1441193771269947,-28,-79,-15,-11,2,-6,0,17
1441193771269947,-45,70,-11,-10,-6,-1,-2,-44
1441193771270940,-3,-11,-17,-10,-3,-6,-2,-22
1441193771270940,7,48,7,4,-2,-8,-5,25
1441193771283190,73,22,-5,5,2,8,4,65
1441193771283190,-11,-86,-4,12,3,-7,0,13
1441193771291945,-49,1,4,-16,-9,18,-4,-60
1441193771291945,-1,-26,-8,5,-2,-5,-6,16
1441193771307177,1,47,9,1,1,-6,-1,-38
1441193771307177,25,-33,-8,-5,-2,-1,3,21
1441193771307943,34,24,19,13,-4,2,4,18
1441193771307943,-62,1,-12,-7,0,5,-1,-2
1441193771329946,24,-5,3,3,-2,4,-2,-7
1441193771329946,18,65,4,15,0,4,-3,70
1441193771330942,-52,-20,-8,-7,-1,-8,73,-59
1441193771330942,26,10,-11,2,1,2,-13,4
1441193771343221,-18,56,10,0,2,-5,6,7
1441193771343221,34,8,8,3,-5,9,-54,1
1441193771351947,8,-33,-9,5,0,-9,-60,36
1441193771351947,-12,26,8,-4,-4,14,-28,-19
1441193771367137,-17,-25,-4,-1,-5,-2,-11,2
1441193771367137,7,-15,5,-4,-4,1,14,8
1441193771368948,-4,-19,47,2,3,-3,-3,-25
1441193771368948,5,-43,20,2,-4,-4,43,-3
1441193771389947,12,16,-1,-1,-3,3,8,-11
1441193771389947,-14,23,-38,7,-2,5,31,20
1441193771390947,-23,-24,-48,-5,3,-8,-8,0
1441193771390947,19,15,-17,1,-3,6,2,57
1441193771403947,-4,-11,1,-8,-4,-8,8,-74
1441193771403947,-13,-27,-5,1,-7,-4,72,-38
1441193771411949,7,40,2,-3,0,5,58,35
1441193771411949,-11,-36,12,1,0,-4,-69,5
1441193771426154,10,7,13,-3,2,2,-74,18
1441193771426154,-8,1,14,-3,2,-5,-67,-16
1441193771433191,-2,-8,5,-4,-3,5,-18,-9
1441193771433191,-4,2,-1,-2,-1,-10,40,-14
1441193771450144,1,15,-4,-9,2,0,25,7
1441193771450144,3,-19,-13,0,7,0,13,-19
1441193771451949,-1,-5,-2,-1,0,-6,6,9
1441193771451949,-2,-1,-22,-2,0,-2,5,-14
1441193771472184,-4,12,-2,1,-1,1,1,10
1441193771472184,9,-7,4,-2,-2,-3,6,-4
1441193771473949,-5,0,-2,4,0,-2,-12,20
1441193771473949,-4,-6,8,-4,2,6,-5,-30
1441193771486035,11,6,1,-2,-1,-7,13,9
1441193771486035,-16,-12,8,-3,-2,1,0,-11
1441193771493214,7,-7,0,0,-1,1,-20,12
1441193771493214,-7,-4,2,-3,-2,-5,2,-10
1441193771509203,-2,7,-2,-1,-1,2,8,6
1441193771509203,0,3,3,-4,2,-2,-7,-9
1441193771510949,9,1,3,-4,0,0,-11,-5
1441193771510949,-12,-10,-2,-2,3,-4,4,-4
1441193771532949,7,2,0,-3,-2,2,4,2
1441193771532949,-6,1,-1,-1,-1,0,-6,-2
1441193771533952,9,2,1,0,1,0,-3,-4
1441193771533952,-22,-10,0,0,-1,-3,0,-12
1441193771546181,33,2,-4,-4,3,-2,-3,21
1441193771546181,-5,3,2,1,-2,-6,13,-7
1441193771553223,5,-7,0,6,0,2,1,-16
1441193771553223,0,3,1,2,1,-2,-19,16
1441193771569948,11,10,5,-1,3,0,1,-8
1441193771569948,4,-15,-6,-11,-1,0,-10,4
1441193771570950,-44,-3,-10,-5,2,-4,15,8
1441193771570950,47,0,-2,36,-3,-7,-13,-13
1441193771592150,-94,-15,-1,-6,1,9,52,4
1441193771592150,29,16,11,-17,-2,-7,-21,0
1441193771593948,-13,-8,-6,-6,-4,3,4,-2
1441193771593948,-52,-15,-3,-23,-1,-2,-15,-7
1441193771606134,35,10,-3,-14,5,5,-1,8
1441193771606134,38,3,0,9,3,-2,36,-39
1441193771613154,60,37,-2,-1,-4,1,-2,50
1441193771613154,-69,-33,9,25,-2,1,39,-17
1441193771629999,-29,-11,-4,3,-1,-1,-15,7
1441193771629999,56,7,0,12,-2,-3,-30,-24
1441193771630948,-38,-7,3,6,8,1,-32,-3
1441193771630948,53,8,8,19,-2,5,16,17
1441193771652158,-15,1,-14,-42,-4,-5,2,-12
1441193771652158,-71,-9,-10,-3,-8,-3,-15,4
1441193771652949,17,-6,1,-64,0,3,-20,29
1441193771652949,-3,22,3,-4,-6,-5,28,-18
1441193771666185,65,-21,0,-19,-4,-3,3,14
1441193771666185,79,18,-2,9,-3,-3,-25,-4
1441193771673219,-84,-7,4,-7,-8,-5,17,0
1441193771673219,107,20,-20,-38,4,5,-24,1
1441193771690193,-33,-12,2,36,-3,-3,-37,-23
1441193771690193,-76,-18,-5,-61,-5,2,21,-65
1441193771691953,-90,-3,-9,-10,6,3,12,19
1441193771691953,25,-4,-4,33,-4,-11,-10,10
1441193771712138,-22,-6,-2,-29,-3,3,-18,-5
1441193771712138,33,-17,6,56,2,-6,-7,-77
1441193771712956,98,3,6,-62,-2,13,47,58
1441193771712956,-99,-26,0,13,-6,-9,-2,-52
1441193771726204,62,-18,-12,-10,-1,-10,-25,65
1441193771726204,-14,7,-4,5,1,0,9,20
1441193771733193,98,-3,2,37,-2,-4,-7,-27
1441193771733193,-46,-12,-9,4,0,3,5,8
1441193771749950,-26,31,20,40,3,8,4,-47
1441193771749950,-8,1,-7,-26,-4,2,-3,34
1441193771751950,-108,-40,1,-6,-2,-14,-64,-43
1441193771751950,118,35,-13,-32,-4,5,54,57
1441193771772153,-1,48,0,23,-5,2,49,39
1441193771772153,46,-31,4,3,1,-3,-5,-79
1441193771773951,-92,-8,-17,-20,-9,-4,2,81
1441193771773951,66,11,8,-15,3,3,-37,-6
1441193771786005,-27,8,12,-55,-3,-1,7,-41
1441193771786005,90,32,2,67,5,1,-12,21
1441193771794956,-11,-23,-13,17,-4,-10,-8,-24
1441193771794956,-67,-15,2,-25,3,-7,-7,-35
1441193771809186,64,25,-9,-6,-3,-6,-19,6
1441193771809186,-52,2,3,-17,0,1,16,7
1441193771810951,-7,8,-13,11,3,0,-12,28
1441193771810951,36,16,5,-26,1,-6,-34,-14
1441193771832100,34,-36,5,20,8,9,-3,-6
1441193771832100,-15,-53,-9,50,-4,-7,22,2
1441193771833960,-28,-97,-3,2,3,3,-12,-37
1441193771833960,19,9,-9,-30,-9,6,5,87
1441193771845954,-2,-32,5,47,-6,-6,-17,-20
1441193771845954,32,93,-8,24,1,4,17,22
1441193771854953,127,122,11,5,4,7,6,-11
1441193771854953,27,95,6,2,3,6,3,-39
1441193771869188,-28,69,0,25,-2,-4,-8,-38
1441193771869188,49,23,3,-34,-2,2,19,3
1441193771870956,-38,-43,-2,44,-3,-5,-10,-61
1441193771870956,-6,-128,0,-67,7,3,9,81
1441193771892128,11,-56,-4,21,-3,-8,-15,32
1441193771892128,21,33,-4,-28,0,-3,-10,-32
1441193771894005,67,119,12,7,0,0,-3,-45
1441193771894005,39,70,-20,-35,2,-5,-5,-11
1441193771906205,-41,-44,-7,42,-4,-5,28,7
1441193771906205,-72,-92,-1,-49,-4,-1,-24,32
1441193771913163,52,-33,9,14,0,-1,5,-20
1441193771913163,31,-76,-8,35,1,-4,12,-46
1441193771929174,39,-4,-1,-54,3,5,13,6
1441193771929174,-52,-74,7,2,0,1,-2,31
1441193771930957,51,68,14,50,-1,-2,-12,-15
1441193771930957,-8,1,17,43,-1,-1,2,-26
1441193771952149,-55,67,-6,-45,-4,-3,-13,-40
1441193771952149,15,51,5,1,3,11,40,42
1441193771954954,-48,-46,2,-16,-2,-2,10,-17
1441193771954954,-64,-6,5,54,2,1,-24,29
1441193771974955,38,-30,9,20,3,0,11,-25
1441193771974955,-49,-17,-6,-35,-2,4,6,68
1441193771975955,14,-19,-5,-14,-2,-1,-2,-10
1441193771975955,-72,2,-12,-2,-1,-2,0,-19
1441193771989959,6,-27,0,5,0,1,-4,9
1441193771989959,45,9,1,-46,-1,-2,-11,-18
1441193771990958,-78,8,-3,16,-7,-6,8,51
1441193771990958,-14,5,6,20,1,2,-4,-9
1441193772012988,-6,1,-2,-31,0,-4,1,-2
1441193772012988,-8,-6,3,2,0,-1,-11,1
1441193772013960,29,1,-5,11,2,1,1,-7
1441193772013960,-18,-1,11,6,-2,-5,3,-20
1441193772025958,19,5,-8,13,-1,0,1,18
1441193772025958,-8,10,-3,16,-1,-3,-10,-2
1441193772034954,2,-6,-1,0,-2,1,-2,-11
1441193772034954,-10,11,-4,-14,-1,2,1,1
1441193772049199,14,1,-2,-9,1,0,-1,1
1441193772049199,-35,1,-2,13,-2,-1,-12,0
1441193772050956,3,-7,-4,-21,-3,7,2,-10
1441193772050956,1,-4,2,-5,-1,-3,3,-3
1441193772072173,-7,-10,-3,10,-3,2,-4,2
1441193772072173,-12,8,2,14,0,1,-6,-5
1441193772073003,12,-18,-8,-20,1,-2,0,1
1441193772073003,10,11,2,0,0,-4,1,-2
1441193772086063,-5,-10,-3,-1,1,8,-3,3
1441193772086063,-15,5,-2,1,-2,0,-9,-5
1441193772094958,16,16,0,-8,1,-2,2,-9
1441193772094958,-8,-2,2,0,0,0,-2,2
1441193772107964,-11,-11,-4,-3,-6,-4,1,-3
1441193772107964,-4,-15,0,1,0,-4,-1,0
1441193772116958,1,0,-3,-8,0,-2,-1,-4
1441193772116958,-2,1,1,3,-2,1,-2,-2
1441193772132158,8,9,3,2,-4,-4,0,4
1441193772132158,-1,7,2,3,-3,-1,-5,-2
1441193772133986,-2,-9,-3,1,2,-4,0,-2
1441193772133986,-5,-1,-3,-18,-2,-4,-1,-4
1441193772146002,34,3,3,11,-6,7,5,15
1441193772146002,-18,7,-1,0,4,-3,-5,16
1441193772154962,-23,-3,2,-8,-3,-3,0,-44
1441193772154962,-6,-15,-2,4,-1,-7,0,-11
1441193772169222,13,34,5,5,1,-2,0,-1
1441193772169222,6,-30,-4,-3,-1,1,-4,11
1441193772170962,-1,13,0,2,0,1,-2,14
1441193772170962,-1,-15,0,-4,-2,4,0,-2
1441193772192187,-6,8,-5,-6,0,-4,0,0
1441193772192187,-2,14,-1,6,-3,-3,-4,-3
1441193772193962,5,-8,-1,-4,1,-1,1,4
1441193772193962,1,1,-2,4,1,2,1,-1
1441193772206026,-5,-5,-1,-6,-1,-3,-2,1
1441193772206026,-3,0,-3,1,0,-2,-1,-10
1441193772214960,7,-7,0,2,1,-2,0,-4
1441193772214960,0,9,-3,0,-6,1,0,5
1441193772229211,-6,-11,-5,1,6,-2,0,-2
1441193772229211,-4,0,0,-3,-5,1,-4,-8
1441193772230963,8,2,1,3,-3,1,1,6
1441193772230963,-3,-15,1,-7,-2,-5,2,4
1441193772252174,-3,9,0,-9,-4,-4,-3,-4
1441193772252174,-10,-20,0,6,-2,-4,-3,-6
1441193772253960,7,29,-1,-8,3,4,-2,0
1441193772253960,2,12,0,3,-1,-1,1,5
1441193772274076,-10,6,1,1,-1,-3,-1,-12
1441193772274076,0,-6,-6,-7,1,-1,1,0
1441193772274076,-2,-2,5,3,0,-1,-1,4
1441193772274076,9,21,-2,-2,2,-2,0,0
1441193772289115,-2,-10,-2,-9,0,0,0,2
1441193772289115,1,6,-2,-2,-3,-1,-2,-8
1441193772289970,2,-13,-5,0,1,0,-3,2
1441193772289970,-6,-14,-2,-2,1,-2,-2,-4
1441193772311177,4,-3,0,4,0,0,1,3
1441193772311177,-1,2,0,-5,3,1,0,-5
1441193772311966,-1,-12,-4,-1,-6,0,1,4
1441193772311966,21,12,2,1,-1,3,0,17
1441193772334006,-23,-2,-8,-1,2,-7,-4,8
1441193772334006,-33,-10,-2,-17,2,4,1,-69
1441193772334006,6,11,4,3,0,-2,-1,-1
1441193772334006,0,-3,-5,-2,-4,-3,-4,7
1441193772348979,9,-38,-3,1,0,-4,-3,25
1441193772348979,-2,36,-5,3,1,4,1,-14
1441193772348979,-16,-7,2,-4,-3,-4,2,-4
1441193772348979,4,-1,4,3,-7,1,1,-4
1441193772371208,9,-5,-5,1,-1,1,-2,7
1441193772371208,7,2,2,6,-1,-2,-4,14
1441193772371964,5,-11,-4,-1,0,-1,-3,-7
1441193772371964,-4,-2,-3,-4,6,3,-1,1
1441193772394072,-4,2,2,2,-3,2,2,-13
1441193772394072,1,-1,5,1,-2,0,0,11
1441193772394072,4,-2,-4,-1,0,3,0,4
1441193772394072,-6,-6,0,1,2,1,0,-2
1441193772409059,-3,3,0,0,-2,-2,-1,-1
1441193772409059,2,-2,-2,-2,0,-3,-1,-3
1441193772409966,9,-12,-3,0,-3,1,0,6
1441193772409966,-18,-13,-4,-2,0,-2,0,-10
1441193772431216,-4,-10,2,-4,-4,1,-1,-8
1441193772431216,8,5,2,5,-6,0,-1,17
1441193772431968,3,4,-1,-3,0,1,-2,-1
1441193772431968,-3,-22,-3,1,2,-2,2,-6
1441193772454099,0,26,-1,-1,0,2,0,-3
1441193772454099,3,0,-1,0,0,-5,-2,7
1441193772454996,5,-4,-3,2,-8,-2,-2,2
1441193772454996,0,0,0,-4,-2,2,-1,11
1441193772469148,-9,-4,1,1,-2,3,-1,-26
1441193772469148,3,1,0,2,-3,-2,-1,8
1441193772469965,-5,-1,-1,-4,1,0,0,-5
1441193772469965,4,4,0,3,-2,-3,-1,8
1441193772491968,-1,1,-1,-4,2,-2,1,2
1441193772491968,-2,-1,-2,1,1,1,-4,-1
1441193772491968,-2,-4,1,1,3,-3,-3,1
1441193772491968,-2,4,-1,-1,-3,2,0,-3
1441193772514091,1,-5,-2,0,1,0,1,0
1441193772514091,2,-6,0,2,-3,2,-2,3
1441193772514968,-4,2,1,2,1,-3,2,1
1441193772514968,0,1,-1,0,-2,-2,-2,-5
1441193772528975,2,-2,-1,-2,3,-3,-1,-3
1441193772528975,2,1,-2,-4,-4,-4,-2,5
1441193772529983,-10,-4,0,0,-1,-3,-2,-3
1441193772529983,12,1,0,-9,4,0,1,-4
1441193772559973,4,-3,-3,7,0,-1,-1,4
1441193772559973,-5,-3,3,0,-4,0,2,3
1441193772559973,-23,-4,-5,-15,1,1,-2,-5
1441193772559973,-14,0,0,-4,-2,0,-2,-6
1441193772574139,22,3,-8,-27,-3,0,2,1
1441193772574139,11,4,6,21,-2,-3,-5,2
1441193772574139,-50,-9,-10,-11,-2,-2,13,-1
1441193772574139,7,0,3,3,-2,2,-7,1
1441193772589167,7,5,6,6,1,-2,-3,3
1441193772589167,37,4,-8,2,1,0,-11,-2
1441193772589167,-35,-6,0,-15,-1,-1,8,-4
1441193772589167,13,8,-5,-6,-2,-6,10,-8
1441193772611194,-4,-14,8,15,-2,-1,0,-8
1441193772611194,97,28,1,1,-2,2,-1,30
1441193772611967,-79,-19,12,17,-3,0,3,-7
1441193772611967,-62,-2,-1,20,0,1,-10,11
1441193772634973,-100,-16,-3,-21,-8,-10,2,-36
1441193772634973,22,-6,-13,-12,3,0,9,26
1441193772635971,127,47,-4,-20,-5,6,-21,-19
1441193772635971,-79,-17,0,7,1,-3,-1,-12
1441193772649104,33,-3,-10,19,1,5,-6,4
1441193772649104,-122,-36,-7,-27,0,-7,2,-42
1441193772649104,127,39,11,59,2,5,-4,38
1441193772649104,54,-1,-5,-42,2,5,22,-28
1441193772671218,-59,-15,2,21,-1,-5,-33,-7
1441193772671218,-42,19,-9,-32,-3,2,5,10
1441193772671969,30,-12,3,26,0,-3,5,-40
1441193772671969,-1,-23,-1,-68,-4,-6,-18,-96
1441193772694074,125,48,20,76,-4,-5,-15,104
1441193772694074,19,-2,2,-31,-5,8,27,-66
1441193772694074,48,-26,0,14,4,1,30,-16
1441193772694074,-53,-28,-7,8,4,1,17,5
1441193772709106,30,20,4,-1,2,-2,-33,-68
1441193772709106,-28,-11,2,5,-4,-5,6,-31
1441193772709973,8,-7,-9,28,1,-1,-6,40
1441193772709973,-43,30,-1,55,-1,5,-16,18
1441193772731203,10,-18,6,4,1,2,30,-36
1441193772731203,23,2,8,20,5,0,-26,25
1441193772731975,-3,-24,-17,-49,-2,2,8,2
1441193772731975,74,-7,8,1,-8,-12,-15,5
1441193772753970,3,-6,-15,22,-4,5,0,15
1441193772753970,74,47,19,-54,-1,6,12,-90
1441193772754971,-86,-6,-7,1,0,-4,-21,1
1441193772754971,30,10,7,39,0,2,0,15
1441193772769088,53,-13,-8,-56,3,3,21,-11
1441193772769088,-127,-37,8,65,-3,-10,-2,-28
1441193772769978,-17,-31,-13,-61,-11,-11,-14,68
1441193772769978,-26,-1,-9,-10,1,-1,-1,-18
1441193772791226,46,18,4,-75,-1,0,-5,8
1441193772791226,60,15,-10,45,-4,-8,1,57
1441193772791976,42,16,15,-1,4,8,-11,-52
1441193772791976,77,22,8,37,2,-6,-17,58
1441193772814135,-24,-15,-7,13,0,0,31,-18
1441193772814135,55,11,9,23,9,5,-33,21
1441193772814973,-55,-3,-13,-25,-6,0,-5,-15
1441193772814973,-2,-4,-3,-12,-4,1,10,-24
1441193772829085,67,35,9,-3,1,2,-25,-63
1441193772829085,-32,-7,-7,33,1,-1,9,73
1441193772829990,-51,11,7,8,1,-1,-8,-66
1441193772829990,11,14,8,2,-1,3,12,-12
1441193772851226,-2,-35,-9,-28,-4,-4,-4,-18
1441193772851226,-51,-10,-26,-34,2,-1,18,89
1441193772851977,49,16,11,21,-4,0,-22,-35
1441193772851977,-17,-1,-28,-64,0,-5,1,18
1441193772874053,-39,-2,9,49,-4,-1,4,4
1441193772874053,16,-5,1,-12,3,0,-9,-34
1441193772874053,-35,-13,-12,27,-3,-3,2,16
1441193772874053,57,-2,-1,-19,-4,2,-1,-20
1441193772889094,-110,-3,-3,22,0,0,10,37
1441193772889094,-75,-8,2,14,-7,-7,-4,4
1441193772889976,11,5,1,18,4,-5,8,16
1441193772889976,5,-2,7,55,-4,1,-2,-10
1441193772911144,-73,-18,-1,-10,0,-3,7,23
1441193772911144,65,-6,3,-31,-4,-1,-7,-33
1441193772911978,-84,3,6,-6,-2,-3,-4,-80
1441193772911978,27,13,-7,-24,-4,3,7,112
1441193772934090,31,8,5,9,-3,2,-4,-14
1441193772934090,1,2,-5,-9,-1,3,-3,-26
1441193772934976,22,0,-11,-20,-3,-5,0,-17
1441193772934976,23,-14,-1,27,-1,-3,13,51
1441193772949149,-26,20,8,-35,0,5,5,-1
1441193772949149,-17,-7,-2,47,2,-3,-8,0
1441193772949149,-7,4,5,2,0,-1,4,8
1441193772949149,-36,-5,4,-25,1,1,-1,-23
1441193772971204,8,2,-8,-10,0,-1,5,19
1441193772971204,-2,-10,3,6,0,-7,-2,-23
1441193772971979,8,-2,7,-7,1,2,-2,24
1441193772971979,-9,-6,-4,19,0,2,-2,-21
1441193772994975,6,-6,-7,-13,1,-1,0,8
1441193772994975,6,2,2,-8,-1,1,-4,-12
1441193772995975,-1,7,-4,-7,0,3,3,24
1441193772995975,-18,-19,1,-8,-5,-6,-3,-12
1441193773008205,-12,-6,-6,5,5,-5,-1,-10
1441193773008205,-5,0,-5,-12,-3,3,0,-2
1441193773016185,10,2,-1,4,-2,0,3,20
1441193773016185,-9,-3,-3,-3,1,-2,-4,-21
1441193773031201,2,2,1,-2,-4,-2,-2,0
1441193773031201,4,-6,-1,-16,-4,3,3,-4
1441193773031980,3,-4,1,-3,1,-1,2,12
1441193773031980,-8,6,1,0,-1,-1,-4,-14
1441193773053993,-3,-4,-4,-8,-4,-3,1,5
1441193773053993,1,0,4,1,2,-5,-3,4
1441193773054978,-1,1,-2,3,-6,4,-2,2
1441193773054978,-5,-2,2,0,-2,8,3,-3
1441193773068979,-4,-19,-6,3,2,-5,-2,3
1441193773068979,-2,6,-4,-6,-1,-3,-2,-10
1441193773076212,0,-3,4,2,1,-1,1,7
1441193773076212,-6,0,2,-3,1,0,-6,-6
1441193773091179,-1,8,0,-5,-7,-2,0,1
1441193773091179,4,14,3,1,4,2,-4,-4
1441193773091981,-2,-20,-3,-4,-2,-2,0,6
1441193773091981,0,13,-3,1,-1,-1,-1,-2
1441193773114151,4,-4,-1,4,-1,-1,2,3
1441193773114151,-9,-29,0,-4,-1,-3,2,-4
1441193773114151,-3,23,-1,-1,1,-2,-2,1
1441193773114151,-6,-24,-2,-4,0,-6,-1,-5
1441193773128202,-8,-20,-1,1,4,1,-1,-2
1441193773128202,0,-2,-5,-4,-6,3,1,2
1441193773136210,6,6,2,5,-3,-3,-2,5
1441193773136210,2,4,-2,-3,0,-3,-3,-2
1441193773151248,0,1,-3,-1,2,2,-1,3
1441193773151248,1,7,-1,-2,0,6,-1,1
1441193773151978,1,1,0,0,-4,2,0,-1
1441193773151978,2,-6,-1,-1,-3,-2,-1,-2
1441193773174144,-5,-14,-3,-1,-4,-1,0,1
1441193773174144,-6,-1,-5,-4,-2,-6,0,-2
1441193773175028,-2,-10,1,-1,-3,-2,1,-1
1441193773175028,-2,3,3,3,-1,3,1,-3
1441193773198979,3,23,2,-1,0,2,-4,-2
1441193773198979,0,5,1,-2,-4,-2,-2,-3
1441193773198979,1,9,-2,-5,-4,-4,-2,1
1441193773198979,-10,-20,0,0,-2,-2,-2,-4
1441193773211222,-1,6,-2,0,-4,3,-3,-2
1441193773211222,3,8,0,-2,3,0,-2,0
1441193773211983,2,2,-1,4,4,0,1,0
1441193773211983,-2,-8,-5,-3,-2,0,-2,-2
1441193773233989,0,14,-3,2,1,-2,-2,-2
1441193773233989,-1,5,3,1,0,3,1,-5
1441193773233989,-8,-3,1,-2,1,-1,-1,-4
1441193773233989,2,7,3,-2,1,-2,-1,3
1441193773248208,-2,-6,-2,-1,-4,-3,-2,-1
1441193773248208,3,-4,2,2,-4,-1,-2,3
1441193773256234,2,12,-4,0,-2,1,-1,-3
1441193773256234,-3,-21,3,1,-1,-1,3,0
1441193773271216,2,8,4,1,-6,-3,-3,-1
1441193773271216,3,-7,-2,-6,-1,-1,-1,-2
1441193773271980,-8,6,-3,-2,0,-3,2,-3
1441193773271980,-1,9,3,4,-1,-1,-1,2
1441193773302192,-1,-34,-5,-3,0,4,3,0
1441193773302192,-2,33,3,2,-1,-3,-4,-4
1441193773302984,-3,-28,1,-1,-3,0,-5,0
1441193773302984,2,23,-2,-1,1,0,-3,0
1441193773307985,1,5,0,-4,0,-2,-4,-4
1441193773307985,-2,1,1,-1,-4,0,-1,-1
1441193773316185,3,-4,-3,-4,0,-2,2,3
1441193773316185,-2,1,-4,0,-1,-3,1,-3
1441193773331197,-3,7,1,-3,1,-1,-2,0
1441193773331197,5,-14,1,1,0,-2,0,2
1441193773331986,-2,3,-3,1,0,-1,-1,-3
1441193773331986,0,8,-1,-1,0,2,1,2
1441193773354133,-8,-31,-3,-3,0,-1,1,-4
1441193773354133,12,14,0,5,0,-1,-3,2
1441193773354983,-8,-7,0,-4,5,4,4,-6
1441193773354983,2,4,3,0,-3,-4,-1,-13
1441193773377145,0,6,-1,-5,-4,2,0,3
1441193773377145,-5,-12,-4,3,1,2,0,-3
1441193773377986,4,0,-2,-1,-1,-1,-3,9
1441193773377986,0,-6,-2,-3,2,-2,-4,2
1441193773391154,2,5,1,-2,-5,-4,2,-4
1441193773391154,-1,-4,-1,0,-6,4,-2,8
1441193773391987,1,3,-1,-3,0,-1,-2,-3
