timestamp,roll,pitch,yaw
1441193757932692,-1.01723,-0.136333,-1.12049
1441193757949678,-1.01558,-0.136216,-1.12041
1441193757970679,-1.01759,-0.136557,-1.11929
1441193757996682,-1.01916,-0.137022,-1.11865
1441193758009681,-1.01825,-0.137291,-1.11841
1441193758030864,-1.01839,-0.137352,-1.11842
1441193758054804,-1.02023,-0.137227,-1.11868
1441193758100943,-1.0218,-0.137117,-1.11919
1441193758102685,-1.02321,-0.136827,-1.11992
1441193758113909,-1.02359,-0.136169,-1.12106
1441193758129686,-1.02485,-0.135171,-1.12213
1441193758151686,-1.02603,-0.1344,-1.1234
1441193758173885,-1.0269,-0.133334,-1.12474
1441193758210846,-1.02829,-0.132191,-1.12593
1441193758220692,-1.02885,-0.130988,-1.12708
1441193758233905,-1.02876,-0.129466,-1.12821
1441193758248721,-1.0287,-0.127983,-1.12899
1441193758271694,-1.02891,-0.126567,-1.12964
1441193758293916,-1.02886,-0.125532,-1.13018
1441193758308848,-1.02845,-0.124756,-1.13064
1441193758330896,-1.02887,-0.12449,-1.13092
1441193758353931,-1.02964,-0.124405,-1.13102
1441193758368870,-1.03032,-0.124563,-1.13081
1441193758391694,-1.03051,-0.124581,-1.13034
1441193758413918,-1.03068,-0.124972,-1.13002
1441193758428691,-1.03068,-0.124972,-1.13002
1441193758450914,-1.03175,-0.125128,-1.12991
1441193758473836,-1.03189,-0.125189,-1.12993
1441193758488912,-1.03189,-0.125189,-1.12993
1441193758511736,-1.032,-0.125276,-1.12991
1441193758533888,-1.03214,-0.125181,-1.13018
1441193758548897,-1.03208,-0.124858,-1.13101
1441193758571696,-1.03177,-0.124543,-1.1316
1441193758594695,-1.0318,-0.124206,-1.13213
1441193758608818,-1.03183,-0.123869,-1.13266
1441193758631703,-1.0312,-0.123704,-1.13307
1441193758654696,-1.0307,-0.12368,-1.13361
1441193758668698,-1.03089,-0.12366,-1.13419
1441193758691699,-1.03097,-0.123572,-1.13426
1441193758713924,-1.03103,-0.123702,-1.13473
1441193758728916,-1.0301,-0.123733,-1.1351
1441193758751741,-1.02936,-0.12377,-1.13554
1441193758773923,-1.02936,-0.12377,-1.13554
1441193758788922,-1.02936,-0.12377,-1.13554
1441193758811777,-1.02895,-0.123934,-1.13567
1441193758833935,-1.02869,-0.124023,-1.13554
1441193758847945,-1.02816,-0.1242,-1.13528
1441193758871704,-1.0278,-0.124256,-1.13531
1441193758893846,-1.0278,-0.124256,-1.13531
1441193758907903,-1.028,-0.124174,-1.13525
1441193758931701,-1.02775,-0.124026,-1.13525
1441193758953926,-1.02786,-0.124113,-1.13524
1441193758967932,-1.02786,-0.124113,-1.13524
1441193758990896,-1.028,-0.124174,-1.13525
1441193759006706,-1.028,-0.124018,-1.1355
1441193759027942,-1.02805,-0.123957,-1.13555
1441193759050950,-1.02819,-0.124018,-1.13556
1441193759066704,-1.02819,-0.124018,-1.13556
1441193759088701,-1.02819,-0.124018,-1.13556
1441193759111791,-1.02819,-0.124018,-1.13556
1441193759126705,-1.02819,-0.124018,-1.13556
1441193759147961,-1.02827,-0.12393,-1.13563
1441193759171709,-1.0284,-0.12399,-1.13564
1441193759186710,-1.0284,-0.12399,-1.13564
1441193759209711,-1.02839,-0.123936,-1.1355
1441193759232712,-1.02839,-0.123936,-1.1355
1441193759253973,-1.02839,-0.123936,-1.1355
1441193759269705,-1.02839,-0.123936,-1.1355
1441193759292744,-1.0285,-0.124023,-1.13548
1441193759306711,-1.02839,-0.123936,-1.1355
1441193759329731,-1.02845,-0.123793,-1.13542
1441193759352713,-1.02845,-0.123793,-1.13542
1441193759373917,-1.02845,-0.123793,-1.13542
1441193759389753,-1.02859,-0.123854,-1.13543
1441193759412714,-1.02859,-0.123854,-1.13543
1441193759433905,-1.02864,-0.123793,-1.13548
1441193759449710,-1.02878,-0.123853,-1.13549
1441193759472716,-1.02878,-0.123853,-1.13549
1441193759494716,-1.02877,-0.123799,-1.13534
1441193759509718,-1.02877,-0.123799,-1.13534
1441193759532713,-1.02891,-0.123859,-1.13535
1441193759553890,-1.02898,-0.123771,-1.13543
1441193759569716,-1.02898,-0.123771,-1.13543
1441193759592714,-1.02895,-0.123798,-1.1354
1441193759613926,-1.02909,-0.123859,-1.13541
1441193759629785,-1.02909,-0.123859,-1.13541
1441193759652732,-1.02916,-0.123716,-1.13534
1441193759673921,-1.0293,-0.123777,-1.13535
1441193759689720,-1.0293,-0.123777,-1.13535
1441193759712717,-1.0293,-0.123777,-1.13535
1441193759733917,-1.02927,-0.123804,-1.13532
1441193759749716,-1.02941,-0.123864,-1.13533
1441193759772717,-1.02941,-0.123864,-1.13533
1441193759795721,-1.02948,-0.123776,-1.13541
1441193759809722,-1.02948,-0.123776,-1.13541
1441193759831721,-1.02948,-0.123776,-1.13541
1441193759854721,-1.02947,-0.123722,-1.13526
1441193759869738,-1.02947,-0.123722,-1.13526
1441193759891724,-1.02955,-0.123634,-1.13533
1441193759915723,-1.02955,-0.123634,-1.13533
1441193759929784,-1.02955,-0.123634,-1.13533
1441193759951724,-1.02969,-0.123694,-1.13534
1441193759974723,-1.02969,-0.123694,-1.13534
1441193759989722,-1.02969,-0.123694,-1.13534
1441193760011729,-1.02969,-0.123694,-1.13534
1441193760035725,-1.02975,-0.123552,-1.13527
1441193760049724,-1.02986,-0.123639,-1.13525
1441193760071728,-1.02986,-0.123639,-1.13525
1441193760094765,-1.02986,-0.123639,-1.13525
1441193760109725,-1.02994,-0.123551,-1.13532
1441193760131725,-1.02994,-0.123551,-1.13532
1441193760154727,-1.03008,-0.123612,-1.13534
1441193760169729,-1.03006,-0.123557,-1.13519
1441193760191727,-1.03006,-0.123557,-1.13519
1441193760215729,-1.03014,-0.123469,-1.13526
1441193760229727,-1.03011,-0.123496,-1.13523
1441193760251731,-1.03025,-0.123557,-1.13525
1441193760275730,-1.03025,-0.123557,-1.13525
1441193760289727,-1.03025,-0.123557,-1.13525
1441193760311728,-1.03025,-0.123557,-1.13525
1441193760334730,-1.03033,-0.123469,-1.13532
1441193760349732,-1.03033,-0.123469,-1.13532
1441193760371734,-1.03031,-0.123414,-1.13517
1441193760394731,-1.03031,-0.123414,-1.13517
1441193760416736,-1.03031,-0.123414,-1.13517
1441193760431731,-1.03045,-0.123475,-1.13518
1441193760454735,-1.03053,-0.123387,-1.13525
1441193760476734,-1.03053,-0.123387,-1.13525
1441193760491733,-1.03053,-0.123387,-1.13525
1441193760514855,-1.03052,-0.123332,-1.13511
1441193760535976,-1.03059,-0.123244,-1.13518
1441193760551734,-1.03059,-0.123244,-1.13518
1441193760574738,-1.03071,-0.123331,-1.13516
1441193760596733,-1.03071,-0.123331,-1.13516
1441193760611738,-1.03071,-0.123331,-1.13516
1441193760634737,-1.03092,-0.123304,-1.13525
1441193760656735,-1.03091,-0.123249,-1.1351
1441193760671737,-1.03091,-0.123249,-1.1351
1441193760694747,-1.03059,-0.123244,-1.13518
1441193760716739,-1.03046,-0.123183,-1.13517
1441193760730967,-1.03046,-0.123183,-1.13517
1441193760745824,-1.03053,-0.123095,-1.13524
1441193760767989,-1.03067,-0.123156,-1.13525
1441193760790976,-1.03067,-0.123156,-1.13525
1441193760805849,-1.03067,-0.123156,-1.13525
1441193760827989,-1.03067,-0.123156,-1.13525
1441193760850967,-1.03034,-0.123096,-1.13518
1441193760865819,-1.03034,-0.123096,-1.13518
1441193760887962,-1.03034,-0.123096,-1.13518
1441193760910894,-1.03023,-0.123008,-1.1352
1441193760925825,-1.03023,-0.123008,-1.1352
1441193760947854,-1.03023,-0.123008,-1.1352
1441193760971751,-1.03023,-0.123008,-1.1352
1441193760985917,-1.03037,-0.123069,-1.13521
1441193761009732,-1.03037,-0.123069,-1.13521
1441193761030894,-1.03031,-0.12292,-1.13527
1441193761045748,-1.03031,-0.12292,-1.13527
1441193761071366,-1.03042,-0.123008,-1.13525
1441193761090843,-1.03031,-0.12292,-1.13527
1441193761105886,-1.02986,-0.122718,-1.13507
1441193761127988,-1.03061,-0.123162,-1.13506
1441193761151748,-1.03094,-0.123716,-1.13503
1441193761165816,-1.03,-0.12433,-1.13543
1441193761188745,-1.02942,-0.124685,-1.13592
1441193761211000,-1.03046,-0.125162,-1.13581
1441193761225816,-1.03428,-0.126114,-1.13459
1441193761248004,-1.04368,-0.127856,-1.13362
1441193761271749,-1.05174,-0.128691,-1.13361
1441193761285890,-1.05549,-0.129639,-1.13426
1441193761307857,-1.05575,-0.129691,-1.13466
1441193761331757,-1.05265,-0.12951,-1.13482
1441193761345754,-1.05025,-0.129829,-1.13492
1441193761367993,-1.05026,-0.129774,-1.13376
1441193761390945,-1.05225,-0.130667,-1.13251
1441193761405928,-1.05393,-0.131443,-1.13226
1441193761427752,-1.05414,-0.131867,-1.13157
1441193761450957,-1.05315,-0.132725,-1.13062
1441193761465780,-1.05175,-0.133598,-1.13005
1441193761487971,-1.05107,-0.134379,-1.12992
1441193761510756,-1.05141,-0.135085,-1.12964
1441193761525811,-1.05075,-0.135562,-1.129
1441193761547782,-1.0489,-0.135781,-1.129
1441193761570975,-1.04703,-0.135737,-1.12897
1441193761585846,-1.04672,-0.136055,-1.12801
1441193761608754,-1.04898,-0.137487,-1.12706
1441193761630976,-1.05207,-0.138571,-1.12637
1441193761645816,-1.05284,-0.139521,-1.12574
1441193761667998,-1.05146,-0.140148,-1.12584
1441193761690959,-1.04941,-0.140301,-1.12616
1441193761706758,-1.04769,-0.138965,-1.12689
1441193761728024,-1.04699,-0.136135,-1.12737
1441193761750792,-1.04878,-0.134355,-1.12803
1441193761767754,-1.05222,-0.134739,-1.12991
1441193761788848,-1.05093,-0.135533,-1.1301
1441193761810896,-1.05199,-0.137034,-1.12531
1441193761825756,-1.05978,-0.138674,-1.12146
1441193761847758,-1.06759,-0.140156,-1.1201
1441193761872757,-1.06622,-0.141863,-1.1201
1441193761885760,-1.06221,-0.144448,-1.12053
1441193761907989,-1.05846,-0.146019,-1.12093
1441193761930761,-1.0547,-0.146133,-1.12181
1441193761945932,-1.05478,-0.145255,-1.12317
1441193761968045,-1.05567,-0.144995,-1.12444
1441193761984820,-1.05078,-0.14514,-1.12564
1441193762005983,-1.04528,-0.144882,-1.12739
1441193762028766,-1.04387,-0.143946,-1.12937
1441193762044765,-1.04575,-0.142889,-1.13119
1441193762065917,-1.04835,-0.14205,-1.13296
1441193762087968,-1.04862,-0.141391,-1.13478
1441193762104780,-1.04676,-0.14084,-1.13606
1441193762125794,-1.04467,-0.140515,-1.13646
1441193762148018,-1.04298,-0.140554,-1.13661
1441193762164773,-1.04192,-0.14075,-1.13635
1441193762185772,-1.04192,-0.14075,-1.13635
1441193762208015,-1.04187,-0.140949,-1.13657
1441193762224766,-1.04192,-0.140888,-1.13662
1441193762245916,-1.04175,-0.140554,-1.13709
1441193762267877,-1.04208,-0.140031,-1.13713
1441193762284785,-1.04144,-0.139234,-1.13737
1441193762305936,-1.04016,-0.138371,-1.13762
1441193762327966,-1.03831,-0.137644,-1.13797
1441193762344792,-1.03708,-0.137011,-1.13828
1441193762365771,-1.03694,-0.13695,-1.13827
1441193762388003,-1.03696,-0.136731,-1.13788
1441193762404766,-1.03702,-0.136605,-1.13728
1441193762425821,-1.03716,-0.136666,-1.13729
1441193762447985,-1.03716,-0.136666,-1.13729
1441193762464771,-1.03718,-0.136447,-1.1369
1441193762485770,-1.03732,-0.136508,-1.13691
1441193762507980,-1.03729,-0.136535,-1.13688
1441193762524775,-1.03732,-0.136079,-1.13662
1441193762545926,-1.03793,-0.135833,-1.13643
1441193762567991,-1.03787,-0.135547,-1.13622
1441193762584776,-1.03787,-0.135547,-1.13622
1441193762605775,-1.03787,-0.135547,-1.13622
1441193762627996,-1.03808,-0.13552,-1.13631
1441193762644774,-1.03808,-0.13552,-1.13631
1441193762666775,-1.03808,-0.13552,-1.13631
1441193762687919,-1.03807,-0.135465,-1.13616
1441193762704775,-1.03807,-0.135465,-1.13616
1441193762726781,-1.03807,-0.135465,-1.13616
1441193762748801,-1.03829,-0.135438,-1.13624
1441193762764784,-1.03826,-0.135465,-1.13621
1441193762786781,-1.03826,-0.135465,-1.13621
1441193762808007,-1.03826,-0.135465,-1.13621
1441193762824779,-1.0384,-0.135526,-1.13623
1441193762846782,-1.0382,-0.135745,-1.13656
1441193762868778,-1.03827,-0.135657,-1.13663
1441193762884778,-1.03826,-0.135602,-1.13648
1441193762906782,-1.03837,-0.13569,-1.13647
1441193762928029,-1.03837,-0.13569,-1.13647
1441193762944829,-1.03805,-0.135821,-1.13682
1441193762966780,-1.03805,-0.135821,-1.13682
1441193762988780,-1.03805,-0.135821,-1.13682
1441193763004781,-1.03804,-0.135766,-1.13667
1441193763026786,-1.03818,-0.135827,-1.13668
1441193763048024,-1.03818,-0.135827,-1.13668
1441193763064829,-1.03791,-0.135761,-1.13681
1441193763086785,-1.03791,-0.135761,-1.13681
1441193763108002,-1.03791,-0.135761,-1.13681
1441193763124787,-1.03791,-0.135761,-1.13681
1441193763146788,-1.03791,-0.135761,-1.13681
1441193763167893,-1.03805,-0.135821,-1.13682
1441193763184788,-1.03813,-0.135734,-1.13689
1441193763206789,-1.03813,-0.135734,-1.13689
1441193763228804,-1.03788,-0.136216,-1.13707
1441193763244784,-1.03782,-0.136496,-1.13741
1441193763266790,-1.0379,-0.136409,-1.13748
1441193763288792,-1.03788,-0.136353,-1.13734
1441193763304806,-1.038,-0.136441,-1.13732
1441193763326790,-1.038,-0.136441,-1.13732
1441193763347992,-1.03763,-0.136342,-1.13761
1441193763364790,-1.03763,-0.136342,-1.13761
1441193763387791,-1.03763,-0.136342,-1.13761
1441193763408034,-1.03763,-0.136342,-1.13761
1441193763423907,-1.03763,-0.136342,-1.13761
1441193763446793,-1.03763,-0.136342,-1.13761
1441193763468836,-1.03724,-0.136424,-1.13762
1441193763484794,-1.03724,-0.136424,-1.13762
1441193763507794,-1.03724,-0.136424,-1.13762
1441193763528073,-1.03724,-0.136424,-1.13762
1441193763544819,-1.03724,-0.136424,-1.13762
1441193763566796,-1.03746,-0.136397,-1.1377
1441193763588055,-1.03735,-0.136512,-1.1376
1441193763603958,-1.03735,-0.136512,-1.1376
1441193763625950,-1.03735,-0.136512,-1.1376
1441193763648952,-1.03743,-0.136424,-1.13767
1441193763664826,-1.03743,-0.136424,-1.13767
1441193763686042,-1.03743,-0.136424,-1.13767
1441193763708857,-1.03743,-0.136424,-1.13767
1441193763725802,-1.03757,-0.136485,-1.13768
1441193763746058,-1.03757,-0.136485,-1.13768
1441193763768948,-1.03757,-0.136485,-1.13768
1441193763785798,-1.03757,-0.136485,-1.13768
1441193763806058,-1.03757,-0.136485,-1.13768
1441193763828973,-1.03755,-0.13643,-1.13754
1441193763844798,-1.03763,-0.136342,-1.13761
1441193763866046,-1.03763,-0.136342,-1.13761
1441193763888973,-1.03763,-0.136342,-1.13761
1441193763904802,-1.03777,-0.136403,-1.13762
1441193763925961,-1.03782,-0.136342,-1.13767
1441193763948966,-1.03781,-0.136287,-1.13752
1441193763964874,-1.03781,-0.136287,-1.13752
1441193763986044,-1.03781,-0.136287,-1.13752
1441193764008991,-1.03781,-0.136287,-1.13752
1441193764025803,-1.03795,-0.136348,-1.13753
1441193764046059,-1.03802,-0.13626,-1.1376
1441193764068933,-1.03802,-0.13626,-1.1376
1441193764084850,-1.03802,-0.13626,-1.1376
1441193764106046,-1.03802,-0.13626,-1.1376
1441193764128844,-1.03801,-0.136205,-1.13745
1441193764144854,-1.03809,-0.136117,-1.13752
1441193764166056,-1.03809,-0.136117,-1.13752
1441193764189803,-1.03809,-0.136117,-1.13752
1441193764204804,-1.0378,-0.135793,-1.13761
1441193764226807,-1.03788,-0.135705,-1.13769
1441193764248939,-1.03788,-0.135705,-1.13769
1441193764264887,-1.03798,-0.135738,-1.13752
1441193764286085,-1.03805,-0.13565,-1.1376
1441193764308983,-1.0379,-0.135808,-1.13798
1441193764324810,-1.03797,-0.135721,-1.13805
1441193764346046,-1.03797,-0.135721,-1.13805
1441193764368907,-1.03811,-0.135782,-1.13806
1441193764384810,-1.03768,-0.135341,-1.13799
1441193764406060,-1.03768,-0.135341,-1.13799
1441193764428809,-1.03781,-0.135402,-1.138
1441193764444809,-1.03838,-0.134909,-1.13827
1441193764465968,-1.0385,-0.134468,-1.13837
1441193764488944,-1.03858,-0.134381,-1.13844
1441193764512810,-1.03857,-0.134326,-1.1383
1441193764525907,-1.03864,-0.134238,-1.13837
1441193764548869,-1.0382,-0.134381,-1.13833
1441193764564840,-1.03792,-0.13455,-1.13832
1441193764586054,-1.038,-0.134463,-1.13839
1441193764608980,-1.038,-0.134463,-1.13839
1441193764624817,-1.03764,-0.134226,-1.13841
1441193764647873,-1.03746,-0.13399,-1.13849
1441193764668832,-1.03746,-0.133496,-1.13858
1441193764684812,-1.0371,-0.132968,-1.13858
1441193764707822,-1.03666,-0.132664,-1.13878
1441193764728969,-1.03617,-0.13213,-1.13892
1441193764744818,-1.03557,-0.1318,-1.13909
1441193764767815,-1.03565,-0.131712,-1.13916
1441193764788998,-1.03565,-0.131712,-1.13916
1441193764804818,-1.03538,-0.131937,-1.1393
1441193764827818,-1.03535,-0.131964,-1.13928
1441193764848959,-1.03543,-0.131876,-1.13935
1441193764864820,-1.03543,-0.131876,-1.13935
1441193764887821,-1.03563,-0.131794,-1.13928
1441193764901821,-1.03556,-0.131882,-1.13921
1441193764924818,-1.03563,-0.131794,-1.13928
1441193764947823,-1.03563,-0.131794,-1.13928
1441193764961819,-1.03563,-0.131794,-1.13928
1441193764984818,-1.03571,-0.131707,-1.13936
1441193765007820,-1.03571,-0.131707,-1.13936
1441193765021820,-1.03529,-0.131476,-1.13918
1441193765043822,-1.03496,-0.131433,-1.13859
1441193765067880,-1.03417,-0.131633,-1.13755
1441193765082821,-1.0332,-0.131476,-1.13683
1441193765104822,-1.03229,-0.131498,-1.13671
1441193765127840,-1.03212,-0.131417,-1.13653
1441193765148827,-1.03219,-0.131329,-1.13661
1441193765164823,-1.03271,-0.131098,-1.13672
1441193765187829,-1.03278,-0.130955,-1.13664
1441193765208985,-1.03254,-0.130706,-1.13704
1441193765224829,-1.03277,-0.130288,-1.13751
1441193765247828,-1.03282,-0.130071,-1.13781
1441193765269036,-1.033,-0.129714,-1.13824
1441193765284828,-1.03299,-0.129659,-1.13809
1441193765307826,-1.03307,-0.129571,-1.13816
1441193765328960,-1.03315,-0.129365,-1.13744
1441193765344830,-1.03326,-0.129453,-1.13743
1441193765367829,-1.03326,-0.129453,-1.13743
1441193765388831,-1.03326,-0.129453,-1.13743
1441193765404831,-1.03333,-0.129365,-1.1375
1441193765427832,-1.03333,-0.129365,-1.1375
1441193765448928,-1.03382,-0.129298,-1.13785
1441193765464840,-1.03399,-0.129022,-1.1384
1441193765486829,-1.03418,-0.128867,-1.13871
1441193765508988,-1.03426,-0.128625,-1.13904
1441193765524832,-1.03434,-0.128537,-1.13911
1441193765546836,-1.03434,-0.128537,-1.13911
1441193765569885,-1.03434,-0.128537,-1.13911
1441193765584831,-1.03434,-0.128537,-1.13911
1441193765606834,-1.03442,-0.128449,-1.13918
1441193765630854,-1.0344,-0.128394,-1.13903
1441193765644831,-1.0344,-0.128394,-1.13903
1441193765666833,-1.0344,-0.128394,-1.13903
1441193765689863,-1.03448,-0.128306,-1.1391
1441193765704838,-1.03462,-0.128367,-1.13911
1441193765726839,-1.03462,-0.128367,-1.13911
1441193765749835,-1.03461,-0.128312,-1.13897
1441193765763949,-1.03466,-0.128252,-1.13901
1441193765786835,-1.03466,-0.128252,-1.13901
1441193765809836,-1.03466,-0.128252,-1.13901
1441193765823937,-1.03473,-0.128164,-1.13909
1441193765846842,-1.03487,-0.128225,-1.1391
1441193765869839,-1.03486,-0.12817,-1.13895
1441193765884836,-1.03494,-0.128082,-1.13902
1441193765906837,-1.03522,-0.127758,-1.13928
1441193765929838,-1.03542,-0.127367,-1.13973
1441193765944862,-1.03585,-0.127104,-1.14
1441193765966843,-1.03585,-0.127104,-1.14
1441193765990863,-1.03571,-0.127043,-1.13999
1441193766004840,-1.03578,-0.126955,-1.14007
1441193766026840,-1.03568,-0.126713,-1.14033
1441193766049840,-1.0358,-0.12641,-1.14071
1441193766071082,-1.0358,-0.12641,-1.14071
1441193766086842,-1.03588,-0.126323,-1.14078
1441193766109845,-1.03588,-0.126323,-1.14078
1441193766131887,-1.0361,-0.125714,-1.14084
1441193766146846,-1.03639,-0.124896,-1.1412
1441193766169900,-1.03681,-0.124188,-1.14171
1441193766191095,-1.0397,-0.123795,-1.14248
1441193766206846,-1.05025,-0.123602,-1.14558
1441193766229845,-1.06714,-0.123575,-1.14969
1441193766251069,-1.09431,-0.125669,-1.15254
1441193766266860,-1.13328,-0.127823,-1.15628
1441193766289849,-1.17405,-0.124819,-1.16622
1441193766311133,-1.20932,-0.117155,-1.17918
1441193766326849,-1.24209,-0.104505,-1.19191
1441193766350848,-1.27496,-0.0897056,-1.20574
1441193766371852,-1.29757,-0.0679378,-1.21941
1441193766386852,-1.3107,-0.043186,-1.23669
1441193766409851,-1.32415,-0.0187497,-1.25883
1441193766431121,-1.34544,0.00702315,-1.28315
1441193766446852,-1.36803,0.032715,-1.3094
1441193766469851,-1.38541,0.0572646,-1.33578
1441193766482867,-1.39348,0.0796141,-1.35988
1441193766506855,-1.39893,0.0977827,-1.38204
1441193766521000,-1.40169,0.110916,-1.40609
1441193766542961,-1.39932,0.121462,-1.43275
1441193766566117,-1.39523,0.132172,-1.46076
1441193766580852,-1.39735,0.143651,-1.48129
1441193766603156,-1.40871,0.152592,-1.49096
1441193766626060,-1.41528,0.156738,-1.49
1441193766640993,-1.41599,0.157886,-1.48193
1441193766662903,-1.40899,0.156623,-1.46985
1441193766686143,-1.39689,0.15443,-1.45576
1441193766700965,-1.38632,0.150843,-1.4421
1441193766723145,-1.38136,0.147038,-1.4297
1441193766746856,-1.3823,0.143578,-1.41929
1441193766760883,-1.38773,0.140817,-1.41083
1441193766783056,-1.3954,0.138327,-1.40364
1441193766806101,-1.40526,0.137037,-1.3977
1441193766820963,-1.41468,0.137516,-1.39293
1441193766843013,-1.42259,0.139145,-1.38987
1441193766866056,-1.43062,0.141591,-1.38845
1441193766880877,-1.43749,0.144322,-1.38807
1441193766903940,-1.443,0.146815,-1.38884
1441193766925940,-1.44749,0.149147,-1.38951
1441193766949862,-1.45094,0.151146,-1.39016
1441193766979008,-1.45265,0.152876,-1.39101
1441193767002861,-1.45132,0.154779,-1.39189
1441193767009051,-1.4499,0.155887,-1.39299
1441193767032859,-1.44943,0.155706,-1.3949
1441193767054860,-1.44829,0.154499,-1.39714
1441193767085935,-1.44763,0.152412,-1.3994
1441193767086863,-1.44825,0.149926,-1.40133
1441193767107863,-1.44817,0.147884,-1.40349
1441193767137865,-1.44646,0.146053,-1.40619
1441193767159863,-1.4452,0.144567,-1.40879
1441193767165867,-1.4457,0.142873,-1.41087
1441193767189866,-1.44864,0.141367,-1.41184
1441193767212895,-1.45216,0.139956,-1.41271
1441193767242877,-1.45439,0.139183,-1.41355
1441193767265863,-1.45558,0.138379,-1.41415
1441193767266904,-1.45733,0.137833,-1.41406
1441193767294903,-1.4591,0.137333,-1.41376
1441193767317868,-1.45981,0.136699,-1.41354
1441193767348031,-1.46053,0.135915,-1.41401
1441193767348865,-1.46276,0.134836,-1.41485
1441193767369865,-1.47396,0.132436,-1.41682
1441193767399869,-1.47675,0.127439,-1.41718
1441193767421885,-1.46909,0.124358,-1.41336
1441193767429012,-1.466,0.128741,-1.40566
1441193767452887,-1.476,0.133386,-1.39639
1441193767483870,-1.48514,0.137252,-1.3801
1441193767484869,-1.47234,0.14798,-1.35558
1441193767511148,-1.44391,0.163752,-1.32873
1441193767527949,-1.41584,0.164789,-1.32076
1441193767550871,-1.39214,0.134103,-1.33549
1441193767564871,-1.37744,0.103968,-1.36582
1441193767587870,-1.36387,0.0874834,-1.39899
1441193767602893,-1.35767,0.0742807,-1.43283
1441193767623111,-1.36165,0.0585794,-1.46135
1441193767646002,-1.35588,0.0449668,-1.47884
1441193767660872,-1.34681,0.0346608,-1.48987
1441193767683124,-1.34794,0.029527,-1.4969
1441193767706027,-1.35759,0.0265574,-1.50157
1441193767720931,-1.36548,0.0239181,-1.50626
1441193767759876,-1.36958,0.0207612,-1.51264
1441193767773928,-1.37207,0.0185876,-1.52147
1441193767797918,-1.37512,0.01843,-1.53108
1441193767812877,-1.37798,0.0182415,-1.54062
1441193767834010,-1.38333,0.0214472,-1.54717
1441193767849878,-1.38817,0.0265475,-1.55342
1441193767871119,-1.39319,0.0312107,-1.55927
1441193767887876,-1.39602,0.0273585,-1.56278
1441193767901876,-1.38976,0.0244469,-1.56935
1441193767924879,-1.39455,0.034035,-1.57318
1441193767946062,-1.39122,0.0267867,-1.57495
1441193767962908,-1.39665,0.0205434,-1.57452
1441193767984920,-1.40427,0.0306734,-1.57655
1441193767999880,-1.40751,0.0445867,-1.57828
1441193768022882,-1.41114,0.0571898,-1.5791
1441193768045881,-1.41885,0.0636422,-1.57928
1441193768066131,-1.4201,0.0541785,-1.57732
1441193768089114,-1.41215,0.0469325,-1.57578
1441193768104884,-1.41922,0.0598312,-1.57673
1441193768119944,-1.40925,0.0450534,-1.57507
1441193768142882,-1.41711,0.0592715,-1.57562
1441193768164885,-1.40866,0.0450409,-1.57412
1441193768186887,-1.41953,0.0525884,-1.57484
1441193768202882,-1.4167,0.0576326,-1.57498
1441193768224883,-1.40455,0.0427639,-1.5739
1441193768246170,-1.40564,0.0350703,-1.57345
1441193768262924,-1.417,0.0422923,-1.5738
1441193768285886,-1.42699,0.0544578,-1.57489
1441193768306130,-1.43215,0.065887,-1.57581
1441193768322887,-1.43423,0.0756667,-1.57665
1441193768344885,-1.4381,0.085636,-1.57775
1441193768367924,-1.44581,0.0971912,-1.57924
1441193768382883,-1.45602,0.107689,-1.58103
1441193768404888,-1.46114,0.10847,-1.58262
1441193768426891,-1.45434,0.0949689,-1.5831
1441193768442887,-1.44217,0.0835707,-1.58313
1441193768464890,-1.4474,0.0930495,-1.58471
1441193768486138,-1.45403,0.094265,-1.5867
1441193768502889,-1.43922,0.0801881,-1.58712
1441193768524889,-1.44653,0.092259,-1.58857
1441193768546125,-1.44283,0.0819047,-1.58872
1441193768562915,-1.44145,0.0863117,-1.5894
1441193768584891,-1.44252,0.0816754,-1.58985
1441193768606165,-1.43496,0.0817108,-1.58992
1441193768622970,-1.44079,0.0815692,-1.58977
1441193768644893,-1.43276,0.0772057,-1.589
1441193768674035,-1.44209,0.080876,-1.58876
1441193768682895,-1.42898,0.0724756,-1.58816
1441193768704956,-1.43894,0.0804491,-1.58823
1441193768752892,-1.43559,0.0773513,-1.58804
1441193768758896,-1.44942,0.0882091,-1.58796
1441193768764890,-1.43616,0.073324,-1.58653
1441193768779012,-1.43162,0.0723543,-1.58597
1441193768801894,-1.43177,0.0702082,-1.58332
1441193768823123,-1.43045,0.0685456,-1.58306
1441193768840898,-1.42981,0.0665905,-1.58303
1441193768861895,-1.42962,0.0649715,-1.5826
1441193768883145,-1.42841,0.0635374,-1.58208
1441193768898999,-1.42734,0.0624311,-1.58193
1441193768921900,-1.42979,0.0547665,-1.58029
1441193768943891,-1.43981,0.0633026,-1.5808
1441193768958957,-1.42676,0.0478943,-1.58062
1441193768981902,-1.43733,0.0607165,-1.58123
1441193769003140,-1.42455,0.0459833,-1.58107
1441193769019897,-1.43694,0.0582663,-1.58207
1441193769041902,-1.42248,0.0440053,-1.58227
1441193769063164,-1.43382,0.0561086,-1.58327
1441193769079899,-1.4192,0.0432643,-1.58347
1441193769101902,-1.422,0.0461863,-1.58354
1441193769132922,-1.4242,0.0509511,-1.58369
1441193769139024,-1.42372,0.0496013,-1.58439
1441193769161902,-1.42257,0.0489533,-1.5846
1441193769182905,-1.42187,0.0480758,-1.58505
1441193769206094,-1.42119,0.047686,-1.58548
1441193769228903,-1.42004,0.047039,-1.5857
1441193769244903,-1.42004,0.0468536,-1.58571
1441193769266071,-1.41981,0.0467976,-1.58572
1441193769282937,-1.41968,0.0465459,-1.58562
1441193769304907,-1.41958,0.0463708,-1.58576
1441193769325935,-1.41981,0.0454679,-1.58678
1441193769342931,-1.41878,0.044736,-1.5875
1441193769364904,-1.41694,0.0434403,-1.58792
1441193769386907,-1.41555,0.0418425,-1.58846
1441193769402974,-1.41519,0.0410672,-1.58864
1441193769424906,-1.4114,0.0423221,-1.59004
1441193769446105,-1.40831,0.0455988,-1.59301
1441193769462907,-1.40848,0.0492629,-1.59813
1441193769484913,-1.40726,0.0524421,-1.60451
1441193769506143,-1.40303,0.0558138,-1.61084
1441193769521912,-1.39653,0.0594899,-1.61542
1441193769544911,-1.39252,0.0635912,-1.61695
1441193769567907,-1.39517,0.0660918,-1.61552
1441193769581908,-1.40524,0.0649282,-1.61049
1441193769604914,-1.41505,0.0618827,-1.60262
1441193769627906,-1.41663,0.0595956,-1.59641
1441193769649050,-1.40765,0.0606666,-1.59508
1441193769664915,-1.39715,0.0656332,-1.59615
1441193769687913,-1.39515,0.0705437,-1.59725
1441193769701915,-1.40216,0.0733084,-1.59724
1441193769724943,-1.41083,0.0745421,-1.59528
1441193769747921,-1.41578,0.0755464,-1.5934
1441193769761916,-1.41532,0.0757591,-1.59292
1441193769784916,-1.41133,0.0749328,-1.59337
1441193769807960,-1.40767,0.0736262,-1.59397
1441193769821913,-1.40522,0.0721258,-1.5939
1441193769844914,-1.404,0.0704348,-1.5933
1441193769867914,-1.40423,0.068376,-1.59289
1441193769881919,-1.40426,0.0661562,-1.59275
1441193769904917,-1.40477,0.0643993,-1.59306
1441193769927919,-1.40766,0.0629245,-1.59348
1441193769941923,-1.40731,0.0620236,-1.59367
1441193769964932,-1.40715,0.0617114,-1.59282
1441193769987917,-1.40916,0.0614623,-1.59235
1441193770001920,-1.41266,0.0604235,-1.59297
1441193770024979,-1.42078,0.0587378,-1.59314
1441193770047921,-1.41599,0.0582898,-1.59291
1441193770069028,-1.41094,0.0593293,-1.59051
1441193770084921,-1.41597,0.0614603,-1.58644
1441193770107923,-1.4146,0.0630725,-1.58803
1441193770129034,-1.40787,0.0628789,-1.58999
1441193770144920,-1.39997,0.0660608,-1.59025
1441193770167930,-1.39039,0.0695869,-1.59258
1441193770189085,-1.3842,0.0728993,-1.59426
1441193770204963,-1.38025,0.0759418,-1.59532
1441193770227945,-1.38316,0.0792005,-1.5946
1441193770249065,-1.38403,0.0823212,-1.59139
1441193770265925,-1.38247,0.0822739,-1.58937
1441193770287926,-1.38209,0.0827137,-1.58812
1441193770309077,-1.38166,0.0829635,-1.58813
1441193770324963,-1.38365,0.0844051,-1.58869
1441193770347955,-1.38824,0.085648,-1.58951
1441193770369036,-1.39143,0.0871651,-1.59115
1441193770384927,-1.39144,0.0877609,-1.59299
1441193770407927,-1.3905,0.0881878,-1.59414
1441193770429067,-1.38848,0.0882151,-1.59411
1441193770444962,-1.38702,0.0875943,-1.59446
1441193770467929,-1.38699,0.0875491,-1.59397
1441193770489045,-1.38658,0.086988,-1.59314
1441193770504943,-1.38673,0.0862439,-1.59242
1441193770527932,-1.3857,0.0863884,-1.59185
1441193770549940,-1.38374,0.0873686,-1.59215
1441193770564928,-1.3839,0.0887949,-1.5917
1441193770587989,-1.38634,0.0896835,-1.59041
1441193770617949,-1.38592,0.0905479,-1.59039
1441193770624929,-1.38223,0.0920298,-1.59125
1441193770647933,-1.37825,0.0953462,-1.5913
1441193770669932,-1.37627,0.0980874,-1.58952
1441193770684986,-1.37778,0.0997204,-1.58887
1441193770707933,-1.37415,0.103041,-1.58902
1441193770729931,-1.36904,0.106721,-1.58823
1441193770744029,-1.3673,0.111711,-1.58634
1441193770767935,-1.369,0.116656,-1.58442
1441193770789936,-1.37172,0.121664,-1.58261
1441193770804935,-1.37045,0.127191,-1.58059
1441193770827963,-1.36919,0.131763,-1.57948
1441193770849937,-1.36898,0.137071,-1.57844
1441193770864137,-1.37093,0.141346,-1.57712
1441193770894110,-1.37288,0.145035,-1.5761
1441193770909935,-1.37362,0.148315,-1.5745
1441193770931166,-1.37438,0.15033,-1.57382
1441193770947934,-1.37444,0.152416,-1.57439
1441193770969938,-1.37677,0.153652,-1.57593
1441193770984938,-1.37873,0.154275,-1.57749
1441193771007939,-1.37949,0.153442,-1.57786
1441193771029937,-1.37955,0.151905,-1.57851
1441193771051148,-1.38032,0.149779,-1.58016
1441193771067938,-1.38303,0.147838,-1.58337
1441193771089941,-1.39099,0.14556,-1.58787
1441193771111169,-1.40868,0.144235,-1.59511
1441193771127942,-1.43081,0.143293,-1.60287
1441193771150943,-1.44439,0.14187,-1.60039
1441193771170943,-1.43855,0.1375,-1.58751
1441193771187943,-1.42185,0.130156,-1.57002
1441193771209946,-1.40421,0.119059,-1.55588
1441193771231215,-1.40141,0.106479,-1.55302
1441193771247944,-1.40485,0.103975,-1.55593
1441193771269947,-1.41319,0.106851,-1.55709
1441193771291945,-1.42527,0.107931,-1.55375
1441193771307943,-1.43147,0.105158,-1.54603
1441193771329946,-1.43172,0.102586,-1.5371
1441193771351182,-1.43029,0.0999121,-1.53067
1441193771367944,-1.43083,0.0927591,-1.52722
1441193771389947,-1.43841,0.0887899,-1.52993
1441193771411175,-1.44749,0.0889523,-1.53303
1441193771426948,-1.45471,0.0865666,-1.53308
1441193771450952,-1.45705,0.0826058,-1.53168
1441193771472949,-1.45384,0.0804267,-1.52984
1441193771486953,-1.45015,0.0777873,-1.52672
1441193771509951,-1.44611,0.0745289,-1.52185
1441193771532949,-1.44372,0.0717825,-1.51696
1441193771546947,-1.44115,0.0697254,-1.51541
1441193771569948,-1.44787,0.070273,-1.51762
1441193771592966,-1.46223,0.0714737,-1.51743
1441193771606948,-1.44197,0.0698027,-1.51635
1441193771629999,-1.42284,0.0635611,-1.51876
1441193771652949,-1.4154,0.0619436,-1.52776
1441193771666954,-1.41047,0.0666117,-1.53608
1441193771691015,-1.43451,0.0753271,-1.53474
1441193771712956,-1.4575,0.0809815,-1.52761
1441193771726950,-1.45081,0.0744442,-1.52691
1441193771749950,-1.42865,0.073891,-1.5287
1441193771772948,-1.4114,0.0781401,-1.52985
1441193771794070,-1.40458,0.0824824,-1.53185
1441193771809952,-1.40374,0.0891072,-1.53426
1441193771832952,-1.40504,0.0950065,-1.53568
1441193771854116,-1.40522,0.100173,-1.5373
1441193771869957,-1.40424,0.103655,-1.53879
1441193771892957,-1.40221,0.106023,-1.54022
1441193771906958,-1.4022,0.107674,-1.54163
1441193771929958,-1.40476,0.108915,-1.54225
1441193771952954,-1.40455,0.109752,-1.54198
1441193771974955,-1.4056,0.108058,-1.5414
1441193771989959,-1.40721,0.106309,-1.54312
1441193772012988,-1.4097,0.105817,-1.54586
1441193772034085,-1.41271,0.10458,-1.54849
1441193772049956,-1.41591,0.103593,-1.5521
1441193772073003,-1.42226,0.103643,-1.55647
1441193772094151,-1.43942,0.104819,-1.56226
1441193772116188,-1.45955,0.104307,-1.5659
1441193772132962,-1.47003,0.100515,-1.56479
1441193772154111,-1.46985,0.0943168,-1.55833
1441193772169963,-1.46265,0.0883733,-1.54845
1441193772192965,-1.45264,0.0841312,-1.53497
1441193772214095,-1.43968,0.0797726,-1.51994
1441193772229964,-1.42891,0.0747145,-1.50629
1441193772252988,-1.42372,0.0699519,-1.49596
1441193772258159,-1.42476,0.0675414,-1.48916
1441193772281018,-1.42984,0.0656695,-1.48413
1441193772295969,-1.43636,0.0616449,-1.48032
1441193772318198,-1.44231,0.0583364,-1.47815
1441193772341135,-1.44979,0.0600671,-1.478
1441193772356121,-1.45544,0.0621215,-1.47628
1441193772378183,-1.46186,0.061428,-1.47383
1441193772401059,-1.46623,0.0603575,-1.47168
1441193772416048,-1.46451,0.060364,-1.46984
1441193772438221,-1.461,0.0607594,-1.47013
1441193772460981,-1.45891,0.0602766,-1.471
1441193772476044,-1.45926,0.0603444,-1.47088
1441193772497980,-1.46019,0.0608984,-1.47002
1441193772521091,-1.45982,0.0612028,-1.47025
1441193772536108,-1.45852,0.0610771,-1.4725
1441193772560969,-1.46001,0.0599336,-1.47613
1441193772581102,-1.46882,0.0596813,-1.4789
1441193772596078,-1.46682,0.0603748,-1.47856
1441193772618162,-1.46185,0.0593022,-1.47881
1441193772641064,-1.4542,0.0556662,-1.48438
1441193772656001,-1.45319,0.0556254,-1.49501
1441193772678209,-1.4689,0.0616289,-1.50207
1441193772701002,-1.47777,0.0644194,-1.50853
1441193772716054,-1.48317,0.0651111,-1.51097
1441193772738206,-1.48045,0.0720709,-1.50686
1441193772761012,-1.46933,0.0755179,-1.50417
1441193772776076,-1.45877,0.0797887,-1.50553
1441193772798144,-1.44631,0.0856579,-1.50654
1441193772821022,-1.44808,0.0909914,-1.50676
1441193772836036,-1.45346,0.0948516,-1.50831
1441193772857975,-1.4533,0.0966372,-1.51066
1441193772880974,-1.45104,0.0989662,-1.51172
1441193772896031,-1.44943,0.101131,-1.51075
1441193772918261,-1.44891,0.101343,-1.50837
1441193772940976,-1.45005,0.100804,-1.50801
1441193772955987,-1.45401,0.100899,-1.50882
1441193772978214,-1.45764,0.101013,-1.51011
1441193773001169,-1.46178,0.101693,-1.51273
1441193773016979,-1.46702,0.104467,-1.51523
1441193773038279,-1.46756,0.103724,-1.51846
1441193773060988,-1.47386,0.0995476,-1.52148
1441193773076981,-1.48383,0.0948634,-1.52117
1441193773098207,-1.4886,0.0905848,-1.51701
1441193773121010,-1.48715,0.0874011,-1.51033
1441193773136982,-1.48101,0.0845011,-1.50106
1441193773158190,-1.4696,0.0795257,-1.49216
1441193773180981,-1.45719,0.0736745,-1.48334
1441193773200005,-1.4522,0.0681071,-1.47641
1441193773218240,-1.45371,0.063923,-1.47158
1441193773240981,-1.45682,0.0618178,-1.46854
1441193773256983,-1.45792,0.0607697,-1.46634
1441193773278180,-1.45845,0.0598035,-1.46379
1441193773302984,-1.4629,0.057456,-1.46028
1441193773316986,-1.46724,0.0554532,-1.45583
1441193773338223,-1.46874,0.055637,-1.45163
1441193773361086,-1.46994,0.057203,-1.44857
1441193773377986,-1.46947,0.056825,-1.44525
1441193773398233,-1.46867,0.0556896,-1.4417
1441193773420988,-1.46751,0.0551574,-1.43875
1441193773439022,-1.46688,0.0551921,-1.43657
1441193773458193,-1.4665,0.0551494,-1.4337
1441193773481084,-1.4681,0.0551534,-1.43173
1441193773501124,-1.46906,0.0548367,-1.43138
1441193773518203,-1.46853,0.0538965,-1.43416
1441193773540993,-1.47675,0.0536062,-1.43726
1441193773557989,-1.49201,0.0526636,-1.43929
1441193773578290,-1.47774,0.0521784,-1.44085
1441193773601134,-1.46104,0.0522769,-1.44426
1441193773617991,-1.46401,0.0519279,-1.45044
1441193773638225,-1.48377,0.0508921,-1.45198
1441193773660992,-1.49833,0.0566607,-1.44738
1441193773677991,-1.47941,0.0590975,-1.44679
1441193773698256,-1.46913,0.0587511,-1.44612
1441193773721015,-1.45872,0.0632845,-1.44652
1441193773738991,-1.45265,0.0683197,-1.44556
1441193773758256,-1.45087,0.0725054,-1.44663
1441193773781088,-1.44897,0.0763039,-1.44956
1441193773797995,-1.44478,0.0809762,-1.45183
1441193773818145,-1.44436,0.0836914,-1.45245
1441193773841314,-1.44478,0.0861153,-1.45157
1441193773863243,-1.44342,0.0857277,-1.44951
1441193773878240,-1.44197,0.0840203,-1.44912
1441193773895996,-1.4424,0.0830675,-1.45308
1441193773917993,-1.44538,0.0823431,-1.45653
1441193773938256,-1.44771,0.0808532,-1.45816
1441193773955993,-1.44708,0.0782154,-1.45883
1441193773979994,-1.44802,0.075483,-1.46249
1441193774000028,-1.4488,0.0748725,-1.46705
1441193774015997,-1.44856,0.0741431,-1.46941
1441193774037995,-1.44635,0.0744135,-1.47061
1441193774060066,-1.44451,0.0740346,-1.4709
1441193774076111,-1.44626,0.0728523,-1.4723
1441193774099000,-1.45309,0.0707536,-1.47374
1441193774119999,-1.46953,0.0674489,-1.47568
1441193774141069,-1.48983,0.0646991,-1.47848
1441193774158001,-1.50699,0.0630173,-1.48035
1441193774180010,-1.51679,0.0622762,-1.47735
1441193774201078,-1.51738,0.0619944,-1.46988
1441193774220003,-1.51149,0.0618564,-1.46007
1441193774240054,-1.50207,0.061092,-1.45229
1441193774261167,-1.4932,0.0560442,-1.4458
1441193774278004,-1.49269,0.0519129,-1.44091
1441193774300009,-1.49609,0.050566,-1.43641
1441193774321053,-1.49831,0.0505885,-1.43125
1441193774339002,-1.50033,0.0498238,-1.42597
1441193774361106,-1.50087,0.0478143,-1.42166
1441193774381276,-1.49966,0.0446673,-1.41819
1441193774398006,-1.50049,0.0425686,-1.41582
1441193774420006,-1.50347,0.0418271,-1.4141
1441193774441230,-1.50281,0.0411424,-1.41162
1441193774458006,-1.5007,0.0401184,-1.4079
1441193774480008,-1.49985,0.0373773,-1.40526
1441193774501258,-1.50822,0.0352335,-1.40476
1441193774518024,-1.51509,0.0340296,-1.40483
1441193774541007,-1.50189,0.0345089,-1.40403
1441193774561245,-1.49453,0.0355891,-1.40501
1441193774578005,-1.50588,0.0385294,-1.40858
1441193774600010,-1.50916,0.0400643,-1.4142
1441193774621280,-1.49611,0.0398906,-1.41888
1441193774638008,-1.47977,0.0428949,-1.42191
1441193774660011,-1.47685,0.0452861,-1.4267
1441193774681247,-1.48295,0.0480771,-1.43144
1441193774698012,-1.48271,0.0530509,-1.43512
1441193774720009,-1.48083,0.0567571,-1.43725
1441193774741254,-1.47973,0.0591158,-1.43975
1441193774758027,-1.47568,0.0611558,-1.44309
1441193774781035,-1.47084,0.0632601,-1.44586
1441193774795012,-1.46756,0.0657995,-1.44805
1441193774818046,-1.467,0.0681411,-1.44905
1441193774841014,-1.46705,0.0698288,-1.44959
1441193774861286,-1.4669,0.0690056,-1.45297
1441193774878010,-1.46976,0.0690082,-1.45595
1441193774900011,-1.47079,0.0691199,-1.4571
1441193774921260,-1.47302,0.0681346,-1.45826
1441193774938016,-1.47427,0.0682793,-1.45986
1441193774960016,-1.47552,0.0688731,-1.46206
1441193774981262,-1.4784,0.0700676,-1.46341
1441193774998017,-1.48107,0.0704439,-1.46467
1441193775020015,-1.48317,0.0700593,-1.46606
1441193775041271,-1.48659,0.0692167,-1.46664
1441193775058027,-1.49614,0.0691688,-1.46722
1441193775080020,-1.5081,0.0694205,-1.4676
1441193775101268,-1.51542,0.0705084,-1.4622
1441193775118040,-1.51332,0.0699304,-1.45395
1441193775140021,-1.50689,0.0682622,-1.44523
1441193775161231,-1.4963,0.0634826,-1.43948
1441193775178084,-1.48459,0.0548792,-1.43621
1441193775200018,-1.48087,0.0513742,-1.43599
1441193775221270,-1.48017,0.0510429,-1.43658
1441193775237019,-1.48059,0.0524595,-1.43608
1441193775261110,-1.48416,0.0556788,-1.43402
1441193775281268,-1.48705,0.0568451,-1.43076
1441193775304201,-1.48849,0.056209,-1.42767
1441193775320025,-1.48689,0.0561716,-1.42654
1441193775342144,-1.4819,0.0563518,-1.42762
1441193775357021,-1.47842,0.0567811,-1.4289
1441193775380023,-1.48452,0.0563813,-1.42976
1441193775403025,-1.4894,0.0556642,-1.42939
1441193775418065,-1.48529,0.0560727,-1.42839
1441193775440026,-1.48871,0.0577108,-1.42662
1441193775463020,-1.49682,0.0580063,-1.42726
1441193775477028,-1.49666,0.0574961,-1.42863
1441193775501032,-1.49465,0.0582472,-1.42807
1441193775523021,-1.49235,0.0590772,-1.42829
1441193775537024,-1.49357,0.0588856,-1.43081
1441193775560025,-1.49133,0.0600355,-1.43286
1441193775583025,-1.48835,0.0643251,-1.43166
1441193775597028,-1.48379,0.0675762,-1.4305
1441193775620030,-1.48453,0.0694226,-1.43105
1441193775643031,-1.4844,0.0727829,-1.43089
1441193775664152,-1.4802,0.0755351,-1.43041
1441193775680031,-1.47942,0.0780363,-1.42979
1441193775703026,-1.48013,0.0813803,-1.42941
1441193775717028,-1.48105,0.0835743,-1.42768
1441193775740032,-1.48227,0.0860742,-1.42229
1441193775763055,-1.47578,0.0886578,-1.41504
1441193775784229,-1.45934,0.0892093,-1.40705
1441193775800034,-1.4366,0.0888223,-1.39939
1441193775823030,-1.41672,0.0860977,-1.39235
1441193775844101,-1.39383,0.0819042,-1.38209
1441193775860031,-1.36741,0.0773934,-1.36671
1441193775889163,-1.33988,0.0733861,-1.35084
1441193775904188,-1.31423,0.0705013,-1.33807
1441193775920038,-1.29155,0.0706542,-1.32907
1441193775943098,-1.27275,0.0729288,-1.32261
1441193775964038,-1.25542,0.0762244,-1.31497
1441193775980034,-1.23992,0.078228,-1.30506
1441193776002178,-1.22801,0.0782467,-1.29409
1441193776024190,-1.21685,0.0761608,-1.28441
1441193776040035,-1.20576,0.0728101,-1.27602
1441193776063034,-1.19493,0.0683457,-1.26876
1441193776084206,-1.18612,0.0635444,-1.26142
1441193776100040,-1.18051,0.0574241,-1.25294
1441193776123035,-1.17589,0.0509611,-1.24497
1441193776144184,-1.16996,0.0461133,-1.23896
1441193776160038,-1.16572,0.0430554,-1.23553
1441193776184041,-1.16496,0.0417849,-1.23326
1441193776204091,-1.16573,0.0410951,-1.23035
1441193776219039,-1.16574,0.0397927,-1.22716
1441193776242083,-1.16345,0.0373913,-1.22446
1441193776265037,-1.15883,0.0345957,-1.22221
1441193776280037,-1.15341,0.0320056,-1.22023
1441193776303066,-1.14987,0.0282477,-1.21789
1441193776325040,-1.14829,0.02321,-1.21528
1441193776340039,-1.14649,0.0184691,-1.21315
1441193776364045,-1.14414,0.014759,-1.21214
1441193776385047,-1.14198,0.0119721,-1.21165
1441193776399040,-1.14144,0.00929172,-1.21144
1441193776422043,-1.14248,0.0060534,-1.2121
1441193776445042,-1.14382,0.00303862,-1.21307
1441193776459044,-1.14258,0.000662983,-1.21399
1441193776482195,-1.13972,-0.000932336,-1.21521
1441193776505043,-1.13726,-0.00347037,-1.21603
1441193776519042,-1.13632,-0.0061749,-1.21655
1441193776543045,-1.13472,-0.00842793,-1.21688
1441193776565047,-1.1318,-0.010233,-1.2171
1441193776579079,-1.12936,-0.0122034,-1.21709
1441193776603084,-1.12739,-0.0149397,-1.21609
1441193776625048,-1.12671,-0.0181712,-1.21482
1441193776639046,-1.12872,-0.0225096,-1.21332
1441193776663050,-1.13423,-0.0286585,-1.21253
1441193776686054,-1.1419,-0.0366548,-1.21343
1441193776707078,-1.14906,-0.044999,-1.21478
1441193776723093,-1.15216,-0.0506154,-1.21594
1441193776745051,-1.14914,-0.0528567,-1.21752
1441193776766266,-1.14468,-0.0531221,-1.22009
1441193776783060,-1.1438,-0.0528629,-1.22221
1441193776805053,-1.14533,-0.0531503,-1.22414
1441193776826257,-1.14625,-0.053277,-1.22607
1441193776843080,-1.14402,-0.0537303,-1.22787
1441193776865055,-1.13871,-0.0538886,-1.22873
1441193776886289,-1.13398,-0.053712,-1.22913
1441193776903097,-1.12992,-0.05328,-1.22857
1441193776926060,-1.1271,-0.0533549,-1.22839
1441193776946077,-1.12456,-0.0530576,-1.22822
1441193776963051,-1.12026,-0.0505678,-1.2283
1441193776985056,-1.11681,-0.0461324,-1.22885
1441193777008051,-1.11647,-0.0419083,-1.2299
1441193777022052,-1.11842,-0.0400198,-1.23135
1441193777045058,-1.11962,-0.0398601,-1.23392
1441193777066289,-1.11794,-0.0392323,-1.23645
1441193777083065,-1.11761,-0.038375,-1.23718
1441193777105056,-1.12072,-0.0383386,-1.23605
1441193777126284,-1.12365,-0.0389517,-1.23353
1441193777143058,-1.12432,-0.041825,-1.23062
1441193777165095,-1.12195,-0.045734,-1.22897
1441193777188098,-1.11614,-0.0478563,-1.22841
1441193777203058,-1.11099,-0.0487208,-1.22821
1441193777225061,-1.11103,-0.0494705,-1.22741
1441193777248058,-1.11234,-0.050296,-1.22639
1441193777263061,-1.11273,-0.0511547,-1.22532
1441193777285062,-1.11324,-0.0521786,-1.22401
1441193777308099,-1.11394,-0.0532846,-1.22239
1441193777323115,-1.1152,-0.0541547,-1.22131
1441193777345061,-1.11568,-0.0545533,-1.22056
1441193777368092,-1.11579,-0.054649,-1.22055
1441193777382060,-1.11667,-0.0557714,-1.22111
1441193777405063,-1.11868,-0.0568558,-1.22217
1441193777428076,-1.12302,-0.0580833,-1.22393
1441193777442061,-1.12989,-0.0591863,-1.22595
1441193777465068,-1.14018,-0.0608323,-1.23002
1441193777488061,-1.15545,-0.0633988,-1.23518
1441193777509138,-1.1721,-0.0649815,-1.24192
1441193777526065,-1.19125,-0.0661599,-1.24823
1441193777548061,-1.21509,-0.06737,-1.25415
1441193777569256,-1.24461,-0.0676198,-1.25763
1441193777585064,-1.28233,-0.0621132,-1.25699
1441193777607190,-1.32468,-0.0495024,-1.2548
1441193777629185,-1.36741,-0.032161,-1.25518
1441193777645067,-1.40805,-0.0117092,-1.26229
1441193777668064,-1.44117,0.00473954,-1.27707
1441193777689232,-1.46869,0.0201735,-1.2948
1441193777706067,-1.49187,0.0332468,-1.31113
1441193777727194,-1.5167,0.0411926,-1.32512
1441193777749221,-1.53607,0.0429607,-1.33792
1441193777765071,-1.53105,0.0440591,-1.34981
1441193777788100,-1.50352,0.0482321,-1.3645
1441193777809226,-1.50883,0.0583274,-1.36774
1441193777825069,-1.50378,0.0648299,-1.37415
1441193777848069,-1.49403,0.0662016,-1.38071
1441193777869224,-1.48411,0.0741765,-1.3869
1441193777885066,-1.47305,0.0808858,-1.39448
1441193777907209,-1.45995,0.0899358,-1.40113
1441193777929163,-1.4498,0.101602,-1.40618
1441193777945066,-1.44632,0.112807,-1.41021
1441193777968102,-1.44342,0.123612,-1.41474
1441193777989184,-1.44158,0.133387,-1.42014
1441193778005071,-1.43869,0.14206,-1.42544
1441193778028065,-1.43846,0.148076,-1.42957
1441193778049182,-1.44033,0.151699,-1.43248
1441193778056069,-1.44222,0.153415,-1.43448
1441193778073070,-1.44468,0.153601,-1.43604
1441193778093355,-1.44809,0.153128,-1.43809
1441193778116069,-1.45222,0.152488,-1.44084
1441193778131121,-1.46012,0.152267,-1.44522
1441193778153299,-1.47598,0.154139,-1.45132
1441193778176071,-1.49154,0.156197,-1.45349
1441193778191102,-1.49675,0.154368,-1.44867
1441193778213345,-1.49359,0.149883,-1.43949
1441193778236071,-1.4874,0.145284,-1.42509
1441193778251079,-1.47823,0.139365,-1.41027
1441193778273225,-1.46562,0.132643,-1.39907
1441193778296110,-1.45809,0.12465,-1.39314
1441193778311091,-1.45952,0.115943,-1.39005
1441193778333350,-1.46546,0.109249,-1.38836
1441193778356072,-1.46771,0.106756,-1.38739
1441193778373073,-1.46737,0.106534,-1.38716
1441193778393344,-1.47015,0.106832,-1.38832
1441193778416074,-1.47317,0.105863,-1.39084
1441193778431073,-1.47386,0.104093,-1.3939
1441193778453350,-1.47491,0.10252,-1.39676
1441193778476074,-1.47698,0.100225,-1.39793
1441193778491096,-1.48217,0.097983,-1.39686
1441193778513285,-1.47627,0.0959125,-1.39614
1441193778536155,-1.47342,0.0947925,-1.3985
1441193778551072,-1.47844,0.0959798,-1.40192
1441193778573074,-1.48516,0.0975329,-1.40404
1441193778596106,-1.48428,0.0971461,-1.40233
1441193778610303,-1.47271,0.0957788,-1.40132
1441193778633306,-1.47066,0.0954781,-1.40381
1441193778656074,-1.46691,0.0994143,-1.40636
1441193778671134,-1.46487,0.104659,-1.40516
1441193778693302,-1.46412,0.110121,-1.40375
1441193778716101,-1.46599,0.113599,-1.40386
1441193778732088,-1.46366,0.116015,-1.40564
1441193778753286,-1.46072,0.119165,-1.40809
1441193778776140,-1.46226,0.121966,-1.41016
1441193778792074,-1.4642,0.123727,-1.41041
1441193778813331,-1.46598,0.123396,-1.40964
1441193778836079,-1.4692,0.121935,-1.40856
1441193778852076,-1.47429,0.120771,-1.40785
1441193778873195,-1.48129,0.119226,-1.40765
1441193778896149,-1.48681,0.117807,-1.40572
1441193778912072,-1.4871,0.114906,-1.40139
1441193778941074,-1.48394,0.110286,-1.39191
1441193778956072,-1.47929,0.105546,-1.38044
1441193778972073,-1.47545,0.101909,-1.37143
1441193778993271,-1.47254,0.0986923,-1.36628
1441193779016075,-1.47086,0.0960794,-1.36528
1441193779032076,-1.47123,0.0940617,-1.36743
1441193779053277,-1.47345,0.0930578,-1.37171
1441193779076077,-1.47725,0.093081,-1.37667
1441193779093075,-1.4819,0.0934422,-1.38063
1441193779113303,-1.48504,0.0942836,-1.38382
1441193779136078,-1.48495,0.0939507,-1.3864
1441193779154130,-1.48573,0.0937179,-1.38822
1441193779173186,-1.48664,0.0933589,-1.38946
1441193779196078,-1.48516,0.093473,-1.39127
1441193779214077,-1.48386,0.093603,-1.39418
1441193779233307,-1.48338,0.093357,-1.39836
1441193779256084,-1.49309,0.0914346,-1.40087
1441193779273077,-1.49437,0.0910271,-1.40178
1441193779293079,-1.49072,0.0930708,-1.40206
1441193779316079,-1.48261,0.0927063,-1.40528
1441193779333077,-1.48561,0.0940366,-1.40938
1441193779353319,-1.49602,0.0977495,-1.40977
1441193779376099,-1.49156,0.0972809,-1.4081
1441193779393075,-1.48352,0.0958263,-1.40618
1441193779413338,-1.48372,0.0954376,-1.40368
1441193779436094,-1.48487,0.0969665,-1.40267
1441193779454077,-1.48178,0.0981474,-1.40172
1441193779473218,-1.4747,0.0993569,-1.40075
1441193779496090,-1.47324,0.10126,-1.39912
1441193779514079,-1.4752,0.102736,-1.39811
1441193779533210,-1.47301,0.103836,-1.39944
1441193779556132,-1.46886,0.106206,-1.40246
1441193779573076,-1.46739,0.109261,-1.40595
1441193779594100,-1.46863,0.112534,-1.40948
1441193779616080,-1.47048,0.115165,-1.41417
1441193779633079,-1.4734,0.11745,-1.4205
1441193779656088,-1.47722,0.118928,-1.42573
1441193779676081,-1.47791,0.11903,-1.42701
1441193779694077,-1.47618,0.118129,-1.42457
1441193779715080,-1.47321,0.116039,-1.41947
1441193779736129,-1.46976,0.11226,-1.41222
1441193779753080,-1.46477,0.108058,-1.40445
1441193779774144,-1.45667,0.104011,-1.39717
1441193779796149,-1.45171,0.100435,-1.39223
1441193779813082,-1.45003,0.0969631,-1.38766
1441193779835080,-1.45011,0.0929269,-1.38471
1441193779856083,-1.44966,0.0899905,-1.38253
1441193779873093,-1.44921,0.0887393,-1.38052
1441193779895081,-1.45095,0.0881269,-1.37897
1441193779916082,-1.45363,0.0887009,-1.37803
1441193779933083,-1.45543,0.0896821,-1.37823
1441193779955082,-1.45537,0.0903231,-1.37877
1441193779975311,-1.45636,0.0909395,-1.37944
1441193779993081,-1.46415,0.0904678,-1.38124
1441193780014093,-1.46835,0.0878435,-1.38265
1441193780036106,-1.46366,0.0873812,-1.38321
1441193780053082,-1.45963,0.0891401,-1.38521
1441193780076084,-1.46897,0.0916849,-1.38868
1441193780096126,-1.47505,0.094877,-1.39173
1441193780113082,-1.46771,0.0975546,-1.39288
1441193780136205,-1.45769,0.0989925,-1.39363
1441193780156084,-1.45657,0.100689,-1.39722
1441193780172081,-1.4607,0.103013,-1.40106
1441193780196236,-1.45946,0.106807,-1.40271
1441193780216248,-1.45331,0.109359,-1.4023
1441193780233080,-1.45076,0.109811,-1.40093
1441193780256101,-1.44994,0.110236,-1.40104
1441193780276311,-1.44975,0.110816,-1.40272
1441193780293083,-1.45303,0.112545,-1.40476
1441193780315088,-1.45613,0.114509,-1.40477
1441193780330082,-1.45976,0.114834,-1.40298
1441193780352187,-1.46614,0.115319,-1.39989
1441193780375086,-1.47079,0.116323,-1.39439
1441193780396086,-1.4721,0.116297,-1.38842
1441193780413086,-1.46968,0.113584,-1.38219
1441193780435089,-1.46619,0.108882,-1.37666
1441193780456372,-1.46275,0.102964,-1.37298
1441193780473086,-1.46055,0.0968541,-1.37193
1441193780495089,-1.45964,0.0912913,-1.37302
1441193780516315,-1.45919,0.0872524,-1.37558
1441193780532248,-1.4578,0.0847608,-1.37866
1441193780555083,-1.45729,0.0835077,-1.38163
1441193780576333,-1.45922,0.0828697,-1.38342
1441193780593087,-1.46174,0.08291,-1.38453
1441193780615088,-1.46221,0.0827783,-1.38476
1441193780637094,-1.46161,0.083033,-1.38476
1441193780653088,-1.46031,0.0834521,-1.38453
1441193780675088,-1.45939,0.0839936,-1.38351
1441193780696313,-1.45885,0.0845838,-1.38158
1441193780713086,-1.45776,0.0848063,-1.37968
1441193780735089,-1.45512,0.0851591,-1.37822
1441193780756334,-1.45218,0.0861273,-1.37731
1441193780773121,-1.45329,0.0871552,-1.3774
1441193780795088,-1.45374,0.0865185,-1.37842
1441193780816358,-1.45791,0.0857731,-1.3801
1441193780833087,-1.46238,0.0849958,-1.38337
1441193780855090,-1.46456,0.0854259,-1.38685
1441193780876322,-1.46984,0.0857614,-1.38898
1441193780893089,-1.47458,0.0879369,-1.3911
1441193780915090,-1.47515,0.0943271,-1.39297
1441193780936333,-1.47259,0.101717,-1.39278
1441193780952090,-1.46277,0.105131,-1.39447
1441193780975091,-1.45915,0.106491,-1.39228
1441193780998090,-1.45422,0.109819,-1.39232
1441193781012089,-1.45144,0.111895,-1.39307
1441193781035091,-1.44836,0.115908,-1.39369
1441193781058089,-1.44832,0.12024,-1.39306
1441193781073089,-1.45066,0.12404,-1.39135
1441193781096092,-1.44912,0.12535,-1.39088
1441193781117254,-1.4503,0.123905,-1.39294
1441193781133085,-1.44876,0.12294,-1.39679
1441193781155088,-1.44877,0.120247,-1.40136
1441193781178108,-1.4557,0.116537,-1.40544
1441193781199198,-1.46445,0.112311,-1.40783
1441193781215092,-1.47028,0.109047,-1.40825
1441193781245089,-1.47131,0.106879,-1.40748
1441193781259167,-1.46699,0.105197,-1.40381
1441193781275089,-1.46079,0.102953,-1.39719
1441193781305089,-1.45508,0.0999716,-1.38965
1441193781319224,-1.44969,0.0960123,-1.3824
1441193781335088,-1.44481,0.0917034,-1.37633
1441193781358087,-1.4399,0.0871246,-1.37233
1441193781379154,-1.43565,0.0824696,-1.3704
1441193781395093,-1.43265,0.0794669,-1.36943
1441193781418093,-1.43142,0.0777045,-1.36897
1441193781439181,-1.43153,0.0765019,-1.36822
1441193781455094,-1.43277,0.0761264,-1.36733
1441193781477179,-1.4368,0.0765644,-1.36666
1441193781499277,-1.44376,0.0762327,-1.36714
1441193781515095,-1.44255,0.0752033,-1.36754
1441193781538092,-1.44147,0.0764454,-1.36627
1441193781559103,-1.44472,0.0786917,-1.36536
1441193781575091,-1.4469,0.0804837,-1.36608
1441193781598089,-1.44343,0.0820493,-1.36819
1441193781619173,-1.4403,0.0830592,-1.37167
1441193781635095,-1.43897,0.0809233,-1.3712
1441193781657163,-1.43746,0.0787831,-1.36681
1441193781679117,-1.43565,0.0772216,-1.36165
1441193781695098,-1.4337,0.0759594,-1.35837
1441193781718095,-1.43362,0.0756358,-1.35839
1441193781739192,-1.43723,0.0753967,-1.36022
1441193781755091,-1.45109,0.077887,-1.36276
1441193781778093,-1.4623,0.0787814,-1.36389
1441193781799134,-1.44813,0.0784651,-1.36535
1441193781815096,-1.44748,0.0821794,-1.37106
1441193781838094,-1.45843,0.0918313,-1.37627
1441193781859254,-1.46344,0.0959911,-1.37992
1441193781875094,-1.45591,0.0924586,-1.37986
1441193781898092,-1.45474,0.0933321,-1.37872
1441193781919182,-1.45922,0.09491,-1.37859
1441193781935095,-1.45728,0.0957446,-1.37912
1441193781958092,-1.45328,0.0978269,-1.38021
1441193781980097,-1.4573,0.10054,-1.38141
1441193781995098,-1.46494,0.102058,-1.38165
1441193782018097,-1.46962,0.104078,-1.38292
1441193782040098,-1.47061,0.105897,-1.38561
1441193782054140,-1.47102,0.107935,-1.38935
1441193782078091,-1.47069,0.110648,-1.39283
1441193782100097,-1.47149,0.112441,-1.39554
1441193782115096,-1.47532,0.112393,-1.39844
1441193782138096,-1.47789,0.112469,-1.3995
1441193782160093,-1.47675,0.112184,-1.39778
1441193782174094,-1.47126,0.110668,-1.39351
1441193782197237,-1.46373,0.106638,-1.38712
1441193782220099,-1.45671,0.100226,-1.37882
1441193782241366,-1.45069,0.0926226,-1.37055
1441193782258099,-1.44591,0.0857351,-1.36493
1441193782280094,-1.44239,0.080423,-1.36333
1441193782301386,-1.44083,0.0763774,-1.36327
1441193782318094,-1.44168,0.0735593,-1.3639
1441193782340097,-1.44433,0.0720551,-1.36426
1441193782354221,-1.44712,0.0716824,-1.36456
1441193782377175,-1.44923,0.0716398,-1.36442
1441193782400100,-1.45029,0.0720737,-1.36373
1441193782415098,-1.4499,0.0725903,-1.36371
1441193782438102,-1.44832,0.0733687,-1.36405
1441193782460144,-1.45212,0.0743336,-1.36565
1441193782481349,-1.45979,0.0737054,-1.36692
1441193782501090,-1.45673,0.0736647,-1.36728
1441193782520100,-1.4578,0.0768493,-1.36742
1441193782541278,-1.46214,0.0811395,-1.36818
1441193782558099,-1.46889,0.0850947,-1.37147
1441193782580101,-1.4652,0.0866539,-1.37547
1441193782601345,-1.45303,0.0870438,-1.37796
1441193782618136,-1.44434,0.0876073,-1.37644
1441193782640101,-1.44604,0.0900896,-1.374
1441193782661332,-1.44751,0.0936007,-1.37255
1441193782678102,-1.44432,0.0967271,-1.3725
1441193782700102,-1.44392,0.0998181,-1.37231
1441193782721356,-1.44555,0.102743,-1.37124
1441193782738096,-1.44463,0.102579,-1.37102
1441193782760098,-1.44408,0.0998854,-1.37108
1441193782781364,-1.44373,0.0961347,-1.37072
1441193782797274,-1.44422,0.092263,-1.36991
1441193782820098,-1.44514,0.0885916,-1.36978
1441193782841323,-1.44418,0.0862485,-1.37143
1441193782858101,-1.44163,0.0847611,-1.37316
1441193782880099,-1.43763,0.0831945,-1.37393
1441193782903103,-1.43279,0.081499,-1.37127
1441193782917128,-1.42883,0.0788544,-1.36606
1441193782940157,-1.42259,0.0742594,-1.35957
1441193782963099,-1.41211,0.0696043,-1.35202
1441193782977103,-1.40342,0.066398,-1.34537
1441193783000105,-1.39569,0.0639531,-1.34101
1441193783022180,-1.38699,0.0624239,-1.33914
1441193783037100,-1.37762,0.0618853,-1.33936
1441193783060105,-1.36944,0.0620863,-1.34018
1441193783083099,-1.36462,0.0629879,-1.34047
1441193783097105,-1.36211,0.0642578,-1.33927
1441193783120100,-1.36074,0.0659726,-1.33686
1441193783143100,-1.36146,0.0679101,-1.335
1441193783157104,-1.3628,0.0700135,-1.33424
1441193783180105,-1.36532,0.0713759,-1.33312
1441193783203101,-1.37595,0.0732275,-1.32976
1441193783224268,-1.38928,0.0769667,-1.32705
1441193783240106,-1.39426,0.0815283,-1.3264
1441193783263100,-1.40232,0.0873714,-1.32656
1441193783284224,-1.41161,0.0959892,-1.32774
1441193783300102,-1.41769,0.107478,-1.33066
1441193783323104,-1.42102,0.118361,-1.33418
1441193783344137,-1.43212,0.124855,-1.33573
1441193783360106,-1.43732,0.126443,-1.34008
1441193783383104,-1.43022,0.125669,-1.34124
1441193783404102,-1.41969,0.127871,-1.34092
1441193783420167,-1.41393,0.130732,-1.34227
1441193783443105,-1.41572,0.133978,-1.34519
1441193783464123,-1.41895,0.137179,-1.34715
1441193783480108,-1.41935,0.140501,-1.34719
1441193783503102,-1.41986,0.14208,-1.34695
1441193783524262,-1.4191,0.142572,-1.34804
1441193783540103,-1.41931,0.142178,-1.35018
1441193783570107,-1.42059,0.140586,-1.3529
1441193783584114,-1.42615,0.138366,-1.35736
1441193783600103,-1.43568,0.135613,-1.36211
1441193783623150,-1.44367,0.132048,-1.36551
1441193783644118,-1.44625,0.128592,-1.36636
1441193783660104,-1.44391,0.125209,-1.36402
1441193783683103,-1.43937,0.121373,-1.35887
1441193783704124,-1.43621,0.116947,-1.35324
1441193783720109,-1.43357,0.112439,-1.34789
1441193783742281,-1.43054,0.108268,-1.34366
1441193783764162,-1.42858,0.104633,-1.34144
1441193783780107,-1.42746,0.102109,-1.33963
1441193783803119,-1.42793,0.100775,-1.33935
1441193783824130,-1.43206,0.098625,-1.34083
1441193783840108,-1.43784,0.0960524,-1.34253
1441193783863108,-1.4509,0.0951508,-1.34317
1441193783885105,-1.45414,0.0967829,-1.34428
1441193783891108,-1.44865,0.0990258,-1.34555
1441193783913306,-1.44709,0.101555,-1.34748
1441193783928303,-1.45825,0.105008,-1.35135
1441193783951110,-1.46808,0.108055,-1.35611
1441193783973324,-1.46959,0.110781,-1.35833
1441193783988336,-1.46263,0.113171,-1.36156
1441193784011166,-1.45891,0.114507,-1.36521
1441193784027110,-1.46055,0.115059,-1.36814
1441193784048310,-1.46185,0.116225,-1.36903
1441193784071115,-1.45926,0.118356,-1.36999
1441193784095109,-1.4571,0.120008,-1.36905
1441193784108111,-1.45678,0.120945,-1.36623
1441193784130348,-1.45524,0.120211,-1.36096
1441193784146109,-1.44999,0.117828,-1.35411
1441193784168322,-1.43918,0.114976,-1.34619
1441193784199126,-1.42314,0.111003,-1.33972
1441193784207106,-1.40467,0.106001,-1.33605
1441193784228322,-1.38441,0.101323,-1.33485
1441193784251130,-1.36397,0.0973649,-1.33589
1441193784267108,-1.33858,0.0944195,-1.33799
1441193784288286,-1.31203,0.0929531,-1.33947
1441193784311112,-1.28932,0.0912176,-1.33946
1441193784327112,-1.27735,0.0895095,-1.33771
1441193784348114,-1.27368,0.089099,-1.33499
1441193784371182,-1.27375,0.0902129,-1.33152
1441193784387112,-1.27526,0.091662,-1.32656
1441193784408114,-1.27466,0.093087,-1.31997
1441193784430377,-1.26935,0.094212,-1.31277
1441193784447113,-1.25862,0.0949514,-1.30506
1441193784468334,-1.24329,0.0953461,-1.29719
1441193784491146,-1.2285,0.0958124,-1.28892
1441193784507112,-1.21678,0.0951693,-1.28118
1441193784528333,-1.20924,0.0935697,-1.27358
1441193784551113,-1.20488,0.0920756,-1.26599
1441193784574115,-1.19852,0.0907673,-1.25756
1441193784588114,-1.19032,0.0890043,-1.24952
1441193784610354,-1.18132,0.087132,-1.24198
1441193784627109,-1.17247,0.0858972,-1.23469
1441193784648330,-1.16586,0.0845313,-1.22765
1441193784674110,-1.16183,0.0818632,-1.22053
1441193784687130,-1.1583,0.0784919,-1.21321
1441193784708279,-1.15239,0.0748804,-1.20621
1441193784731137,-1.14522,0.0718108,-1.19959
1441193784747115,-1.13957,0.0691486,-1.19365
1441193784769111,-1.13672,0.0669032,-1.18896
1441193784791158,-1.13415,0.0651065,-1.1849
1441193784808133,-1.13082,0.063652,-1.18089
1441193784828152,-1.1284,0.0619294,-1.17733
1441193784851118,-1.12681,0.060208,-1.17447
1441193784868114,-1.12592,0.0587,-1.17243
1441193784888356,-1.12535,0.0569831,-1.17106
1441193784911116,-1.12543,0.0547466,-1.16882
1441193784928113,-1.12598,0.0527183,-1.16655
1441193784956178,-1.1265,0.0510787,-1.16436
1441193784971118,-1.12689,0.0500947,-1.16323
1441193784989115,-1.1275,0.049324,-1.16385
1441193785011115,-1.12945,0.0474791,-1.16488
1441193785030336,-1.13053,0.0452575,-1.16444
1441193785048113,-1.13077,0.0428708,-1.16353
1441193785068118,-1.13076,0.0405774,-1.16307
1441193785091117,-1.13249,0.0388578,-1.16255
1441193785108162,-1.13384,0.0358721,-1.16311
1441193785128334,-1.13754,0.03306,-1.16324
1441193785151136,-1.14107,0.0320327,-1.16342
1441193785168116,-1.14393,0.0314933,-1.16328
1441193785188351,-1.14793,0.0300701,-1.16116
1441193785211158,-1.15604,0.0274308,-1.15519
1441193785228117,-1.16511,0.0252032,-1.14955
1441193785248353,-1.17021,0.0227297,-1.14788
1441193785270336,-1.17761,0.0212364,-1.14874
1441193785288129,-1.19125,0.0295859,-1.15227
1441193785308121,-1.20095,0.0443501,-1.15185
1441193785331176,-1.21727,0.0521201,-1.15037
1441193785348118,-1.22982,0.0521672,-1.14864
1441193785369187,-1.22548,0.0523229,-1.14668
1441193785391119,-1.21725,0.0517445,-1.14677
1441193785408120,-1.20874,0.0512292,-1.14575
1441193785429156,-1.20383,0.0501936,-1.14188
1441193785451119,-1.19807,0.0479077,-1.13748
1441193785468118,-1.19445,0.0429319,-1.13276
1441193785490119,-1.18327,0.0347556,-1.13155
1441193785510317,-1.16536,0.028826,-1.13563
1441193785528119,-1.15172,0.027615,-1.13811
1441193785549119,-1.14237,0.0280153,-1.14057
1441193785570360,-1.13669,0.0295376,-1.14908
1441193785588116,-1.15305,0.0306225,-1.15029
1441193785610120,-1.14883,0.0257622,-1.14907
1441193785630381,-1.13098,0.0176083,-1.14743
1441193785648116,-1.10278,0.0145527,-1.14641
1441193785669179,-1.0852,0.00933708,-1.14438
1441193785691121,-1.08599,-0.000170648,-1.14301
1441193785708120,-1.09723,-0.00979064,-1.1441
1441193785731277,-1.1135,-0.0177807,-1.14848
1441193785750370,-1.12713,-0.0233279,-1.15702
1441193785768117,-1.1337,-0.0280606,-1.16454
1441193785791120,-1.13449,-0.0325495,-1.16812
1441193785811122,-1.12867,-0.0373192,-1.16924
1441193785828118,-1.11621,-0.0420702,-1.17072
1441193785851246,-1.10585,-0.046962,-1.17114
1441193785870388,-1.10016,-0.0533675,-1.17219
1441193785888118,-1.09975,-0.0598291,-1.17442
1441193785911204,-1.10258,-0.0653554,-1.17672
1441193785930359,-1.1072,-0.0678676,-1.1789
1441193785948118,-1.10851,-0.0684348,-1.18011
1441193785971122,-1.10614,-0.0689004,-1.18067
1441193785990362,-1.1013,-0.0701109,-1.18107
1441193786008119,-1.09578,-0.0724192,-1.18161
1441193786030124,-1.09202,-0.0756634,-1.18194
1441193786051219,-1.09104,-0.0795605,-1.18242
1441193786068120,-1.09098,-0.0839339,-1.18105
1441193786090124,-1.08986,-0.0882673,-1.18001
1441193786111230,-1.08635,-0.0919006,-1.18027
1441193786128122,-1.08305,-0.0943202,-1.18134
1441193786150121,-1.08178,-0.0949635,-1.1819
1441193786171289,-1.08074,-0.0945625,-1.18071
1441193786188123,-1.07502,-0.0946115,-1.18142
1441193786210121,-1.06801,-0.0947223,-1.18443
1441193786231348,-1.06445,-0.094876,-1.18795
1441193786248123,-1.0619,-0.0951179,-1.19005
1441193786270125,-1.05695,-0.0953125,-1.19219
1441193786291435,-1.05386,-0.0949421,-1.19408
1441193786308123,-1.05349,-0.0946274,-1.19587
1441193786330172,-1.05459,-0.0947423,-1.19672
1441193786351395,-1.05377,-0.0947053,-1.1968
1441193786368123,-1.0521,-0.0951746,-1.19594
1441193786390126,-1.04927,-0.0962413,-1.19487
1441193786412142,-1.04758,-0.0971577,-1.19377
1441193786428126,-1.04805,-0.0985621,-1.19281
1441193786450123,-1.04918,-0.100515,-1.19176
1441193786471358,-1.05023,-0.102486,-1.19104
1441193786488209,-1.05014,-0.103739,-1.19066
1441193786510127,-1.04851,-0.103636,-1.18876
1441193786531327,-1.04555,-0.103485,-1.18695
1441193786548125,-1.04471,-0.104084,-1.18616
1441193786570123,-1.0464,-0.104846,-1.18597
1441193786591338,-1.04725,-0.105399,-1.18596
1441193786607135,-1.04595,-0.105663,-1.18623
1441193786630124,-1.04426,-0.105313,-1.1862
1441193786652182,-1.04233,-0.104657,-1.18538
1441193786668163,-1.03889,-0.104498,-1.18464
1441193786690126,-1.03633,-0.104383,-1.18453
1441193786712123,-1.03391,-0.104672,-1.18459
1441193786727179,-1.02893,-0.10466,-1.18414
1441193786750128,-1.02524,-0.104738,-1.18097
1441193786773127,-1.02609,-0.106384,-1.17795
1441193786787126,-1.03457,-0.109279,-1.17643
