time,emg1,emg2,emg3,emg4,emg5,emg6,emg7,emg8,hand,pose,orientation,testPerson
0,-19,0,22,3,-17,-12,-35,-97,1,0,45,BueBaby!
5,6,-4,-27,-4,6,0,45,73
10,1,1,25,11,-3,-3,-12,-24
15,9,-3,0,-29,10,12,26,72
20,-11,5,-11,0,-6,-7,-68,-50
25,-4,-11,-15,-7,-8,-4,14,-23
30,3,4,8,0,-8,5,20,21
35,-1,-13,-32,-27,-8,-11,-57,-14
40,3,12,21,35,17,16,28,-6
45,-8,-1,3,-3,-11,-9,-13,-45
50,2,-7,-15,-5,-7,0,12,44
55,-6,-2,-5,0,-8,-4,-8,-63
60,12,-1,2,-3,10,2,48,69
65,-4,2,8,-13,-24,8,-51,-21
70,-2,-4,-19,-26,20,-5,25,-25
75,-11,-1,10,20,-2,-3,-8,-47
80,-2,-17,-34,-8,2,-9,-32,35
85,20,25,37,3,-1,20,24,46
90,0,2,11,-1,5,-4,7,-11
95,-13,-4,-1,3,0,-7,-17,-25
100,4,0,-4,7,-3,-3,31,33
105,-7,-15,-1,0,3,-4,-36,-52
110,2,3,-12,4,-5,3,13,79
115,7,10,7,8,14,18,75,-23
120,-11,-12,-7,-14,-23,-19,-97,-43
125,8,5,16,23,53,-2,13,41
130,4,3,-23,1,-5,5,19,-6
135,3,2,-4,-1,9,0,23,54
140,-3,6,11,-1,-2,1,9,-35
145,3,4,6,12,-5,2,-5,22
150,-1,-5,-6,-21,1,-10,-72,-42
155,-9,-12,-12,-28,-48,-2,18,-45
160,0,8,11,35,28,0,-17,27
165,5,-2,-3,-17,0,12,61,24
170,1,5,4,15,0,1,-26,-28
175,-4,-2,-17,9,10,-3,-1,21
180,2,-2,0,-1,-8,-6,-52,-48
185,-1,1,6,4,-6,-1,10,29
190,-5,-5,-15,-2,3,-4,-2,32
195,11,-4,-15,13,22,9,75,81
200,-11,-1,4,-24,4,0,-21,-92
205,9,5,7,1,2,-4,-3,24
210,-5,-17,-22,-6,-10,-14,-54,27
215,3,28,44,18,21,7,-28,-74
220,0,-6,-18,-14,-10,-6,28,71
225,-11,-10,-17,-17,-5,1,1,-41
230,6,3,7,1,12,-7,23,41
235,-3,-16,3,-4,-9,12,52,-19
240,-1,4,-21,-23,6,-6,-63,14
245,-4,-4,-1,-32,-72,-10,-24,-28
250,-1,1,27,22,-25,5,1,13
255,-1,4,43,56,41,3,74,12
260,-3,-9,4,0,-8,-3,-52,-13
265,-10,-10,-31,4,25,-9,-14,-33
270,8,6,-7,-10,-43,7,68,74
275,-2,1,-4,-23,17,1,34,-57
280,2,-7,-10,11,-1,8,18,17
285,2,8,8,15,9,-18,-66,12
290,-13,-7,5,12,7,11,6,-38
295,6,5,-5,-6,-16,-14,-94,19
300,-10,-7,-3,-3,-8,-4,54,-44
305,3,-10,-10,1,23,12,33,57
310,5,16,3,-4,14,-2,-46,-72
315,-4,-6,15,-4,-13,-4,3,47
320,6,4,6,4,-4,2,-7,26
325,-9,-13,-3,9,-1,-10,-6,-43
330,6,17,16,15,20,2,34,6
335,5,-3,-27,-13,-21,-1,-77,-31
340,-2,-19,-44,-15,-8,-4,56,70
345,6,29,87,2,-52,-3,33,-13
350,-6,-15,-15,0,5,-7,-43,-60
355,-4,-2,2,-62,-2,-18,-42,25
360,0,0,-18,2,3,2,33,-20
365,4,-2,0,3,-6,7,18,46
370,10,2,6,-14,34,19,45,38
375,-19,-6,-30,5,-15,-13,-51,-53
380,14,11,29,19,2,2,-42,4
385,-15,-17,-36,-36,3,-14,23,-41
390,0,-3,6,2,-5,7,20,71
395,3,-2,-7,8,4,10,-4,-4
400,15,12,13,-11,5,1,38,107
405,-11,1,-7,25,16,6,-28,-113
410,0,-4,-4,-87,-6,-1,62,68
415,-17,-9,-14,2,-42,-30,-102,-55
420,1,-11,4,-12,-20,6,43,-18
425,8,15,-9,9,-3,8,-31,20
430,1,-3,9,26,1,5,51,41
435,-2,-5,-3,-4,-8,-3,-49,-67
440,-6,2,8,11,18,-3,-36,-5
445,8,-8,-30,1,11,11,62,73
450,-15,-5,-3,-9,-14,-21,-100,-103
455,16,9,13,11,33,16,113,106
460,-4,1,7,45,1,-4,-7,-30
465,-7,-11,-4,-19,19,-2,-16,-12
470,6,4,-16,4,2,-3,-21,39
475,5,4,4,-2,-10,3,21,25
480,-11,-7,-4,-15,-18,2,-21,-68
485,2,-1,-21,30,4,-10,-13,-16
490,-5,-2,11,-17,-9,5,17,-11
495,5,1,-1,13,2,1,-6,19
500,1,10,4,-12,3,0,3,-1
505,-6,-6,-1,12,10,4,17,-8
510,-9,-9,-9,6,-11,-28,-66,10
515,2,5,7,-7,17,12,20,-21
520,-11,-11,-40,-5,9,5,10,-28
525,5,7,45,-38,13,-7,-11,15
530,7,9,0,19,9,6,-12,19
535,-18,-10,-8,-4,-12,-12,12,-30
540,11,0,11,32,10,11,43,43
545,0,2,-8,-11,-14,-4,-14,4
550,-6,-4,-5,10,9,-4,-22,-43
555,7,1,7,-3,-5,3,14,29
560,-4,7,16,-3,5,-8,-17,9
565,-3,2,-16,5,10,9,27,-36
570,-5,-23,-21,3,-9,-11,-10,-11
575,2,28,39,-13,-5,4,16,17
580,-2,-7,-6,-13,-6,-14,-11,24
585,5,-2,-1,1,0,19,52,15
590,-1,-8,-13,-2,2,-1,32,15
595,4,10,-4,47,-3,-3,0,-32
600,-7,1,4,-26,-14,2,-6,-12
605,0,0,6,7,-17,-6,-41,13
610,0,-7,-10,0,-7,1,31,15
615,-1,-10,5,7,4,-6,-15,-32
620,9,4,-7,-10,-13,-1,26,28
625,4,10,5,5,6,2,-32,-36
630,2,-2,24,-8,-15,3,16,57
635,-7,-7,-18,-9,10,-3,-43,-26
640,-1,-1,-9,-3,20,4,-26,-20
645,-5,-7,31,-3,3,-11,13,0
650,10,14,-4,7,-1,5,38,48
655,-6,-5,1,18,36,0,-48,-68
660,-2,1,-15,-49,-35,2,19,25
665,12,1,24,28,27,1,0,61
670,-8,4,5,-6,1,3,-5,-45
675,-3,-12,-19,0,-9,-5,-18,30
680,4,-10,-3,16,10,9,26,10
685,0,6,-27,-17,-11,-17,-57,-23
690,1,4,17,12,15,13,55,-29
695,-10,-12,8,-46,-52,-8,4,11
700,-3,-3,7,8,-7,-11,-39,-23
705,-3,-2,-3,-26,-4,-3,-47,17
710,0,-3,-9,14,11,-2,9,-28
715,13,2,-21,-37,1,15,51,87
720,-2,-6,12,5,0,1,-20,-69
725,-14,-17,-16,-2,-9,-7,34,-10
730,-3,17,-3,2,0,1,-16,-10
735,-2,0,-9,3,2,-1,-16,2
740,18,7,32,5,2,11,42,71
745,-10,-5,-21,3,1,-16,-19,-49
750,-11,-15,25,-6,-5,-7,-11,-48
755,17,20,12,9,4,9,21,59
760,-22,-5,-18,14,14,-17,-11,-26
765,0,-6,14,2,2,9,3,8
770,3,2,4,-6,-7,-3,-24,18
775,2,-3,-3,3,-1,5,54,29
780,2,2,-4,-30,-18,-12,-77,-30
785,-8,-5,-15,-2,-15,0,5,-9
790,0,-4,-6,-24,10,2,15,-1
795,-6,-10,14,1,5,3,-8,16
800,0,16,-20,8,-7,-5,6,-67
805,-1,-8,22,-12,-10,-8,-34,69
810,3,-6,-19,5,22,9,25,-25
815,-8,15,31,55,16,5,-23,-33
820,3,4,26,-10,24,-2,30,26
825,1,1,-4,5,7,5,-10,-15
830,3,-8,-21,8,3,1,9,41
835,-12,-10,-25,-29,5,-5,-32,-98
840,9,6,33,-6,8,8,69,77
845,2,3,-9,-2,8,-16,-78,-32
850,-9,2,6,2,-17,-5,4,-22
855,2,-6,-21,-7,-3,-7,2,10
860,4,-11,-12,5,-6,6,11,37
865,4,9,1,5,4,18,60,-38
870,-7,2,6,-5,-15,-6,-30,-21
875,4,-1,1,13,12,-6,15,65
880,-10,-12,-15,3,-3,3,0,-32
885,-4,-18,5,-8,-1,10,30,-7
890,1,9,9,7,0,-6,-18,-23
895,-3,-5,-1,-7,-48,-6,29,-5
900,-2,0,-1,27,0,3,-39,14
905,2,-10,-34,-20,-10,0,33,33
910,3,6,4,9,-9,-8,-42,19
915,-7,1,16,-1,29,3,-2,-98
920,-5,-11,-21,6,-3,-11,-28,20
925,1,12,-9,9,11,9,11,-4
930,7,-5,12,16,38,9,54,68
935,8,3,4,12,-10,-7,25,8
940,-4,11,-2,-1,-4,1,-2,-32
945,-2,1,13,12,16,-3,-57,20
950,-6,-3,1,-21,-12,-10,25,14
955,-2,0,-18,0,-5,3,5,-29
960,-8,-1,13,-34,-2,-6,-14,-51
965,12,5,-37,2,-12,8,42,48
970,0,-5,9,-4,-13,-7,-16,2
975,-1,-4,-5,-7,-15,-1,-3,27
980,2,1,0,4,-3,4,14,23
985,-1,3,-4,-3,-10,-5,0,-26
990,-14,-1,11,12,-3,-1,-18,-91
995,1,1,7,8,12,-10,-49,40
1000,2,-7,-11,-6,-4,2,31,33
1005,0,-5,-10,-17,1,-2,-7,10
1010,7,9,16,7,-12,3,-8,-27
1015,-8,-4,3,-8,-44,-4,13,14
1020,-5,-7,-6,9,5,-7,-10,6
1025,-9,9,21,-20,-11,-5,-24,-41
1030,8,-2,-18,-19,-9,10,-14,2
1035,2,-8,-31,-14,-1,1,33,25
1040,-2,-2,-6,-5,-11,-18,-10,56
1045,-12,-9,-23,6,3,-12,-49,-56
1050,10,20,25,8,25,0,24,70
1055,0,-11,-3,-6,13,20,25,-28
1060,-2,5,8,13,3,-1,-24,-38
1065,-1,-3,7,1,-4,-3,52,31
1070,-4,-2,-28,-12,-11,-4,-21,-7
1075,0,8,7,2,8,-6,10,-17
1080,4,3,9,7,-1,5,-2,-8
1085,3,0,11,-1,-3,2,-13,54
1090,-8,-21,-59,-14,-9,2,13,-50
1095,8,11,26,12,4,10,52,62
1100,-6,13,28,5,13,-2,-73,-85
1105,5,-5,-1,-44,-1,7,33,21
1110,-5,2,-7,4,-5,-17,19,22
1115,-2,-5,-8,-3,7,4,5,47
1120,-6,-12,-34,-7,-11,-10,-30,-48
1125,4,17,34,37,12,14,67,19
1130,4,-5,8,-14,-8,6,-101,-33
1135,-11,-17,-16,-16,-4,-17,-26,-31
1140,-2,1,-6,-1,-9,-10,35,21
1145,0,-2,1,16,6,-2,-24,-10
1150,9,-2,-22,-2,-4,7,31,19
1155,0,3,2,2,4,5,-30,-20
1160,2,5,14,2,2,7,10,39
1165,-5,-10,4,1,-6,-10,-22,-16
1170,-3,5,9,4,2,1,25,-20
1175,-5,-6,-14,-1,1,-11,-52,-59
1180,-2,-15,-16,-4,1,10,35,15
1185,7,22,20,1,-6,-5,-26,48
1190,3,-4,10,4,7,4,18,-19
1195,-6,-4,-11,-1,-1,-5,-63,-8
1200,-1,-4,1,-7,1,3,0,-8
1205,-11,-6,-16,5,-2,-7,-4,-9
1210,-9,-6,2,-3,-4,4,40,17
1215,40,6,-44,-4,4,20,49,27
1220,8,15,43,3,-9,-14,-36,25
1225,-9,-12,-7,30,12,10,-21,-69
1230,-20,-6,-29,14,1,-22,-52,-24
1235,2,2,11,-28,-1,7,47,83
1240,3,-17,-80,14,0,15,34,35
1245,-11,8,69,-5,-8,-12,-23,-116
1250,0,-5,-35,2,11,4,-56,38
1255,1,17,81,30,-2,-5,8,56
1260,-6,-23,-27,-23,-3,3,3,-43
1265,9,-1,6,0,2,5,27,86
1270,-3,7,-12,-6,0,1,-9,-38
1275,-7,9,28,-7,-2,1,-11,-46
1280,6,4,8,-1,5,7,20,27
1285,-12,-7,-40,-3,-3,-11,25,-29
1290,13,-4,36,-13,-6,-1,17,31
1295,0,-7,-25,18,3,2,-26,4
1300,2,27,18,-29,3,4,-35,6
1305,-10,-18,-35,-12,-15,-6,31,0
1310,3,10,30,13,9,-1,-14,11
1315,1,-23,-34,-4,3,8,41,54
1320,-14,15,48,7,-4,-27,-57,-74
1325,4,-17,-12,-19,-6,-2,-25,27
1330,8,28,8,20,4,7,31,-24
1335,-13,-10,30,-8,-9,-18,-72,-14
1340,4,-1,11,3,-1,7,4,-14
1345,-4,-3,-29,1,5,2,-6,4
1350,-18,-14,-6,-5,-8,-11,-7,-21
1355,-5,4,-10,-6,-2,-5,27,-28
1360,-6,-12,-58,1,-3,-4,19,-12
1365,-1,10,44,3,1,9,-6,27
1370,-2,-16,-6,-6,-3,-3,-14,45
1375,-13,-16,-9,-5,-3,-7,33,-91
1380,8,8,-16,-3,-4,2,-7,19
1385,23,14,1,11,3,9,47,79
1390,-14,-10,13,22,7,-6,25,-62
1395,-11,1,1,-16,-2,-17,-82,-12
1400,3,-17,-22,6,4,11,86,37
1405,-4,9,50,6,7,12,5,-62
1410,0,-4,-28,4,-4,-1,-8,8
1415,11,7,-11,4,4,15,42,55
1420,-7,1,-7,9,9,3,26,-63
1425,2,30,26,5,2,0,-55,-42
1430,2,-27,-27,-25,-13,-15,-3,50
1435,-4,19,14,8,2,5,-16,-61
1440,6,-2,-4,-1,-5,-5,0,20
1445,5,5,5,0,2,1,6,31
1450,-2,-3,4,-5,1,7,10,-35
1455,1,-16,-23,-6,-4,-7,-23,3
1460,0,27,49,18,3,14,35,-31
1465,1,-17,-32,-9,-11,-19,-5,13
1470,11,19,16,0,6,13,-14,-45
1475,1,-16,-27,-6,-4,-15,0,103
1480,-17,-13,10,-1,2,12,-29,-77
1485,6,-14,-23,-10,-1,0,41,15
1490,1,17,31,-1,-1,8,34,23
1495,9,3,16,4,-1,-2,-60,5
1500,5,-6,-8,-5,-4,-11,1,18
1505,9,-5,-3,-3,2,1,9,38
1510,4,20,21,10,4,12,-29,-51
1515,-11,-7,-7,-6,-7,-9,16,-17
1520,0,-3,-21,0,2,-1,2,28
1525,5,-15,-7,-6,-6,1,3,62
1530,-10,0,10,-2,0,-1,20,-23
1535,-5,-7,-6,-10,-3,1,15,-55
1540,23,-5,-36,-9,0,1,2,34
1545,12,21,26,14,4,-1,-21,-14
1550,2,-2,2,-4,-3,0,52,52
1555,-12,-11,-46,-8,-5,-14,-46,-65
1560,-5,2,61,1,-5,-12,-12,76
1565,8,-16,-43,-7,3,8,12,13
1570,0,27,28,4,1,-3,-4,-2
1575,-5,-7,-2,15,2,-3,-35,-90
1580,-7,2,40,5,-8,1,10,1
1585,-1,7,3,5,6,-1,-70,-35
1590,-7,-26,-41,-14,-10,-14,23,45
1595,-12,-14,-25,-15,-10,-15,12,-18
1600,-2,6,-59,7,4,-3,-26,-35
1605,0,15,38,4,-3,3,31,66
1610,6,-7,7,1,2,7,-29,-23
1615,-6,3,13,0,0,6,27,-14
1620,-2,-14,-13,-7,0,-6,-1,4
1625,-13,-1,2,2,-4,-6,-4,-29
1630,4,-1,-15,-6,2,0,-13,32
1635,12,19,27,20,8,4,-30,61
1640,2,-3,10,-22,-3,8,36,-22
1645,-5,-12,-38,-8,-6,-15,-84,-7
1650,1,-5,9,-1,-3,2,38,21
1655,-3,0,12,-5,1,8,21,-33
1660,6,7,-6,11,-1,4,22,57
1665,3,4,32,0,8,-1,-38,-86
1670,-3,1,-18,-6,-9,-7,-19,33
1675,3,10,31,16,7,4,15,13
1680,-11,-9,-13,-3,-3,1,-19,-10
1685,-3,-8,-42,-5,-5,0,4,11
1690,7,5,54,6,4,0,-28,-4
1695,7,5,-11,-3,2,7,49,56
1700,-13,-9,1,1,-2,-10,-23,-43
1705,0,16,33,7,1,5,10,8
1710,-6,-18,-46,-6,0,-5,-22,-59
1715,6,21,44,2,-3,-2,15,24
1720,3,1,14,2,3,1,-14,-7
1725,-7,-13,-33,-5,-2,-3,3,17
1730,1,-6,-12,-2,0,16,12,6
1735,7,6,11,2,-1,-11,-9,22
1740,-4,-11,-33,-2,3,6,22,20
1745,10,12,55,1,-4,3,46,13
1750,-11,6,-47,0,-10,-9,-66,-60
1755,8,-2,-7,-2,4,-3,10,16
1760,-9,-11,-14,-31,-6,-7,-18,-28
1765,3,5,18,2,4,13,58,21
1770,7,2,-2,-1,1,3,35,23
1775,1,-1,11,9,-1,6,-14,-24
1780,-3,1,-1,4,5,-8,-15,16
1785,-4,-9,-16,-1,0,-1,4,-29
1790,-15,-23,-47,-11,-7,-20,-23,32
1795,-12,8,0,9,-8,4,-13,-57
1800,6,19,48,8,-1,-6,-1,49
1805,5,-2,-23,-13,38,19,52,11
1810,-1,-3,18,0,-10,-19,-84,-6
1815,-3,-11,-25,-4,-2,2,-11,4
1820,-6,-10,-13,0,-9,-7,-2,-20
1825,-14,-2,-13,0,-12,-7,-41,-55
1830,13,-1,9,3,6,10,65,38
1835,-2,-3,-7,-10,6,-1,-27,-14
1840,0,4,12,13,-5,2,-20,-8
1845,-4,-3,-10,4,-4,9,53,10
1850,-6,-2,11,1,-1,-13,-38,-6
1855,-5,-1,-9,-4,-6,-6,2,-8
1860,15,0,-3,2,7,8,-1,61
1865,-1,1,-2,5,-14,-9,-38,-56
1870,-3,2,4,10,14,3,32,58
1875,-10,-13,-61,-21,-3,11,26,-33
1880,-3,8,41,2,3,-4,-22,-31
1885,-6,-12,-26,-10,-12,-10,-7,2
1890,6,0,22,-4,-12,-2,1,2
1895,8,-4,-46,-14,5,-2,8,33
1900,-2,-6,-12,13,3,4,7,-13
1905,-6,11,21,-24,-6,-8,-19,15
1910,-7,-1,11,-16,-3,3,4,-49
1915,3,-7,6,1,-5,-3,-17,0
1920,-6,3,14,-4,-9,-6,43,3
1925,3,2,4,14,-1,-8,-14,10
1930,2,-1,-9,6,12,11,29,-1
1935,-2,4,-1,-7,-8,-7,6,2
1940,11,-2,18,-3,-4,-1,35,65
1945,-13,-9,-19,10,-1,-2,-39,-99
1950,7,7,2,-11,-4,1,-20,49
1955,-7,-4,23,8,1,-2,5,-52
1960,4,-3,-27,-3,5,2,9,48
1965,-1,-2,-29,2,2,-8,-55,-17
1970,6,6,32,5,2,5,48,-9
1975,0,1,20,14,8,2,-8,47
1980,11,-3,-18,-38,-19,-1,11,19
1985,-10,-1,4,3,8,7,21,-34
1990,-5,-1,-9,3,3,-2,-27,-34
1995,1,-10,-27,-4,-4,-1,-12,26
2000,4,12,37,18,8,1,-18,-8
2005,-2,-17,-20,-10,-5,-3,21,15
2010,0,9,2,1,-5,2,-13,-10
2015,5,0,7,7,7,5,-31,33
2020,-12,-9,-22,-3,2,-4,6,-51
2025,4,12,20,-1,6,-1,-27,14
2030,-4,1,9,31,3,-5,20,-29
2035,12,5,2,-10,-5,9,67,26
2040,-16,-12,-12,-14,-4,-12,-81,-49
2045,-1,-7,-10,-2,-9,3,55,28
2050,6,-1,17,-7,-3,2,-7,13
2055,-8,8,19,-1,7,-8,-43,-42
2060,-1,-6,-14,4,-1,-8,33,-22
2065,7,1,5,4,2,-2,-10,53
2070,-3,-6,-12,-30,-23,1,48,1
2075,5,-2,-4,27,9,2,-9,23
2080,-3,8,2,-15,52,1,-19,-3
2085,-14,-2,-8,10,-45,-13,-20,-47
2090,5,2,0,4,30,6,8,13
2095,-5,-13,-16,-10,-19,-8,-49,-61
2100,8,12,29,24,-4,3,17,67
2105,5,3,-2,-2,6,-1,-1,18
2110,-5,-1,-12,3,3,-5,-47,-50
2115,-2,2,20,12,18,6,44,12
2120,2,-26,-96,-20,-17,7,17,54
2125,7,34,65,29,16,0,16,-13
2130,-4,-10,-21,-7,-26,-4,-13,-39
2135,13,2,-11,17,0,-1,-38,98
2140,-13,-7,-21,-22,4,3,50,-128
2145,5,-6,29,-1,-4,-5,32,125
2150,-15,-10,-17,-9,-5,-4,-15,-50
2155,0,-1,-1,0,-9,3,22,31
2160,-12,-7,4,9,6,-18,-82,-67
2165,-4,-2,-18,-9,-17,3,36,14
2170,7,2,4,1,-3,3,-14,13
2175,7,11,22,-13,3,1,25,37
2180,-10,-2,-1,-2,-22,-3,43,-33
2185,-5,-17,20,-13,4,-9,-38,-48
2190,5,6,-65,8,4,2,20,65
2195,0,4,-10,-9,3,2,34,-36
2200,15,21,102,15,-14,12,15,56
2205,-13,-5,-37,17,13,-8,-71,-79
2210,3,-12,4,-2,6,-9,29,59
2215,-1,-4,-1,-10,-5,2,24,31
2220,6,-1,-14,1,-11,3,6,48
2225,-3,2,2,-5,17,21,28,-48
2230,4,1,-1,0,4,-1,3,17
2235,-13,5,-13,-1,-7,-15,-16,-30
2240,1,-11,11,8,6,5,-15,-7
2245,14,22,11,8,-4,3,-16,52
2250,-14,-5,7,-40,4,-17,-26,-68
2255,9,-5,-7,1,-2,13,63,57
2260,-7,4,12,1,-7,-22,-52,-26
2265,1,-16,-38,-3,2,6,48,6
2270,-1,12,32,4,-6,-7,0,-29
2275,0,-1,17,9,1,-4,-87,4
2280,-12,-7,-15,-6,0,5,63,-9
2285,-2,-15,-51,-5,-6,-3,-35,9
2290,3,15,45,28,7,4,10,-10
2295,2,11,21,-5,6,4,10,4
2300,2,7,-2,10,-1,-2,-38,-26
2305,0,-6,-14,-12,2,5,33,22
2310,-4,-12,-25,0,2,9,-1,-13
2315,-2,4,15,-4,3,0,3,60
2320,-14,-6,-4,-5,-11,-17,-14,-71
2325,9,-1,1,-6,2,3,24,60
2330,-3,-8,-2,-3,-5,-12,-47,1
2335,-9,-3,-5,-7,-13,-10,8,-25
2340,17,17,13,14,20,15,-59,-45
2345,-12,-15,-5,-13,-11,-14,92,24
2350,-1,-6,-7,-4,-15,-8,-18,2
2355,-11,1,2,1,7,-3,-20,-64
2360,13,16,-17,-4,17,8,-7,58
2365,6,3,30,1,-1,7,-11,-21
2370,0,-8,3,-1,-3,-1,56,46
2375,-23,-15,-12,-6,-4,-3,47,-73
2380,-4,7,7,-10,-14,-8,-38,18
2385,-1,5,18,27,57,4,-24,-13
2390,11,7,-5,3,-31,13,10,21
2395,2,-23,-3,-1,-4,-15,-63,6
2400,1,4,1,-6,-12,-10,-1,21
2405,-16,-4,-8,-12,-8,-9,27,-31
2410,-5,-2,8,1,13,4,-26,-30
2415,7,4,-3,-1,5,1,-1,10
2420,9,-4,2,8,6,10,12,-7
2425,3,4,-4,-3,-10,4,14,15
2430,-12,-11,-13,0,5,-12,-24,-4
2435,7,17,24,1,-5,5,41,-9
2440,-15,-17,-22,-5,-2,-14,-17,14
2445,24,25,14,7,-1,13,4,-21
2450,-12,-6,-19,0,-5,-5,53,20
2455,3,-2,5,-23,5,0,-35,-5
2460,4,-3,6,11,2,10,46,51
2465,-19,-14,-16,-6,-11,-17,-30,-26
2470,4,3,-18,0,5,8,-13,1
2475,3,14,23,5,1,1,-41,-30
2480,2,-11,-21,-5,-3,7,119,54
2485,1,0,1,-7,-8,-5,-68,-2
2490,10,7,-3,11,11,6,19,12
2495,-11,-5,14,2,-5,-8,28,-17
2500,-6,-7,-24,-2,-6,-7,-31,-8
2505,-1,-1,36,-10,5,-1,-9,-20
2510,-7,-2,-14,-7,-2,-8,-14,-27
2515,10,6,-1,8,-12,10,10,19
2520,-3,-3,-2,-1,6,1,-26,-20
2525,-3,-17,-53,-27,-32,-5,13,34
2530,-1,3,45,30,36,3,-5,-9
2535,-3,-8,-31,-28,-17,-11,-31,-30
2540,-4,-3,6,-10,-7,-19,-63,-12
2545,-12,-16,-26,1,-6,-5,-21,-23
2550,11,22,39,-12,-4,13,29,38
2555,5,8,14,20,11,3,16,-11
2560,1,-5,9,1,-4,7,54,5
2565,-16,-20,-28,-9,0,-13,-41,-23
2570,2,12,14,9,-3,5,-16,7
2575,3,-4,-26,5,1,-1,6,0
2580,8,10,-4,-23,23,2,-22,-3
2585,5,-3,8,30,11,17,49,56
2590,-8,-2,-5,-8,-8,-10,-25,-58
2595,-6,-3,10,3,33,-4,-5,-4
2600,0,14,14,8,-22,-5,-24,-6
2605,6,1,39,21,3,0,-31,-3
2610,-9,-10,-40,-19,15,-10,36,-6
2615,-2,-13,-18,18,-10,5,-2,25
2620,-3,-6,42,-14,3,2,18,-2
2625,5,17,-1,7,9,-5,-12,-11
2630,10,-7,-23,-1,-7,10,12,33
2635,-7,-6,-4,-17,-8,-11,-2,-30
2640,-4,3,-6,15,-4,-2,-16,-8
2645,4,3,-4,-25,-13,6,31,28
2650,5,-22,-16,-21,-8,-2,11,35
2655,-15,10,-46,-4,-8,-4,-26,-77
2660,5,-4,-9,4,-16,3,-15,1
2665,6,9,35,5,0,-3,-6,2
2670,-3,2,-18,9,24,4,35,11
2675,1,-12,30,-2,13,3,38,31
2680,-4,-6,-52,9,4,2,0,7
2685,-2,4,21,-10,-9,-3,0,-29
2690,-2,-3,7,-7,-8,-1,-40,-3
2695,-1,-12,-16,1,4,-1,3,11
2700,4,7,-10,-14,-36,5,35,14
2705,13,6,34,26,66,4,-8,26
2710,-2,29,81,27,0,-1,11,-40
2715,-2,6,-12,-29,0,3,-33,20
2720,-1,-9,6,5,-8,-4,-26,5
2725,-1,-3,-22,-9,-40,-1,29,11
2730,4,-14,-22,-10,3,-6,-8,49
2735,-12,4,39,12,-22,-12,-17,-92
2740,-6,4,6,-1,2,-3,8,11
2745,-3,-1,-27,-8,6,2,1,-30
2750,2,-2,-6,8,-3,14,13,28
2755,-3,6,24,9,52,-6,-15,-5
2760,8,-10,-2,2,0,12,81,41
2765,-8,-7,-41,-15,-3,-14,-34,-22
2770,-4,5,9,3,-21,-3,19,-47
2775,-1,-10,7,11,-7,-4,-44,20
2780,-9,-8,9,-14,22,-14,-36,-26
2785,9,7,3,21,-14,8,26,32
2790,-7,-4,-16,-8,-6,-10,-54,11
2795,10,14,19,3,-13,14,81,-40
2800,-19,-17,-24,-14,1,-27,-114,-36
2805,-1,4,11,16,12,3,15,-10
2810,-3,-4,-8,-4,-9,-10,-29,28
2815,0,-2,-22,-11,-8,6,36,15
2820,5,1,-11,3,-3,7,9,14
2825,2,1,15,2,-1,-3,-24,37
2830,-13,6,33,4,4,-7,-91,-115
2835,2,-9,-9,-21,-2,4,37,47
2840,15,11,11,14,-41,-4,1,41
2845,-21,-13,6,-29,-9,-10,-6,-10
2850,10,7,-7,21,3,12,25,-13
2855,2,7,7,11,-18,2,-21,10
2860,-1,1,16,3,19,11,-18,-39
2865,5,-5,-46,5,6,-2,14,-31
2870,-4,-6,30,-28,-18,2,20,33
2875,2,-11,-26,2,-1,3,15,24
2880,-9,9,-13,16,37,-9,10,1
2885,2,0,18,7,-53,-1,17,-16
2890,-2,-4,-39,-10,9,-7,-23,-6
2895,14,15,17,4,-4,11,60,44
2900,-6,-9,7,-9,2,-3,-39,-33
2905,-2,-13,-22,-15,-7,-6,-38,16
2910,-2,17,37,11,5,-6,22,-8
2915,-3,1,-1,5,-2,1,-1,-16
2920,-4,3,7,-7,4,-1,-12,4
2925,1,-4,-3,-25,4,5,9,1
2930,-1,-13,1,-14,0,4,-10,16
2935,-5,-9,-15,5,-8,-13,-17,36
2940,5,6,6,12,1,22,48,-16
2945,-18,-1,3,4,13,-28,-98,-81
2950,7,-15,-20,-5,1,12,-15,15
2955,-10,3,-6,-4,-6,-10,20,-14
2960,0,3,-2,5,3,-4,19,4
2965,-3,-16,-11,-10,-5,-4,-13,10
2970,6,1,-22,-4,-4,6,36,33
2975,2,8,20,15,5,-9,-48,-22
2980,5,-4,17,3,-7,2,22,13
2985,-3,12,2,-13,-3,3,13,26
2990,0,-1,-29,42,11,3,-12,-8
2995,-3,-1,35,-3,-25,-4,-17,-2
3000,0,-21,-33,-21,-14,-4,44,20
3005,3,25,63,34,-9,5,-15,-50
3010,1,-7,-20,-1,-4,-10,3,70
3015,1,-21,-53,-21,10,9,-16,-26
3020,8,24,57,24,12,10,21,0
3025,6,-9,-27,-16,12,-2,-18,33
3030,-9,3,41,10,-10,-10,12,-89
3035,-6,-7,-41,-6,3,4,24,6
3040,-8,-8,-27,-34,-8,-9,-107,9
3045,5,7,-18,5,6,8,69,9
3050,1,-3,14,-2,-8,-7,4,3
3055,0,-21,-39,-13,-2,-7,-21,57
3060,2,24,-5,1,-7,17,47,-93
3065,-11,-11,22,0,31,-4,3,-26
3070,-5,-10,-98,-29,-82,-19,-42,-15
3075,2,15,74,29,9,-2,-37,-5
3080,3,-3,35,2,7,5,48,27
3085,5,-5,-22,12,-1,0,11,50
3090,-9,-8,33,-13,4,-6,-13,-57
3095,-3,-1,-14,-11,0,-11,14,27
3100,7,3,3,-1,4,9,14,45
3105,-6,-5,-17,0,-4,6,-17,-36
3110,5,-1,-9,-6,9,-5,4,10
3115,12,18,-12,5,-22,14,49,9
3120,-9,8,98,36,46,-14,-77,-53
3125,8,1,5,-15,15,32,102,88
3130,-1,-1,-10,-1,7,-5,3,4
3135,1,9,41,-8,-32,-9,-62,-37
3140,-7,-8,-68,10,9,-6,-28,-17
3145,11,4,9,-14,-64,-9,-59,16
3150,-14,-1,-1,10,32,8,43,-31
3155,-1,-4,-3,0,9,-2,-19,4
3160,0,-14,-49,-13,-6,-1,37,22
3165,6,-1,-28,1,0,-8,-31,-10
3170,10,24,78,14,13,10,-3,65
3175,-14,-10,-16,-26,10,8,13,-58
3180,-6,-4,8,2,-4,-12,-12,35
3185,1,-6,-7,10,16,13,84,-21
3190,3,-11,-46,-28,-12,-16,-35,27
3195,-8,15,24,-1,9,12,35,-8
3200,8,-12,-24,39,24,15,15,14
3205,-3,3,25,-14,-70,-13,-26,40
3210,-6,-3,2,16,0,8,-10,-84
3215,-5,-1,11,7,2,-21,-21,2
3220,7,-2,-67,-8,-12,-2,3,46
3225,-4,-4,82,20,14,-3,30,-10
3230,15,36,-11,20,39,21,38,48
3235,-8,-25,-20,4,-16,-16,-50,-28
3240,-2,-1,20,-23,9,5,58,-29
3245,-8,6,3,15,3,-22,-93,-64
3250,-2,-11,-26,-16,-4,6,43,26
3255,8,-3,-18,7,5,6,71,80
3260,1,6,6,-12,-28,3,-7,-5
3265,2,6,-12,-7,18,8,-41,-21
3270,1,-25,4,8,5,-13,20,-9
3275,-21,-4,-35,-16,-40,-3,7,-84
3280,-5,-4,14,-4,-2,-10,-30,-1
3285,5,-13,-18,-5,12,11,38,35
3290,-1,-7,-61,-9,2,0,-37,-18
3295,18,13,23,2,-53,-3,-3,42
3300,3,19,44,6,10,3,-27,-17
3305,-9,-9,-20,1,5,-2,39,52
3310,-10,-9,-15,-13,-7,2,-5,-70
3315,4,0,-1,-5,26,-5,0,28
3320,-12,-9,0,18,-15,-10,-13,-3
3325,-5,-4,-13,-33,-16,-7,-17,-30
3330,6,-5,10,11,44,16,36,60
3335,4,12,58,-8,22,-14,-18,-4
3340,-2,2,3,-6,8,-3,-13,-63
3345,-2,-1,-1,21,-11,1,23,20
3350,-1,-8,-12,-22,-26,-2,-32,8
3355,12,-2,-3,8,17,6,-8,39
3360,-21,-6,3,-11,-7,-9,10,-80
3365,5,9,-3,4,13,10,22,-3
3370,8,4,31,-2,-6,8,28,56
3375,-9,-8,-28,4,12,-8,18,-55
3380,0,-8,0,-1,-16,-5,-19,42
3385,-1,-13,-40,-45,1,1,-15,-31
3390,-2,23,87,-3,10,-1,31,76
3395,-14,-7,-10,18,-36,-8,-4,-82
3400,5,-6,-25,-42,-8,5,21,52
3405,-8,3,3,15,6,-21,-57,-36
3410,7,-8,27,-17,-21,-11,44,66
3415,-13,-14,-11,-7,32,15,10,-56
3420,-4,4,-23,20,21,1,8,11
3425,8,4,-7,7,-1,6,-20,3
3430,-13,-11,-10,-8,-19,-14,-28,-60
3435,5,-4,-12,0,24,21,87,86
3440,5,2,8,-36,12,-1,-15,-18
3445,-3,-8,-36,9,14,-2,-13,3
3450,4,32,55,15,4,5,33,26
3455,5,5,-2,7,22,0,-74,-33
3460,6,-13,-41,16,-20,-2,39,81
3465,-6,6,43,-21,43,7,85,-49
3470,-9,-5,-3,-10,-52,-13,-84,-45
3475,4,2,-14,2,8,4,-8,8
3480,6,5,8,-3,-23,2,4,47
3485,4,9,9,20,20,2,-4,12
3490,-8,-10,-15,-37,-4,-8,-39,-81
3495,-4,-3,11,-6,-1,-15,-57,41
3500,1,-3,17,10,-11,2,-16,-33
3505,1,-7,-35,-23,-14,16,89,92
3510,-12,-5,-48,32,55,-11,-50,-92
3515,8,12,42,10,-20,-3,-53,44
3520,-2,2,24,4,5,-5,32,-12
3525,-3,-9,0,4,-13,-13,0,4
3530,7,-8,-52,2,6,11,-1,-7
3535,-3,20,33,-4,-18,0,9,-2
3540,0,-7,-18,2,30,-8,-9,18
3545,7,9,31,15,-7,5,-5,57
3550,-6,-12,-21,-5,-58,1,41,-65
3555,-1,-10,-43,-16,-19,4,-4,-13
3560,5,30,71,16,-8,-3,-22,-15
3565,-9,1,-16,7,-5,-21,-44,-1
3570,2,1,17,-11,18,-2,-6,16
3575,-1,-10,-11,3,-6,8,30,18
3580,-6,-6,-32,-7,-8,-2,7,-21
3585,-1,-3,35,19,5,4,-26,-34
3590,-8,-6,-29,10,8,-15,-23,13
3595,6,10,21,-8,-48,5,73,-3
3600,3,-6,-2,-17,22,8,-5,10
3605,-1,-3,-14,-6,-13,-15,-70,34
3610,-8,-5,20,-21,-2,5,16,-84
3615,3,-4,-32,-9,7,-4,28,22
3620,0,0,-7,-5,-5,3,8,37
3625,-6,-1,-6,1,-18,-5,26,-32
3630,13,4,33,-10,4,9,28,73
3635,1,8,14,11,44,-2,-37,-7
3640,-1,-3,-13,-15,-73,-18,2,-23
3645,11,9,13,5,10,22,48,64
3650,-18,-8,-17,-1,-5,-27,-108,-78
3655,-11,-22,-13,-15,10,3,-14,-6
3660,0,13,27,24,22,8,16,11
3665,0,-1,-16,-2,-2,-1,-1,-17
3670,10,10,10,12,-4,9,16,44
3675,-2,-7,-15,4,0,1,-7,-20
3680,1,-18,-37,5,-5,-7,29,21
3685,-5,8,25,-26,7,1,-8,-43
3690,0,12,1,20,1,5,6,23
3695,3,-1,-1,20,25,5,-20,0
3700,5,-3,3,-9,0,4,17,14
3705,-19,-11,3,4,-4,-19,-8,-86
3710,5,1,-19,7,-14,4,17,46
3715,3,-16,-17,-48,2,1,49,49
3720,-2,24,53,-4,-29,-8,-52,-52
3725,5,-8,-20,15,8,1,-45,28
3730,1,2,19,2,1,3,58,25
3735,4,-7,-27,8,-7,8,16,19
3740,-2,-4,-20,-3,9,-4,-23,-40
3745,-4,-4,-6,-10,-14,-13,-24,-6
3750,-1,-10,-3,8,17,5,-7,-14
3755,13,23,27,32,47,13,62,25
3760,-15,-18,-20,-6,4,-13,-41,-36
3765,7,6,5,3,-9,6,-27,4
3770,2,-6,-9,-5,-6,-9,-18,18
3775,-3,5,5,1,-7,3,-10,-36
3780,-1,2,-1,-4,8,1,-1,42
3785,9,-2,3,25,6,19,58,-41
3790,4,2,-18,-21,1,-1,-29,40
3795,-19,-13,-19,-14,-21,-14,-56,-69
3800,0,10,47,8,0,-2,41,18
3805,2,0,-7,11,22,12,-21,-3
3810,-6,3,22,-44,-7,-2,36,-42
3815,6,1,11,15,-8,4,68,42
3820,-10,-16,-34,-8,-6,-23,-59,27
3825,1,-7,-27,-22,-15,9,5,-28
3830,1,6,40,37,46,-4,-33,2
3835,0,1,-15,-29,-25,0,30,17
3840,-6,-4,-2,-6,-16,7,38,-2
3845,5,8,8,10,26,3,40,4
3850,-8,-17,-55,-3,-11,-1,-47,1
3855,4,-3,31,-3,4,-5,12,31
3860,-2,14,-7,10,1,5,-31,-71
3865,0,-3,-14,-51,-28,-9,17,89
3870,-1,5,0,35,-8,1,9,-39
3875,1,-1,-6,-3,6,-7,-30,-34
3880,0,-15,-24,-12,-8,0,30,39
3885,1,3,4,7,-1,-6,-39,12
3890,7,-4,8,-7,1,12,-3,-14
3895,-3,21,23,27,9,5,-5,6
3900,-4,-11,-9,-11,-1,-8,-41,9
3905,-1,2,7,11,7,-4,4,12
3910,6,6,12,-3,-13,8,24,16
3915,-5,-12,-31,-7,-8,-12,-43,-26
3920,9,4,17,24,16,9,7,-5
3925,1,-10,35,-6,4,-3,-1,18
3930,-14,17,12,11,-34,-2,59,-34
3935,7,5,4,-11,15,-9,-67,3
3940,-12,-2,1,0,-5,-12,-26,-64
3945,-4,-10,-20,-3,5,-1,20,16
3950,6,-2,-2,15,4,2,6,13
3955,6,-5,-9,9,-1,9,22,35
3960,0,4,12,-4,9,9,15,-6
3965,-2,5,11,8,-11,-12,-48,-35
3970,-11,-1,-7,-23,0,-3,-9,-21
3975,-9,-3,-2,3,23,-9,-36,-3
3980,10,-7,-3,-3,-40,6,40,83
3985,-6,-1,-10,16,-5,8,14,-82
3990,12,7,24,-6,28,14,-8,32
3995,-7,-15,-26,0,-6,-15,-32,-9
4000,-1,1,-3,5,53,16,16,-30
4005,2,5,14,14,2,4,0,21
4010,-12,-5,-18,-4,-11,-9,43,13
4015,1,-1,-9,-12,-22,-4,1,-17
4020,-1,0,-4,9,13,2,-42,-15
4025,0,3,-3,-13,2,-4,10,12
4030,17,-5,-6,8,9,13,40,48
4035,-13,-12,-25,-12,-19,-19,-58,-44
4040,3,7,15,28,20,6,35,-29
4045,-1,2,-21,-32,4,9,-10,-29
4050,-2,12,37,27,28,0,-22,14
4055,7,-1,4,4,-15,4,19,58
4060,3,-4,-24,-15,-8,8,44,14
4065,-8,-12,-14,-11,-17,-16,-62,-59
4070,1,-9,-17,2,-24,-7,-1,24
4075,3,14,48,-8,27,19,-4,-53
4080,-8,-11,-14,-14,-10,-15,31,27
4085,0,0,-1,-1,1,0,17,13
4090,0,0,0,-6,-1,-8,-48,17
4095,-13,-10,-1,4,-4,-8,26,-37
4100,11,-1,-3,-2,-4,10,34,33
4105,-1,3,-4,3,7,-3,40,58
4110,-6,-4,5,8,-5,-14,-70,-49
4115,11,8,1,-29,-12,6,13,50
4120,-10,2,5,-6,-10,1,7,-26
4125,-2,-3,-3,-2,12,2,42,-4
4130,0,0,-12,-10,-4,-5,-7,-12
4135,2,-3,-29,11,-5,-2,-2,21
4140,-9,-11,14,-9,-55,-12,4,3
4145,6,4,-7,-6,9,1,-4,-7
4150,-2,2,41,4,-1,0,28,19
4155,-5,8,11,21,3,-1,-56,-64
4160,-2,-4,-41,-21,-5,-1,-3,2
4165,0,-8,10,38,0,-6,-19,38
4170,2,-2,-9,-34,-5,2,-10,-82
4175,-6,-2,6,-1,-10,-2,64,21
4180,1,0,12,-9,6,-2,-56,10
4185,0,15,20,-15,0,-3,-26,-40
4190,3,0,-5,2,5,0,26,42
4195,3,-9,-11,4,-4,2,21,24
4200,5,4,-5,-3,5,4,-3,12
4205,-2,1,-12,1,-9,-4,26,-16
4210,-6,-7,-3,8,-4,-9,-62,27
4215,2,-4,-21,-24,22,-6,27,-18
4220,-7,2,22,33,-25,1,-7,17
4225,-5,-6,2,-5,-16,-16,-54,-11
4230,9,0,-24,-14,10,15,51,8
4235,-4,1,-4,5,7,6,16,15
4240,1,3,11,-9,19,-7,-15,-30
4245,1,8,10,0,11,15,-35,-37
4250,-7,-27,-36,4,-7,-15,95,103
4255,-9,20,67,8,-6,-10,-99,-100
4260,10,1,-20,20,13,4,-8,66
4265,-9,-11,-50,-44,-14,9,22,-31
4270,-14,-2,14,16,29,-1,-11,-76
4275,0,-2,11,-6,-14,-4,20,77
4280,0,-1,2,8,3,3,26,-32
4285,0,-6,-11,-5,-10,-10,-41,7
4290,4,15,-10,-14,5,5,38,-25
4295,0,-9,8,37,-9,1,0,12
4300,-8,5,8,-5,26,7,-18,-48
4305,5,-1,15,0,1,2,63,111
4310,-2,2,-1,8,33,6,-24,-55
4315,-4,-8,-17,3,-36,-13,-41,-30
4320,-10,-15,-24,-23,4,-15,-34,-37
4325,10,17,35,23,10,13,32,20
4330,8,-6,4,1,-14,7,-37,4
4335,-1,5,-18,-6,11,13,55,12
4340,7,2,-4,16,8,11,46,13
4345,-5,-2,15,-14,-5,-11,1,-11
4350,3,-1,-17,17,-14,-8,-42,0
4355,-1,-3,-8,-11,11,1,19,-16
4360,10,2,-3,-4,1,4,-26,5
4365,-18,-11,-49,1,-13,-16,-36,15
4370,-2,19,38,32,22,19,-4,-91
4375,12,-21,-35,-46,-38,4,52,118
4380,-1,19,29,4,20,5,3,17
4385,18,-6,17,2,2,6,-30,10
4390,-6,-23,-85,-34,-10,-20,24,17
4395,-14,38,103,34,9,-15,-62,-104
4400,12,2,-22,-10,-2,12,59,28
4405,2,0,-10,4,-2,-11,-62,-40
4410,0,-15,-19,-46,-56,3,69,75
4415,14,-12,-47,1,34,13,10,36
4420,-10,9,-18,10,-16,-13,-93,-81
4425,0,16,77,36,37,4,40,-18
4430,7,-10,-6,-28,-33,4,11,74
4435,-13,11,-21,-4,-6,-17,-76,-48
4440,16,-10,-6,3,-12,17,59,104
4445,-25,-20,-10,-17,-33,-17,-19,-102
4450,6,8,16,7,19,-4,-75,49
4455,-7,-8,-27,1,15,6,55,-51
4460,8,20,41,2,-18,-5,-11,20
4465,16,-7,-18,-37,4,20,63,71
4470,-26,-10,14,23,-54,-17,-54,-90
4475,12,16,-4,8,-45,-16,-89,33
4480,-9,-42,-26,-21,-1,-18,20,42
4485,4,38,25,27,18,24,83,-56
4490,11,8,13,1,17,-9,-56,-7
4495,-2,-10,-31,1,-2,13,61,33
4500,-7,-2,19,6,-4,-11,-17,-66
4505,4,-7,-12,-7,-24,-8,-44,40
4510,4,7,-2,17,24,12,37,38
4515,-9,-9,21,-3,10,-13,-76,-16
4520,-24,-10,0,-12,0,-16,15,-86
4525,6,-3,-18,-4,10,5,-11,27
4530,4,-7,-4,-9,11,12,-23,-23
4535,0,3,-16,1,9,13,116,57
4540,-1,19,17,-16,-13,-13,-4,-34
4545,-2,-2,-15,-2,-1,-10,-46,23
4550,-8,-18,-27,2,9,0,-7,-71
4555,6,14,55,-4,-2,5,2,61
4560,11,-6,-74,-12,-10,11,39,1
4565,-13,21,40,22,-3,0,45,-10
4570,13,15,64,22,15,8,27,34
4575,-4,-17,-32,-37,-3,2,15,2
4580,-11,11,1,-5,10,3,-25,-35
4585,-7,-24,-26,4,27,-8,-38,-18
4590,1,11,-11,-8,22,12,42,23
4595,-5,-3,4,31,16,-9,-24,-30
4600,6,-13,-8,-10,-9,5,-26,81
4605,-9,-17,-28,7,12,5,-17,-20
4610,-6,-2,-6,-6,-12,-14,8,-30
4615,0,-13,-1,-5,-3,-2,42,43
4620,-11,-3,-10,-9,13,-10,-55,-35
4625,5,0,8,13,-5,2,-2,19
4630,-7,-4,11,9,-21,-18,-14,7
4635,13,11,-17,-4,-5,12,6,21
4640,-13,4,23,15,16,-2,31,-37
4645,2,1,-12,-14,-15,-5,7,-26
4650,-5,5,17,-1,-7,-17,-42,69
4655,11,-9,5,12,7,10,38,47
4660,-10,-5,12,-24,20,-2,-65,-68
4665,-5,2,-6,-14,-92,-14,31,-11
4670,4,-3,-29,-9,29,11,39,-16
4675,-6,2,36,23,3,-12,-35,-24
4680,7,-10,-20,4,-4,0,-16,50
4685,3,-2,-6,6,25,9,5,-18
4690,-3,-10,-7,-52,-48,-13,-2,1
4695,-14,28,14,12,28,-14,-88,-92
4700,16,-3,2,17,3,23,40,98
4705,-10,-7,-37,0,16,-4,35,-34
4710,6,-3,7,11,-18,-3,-39,45
4715,-3,-10,-29,-10,17,-5,-21,-65
4720,-1,7,-9,5,31,9,51,5
4725,3,5,45,2,-41,-2,-41,34
4730,3,-1,-9,3,11,21,87,22
4735,0,-12,-4,-33,-23,-9,-7,-33
4740,-20,-4,-25,1,21,-23,-128,-104
4745,9,-6,-34,-28,12,13,21,48
4750,-5,9,13,11,6,-1,24,-40
4755,8,-11,-47,-6,-6,15,45,21
4760,3,29,64,22,-16,2,39,37
4765,-5,-18,-10,1,27,-7,-67,4
4770,-6,10,-14,16,-5,-9,-15,2
4775,-4,7,11,-6,-16,-5,-29,-59
4780,-1,-16,5,-6,29,2,21,-2
4785,4,-9,-26,9,8,1,11,17
4790,17,42,49,8,-34,2,13,92
4795,-20,-4,39,40,10,6,-21,-86
4800,3,-7,-2,-31,-76,-8,16,39
4805,-13,6,9,-3,-7,-23,-2,-31
4810,2,-24,-33,2,20,21,64,39
4815,4,-3,13,-24,-5,2,2,7
4820,5,12,7,9,-6,4,-9,-1
4825,-1,0,-21,-16,16,7,18,6
4830,0,-14,-29,-6,-22,-9,-8,-1
4835,1,2,15,6,21,7,22,45
4840,-13,-11,-16,9,11,-2,-31,-77
4845,-3,-5,16,-10,-9,6,37,-13
4850,-8,6,-4,-6,8,-8,-28,-22
4855,9,0,-10,-6,8,-5,-62,70
4860,-13,-10,-4,16,-2,-2,62,-79
4865,12,18,20,-4,6,11,20,45
4870,-7,1,16,-5,-19,-3,-47,-21
4875,-8,-1,-43,-22,24,-17,-91,-57
4880,15,30,79,40,34,11,43,52
4885,-7,-10,-10,3,-13,-11,-8,-29
4890,-5,-3,-5,-16,-28,-4,-21,-56
4895,3,-5,-28,2,1,8,87,59
4900,-1,-8,11,23,9,-6,-48,-9
4905,3,12,39,5,5,13,15,35
4910,-1,-5,-11,0,15,-9,-21,21
4915,-9,-19,-46,-14,-22,-3,46,-10
4920,16,8,14,-6,-12,-6,3,73
4925,-2,1,8,14,2,2,-14,-27
4930,-4,-3,-1,2,8,10,-9,-47
4935,4,-1,11,-5,-4,-5,13,21
4940,-7,-16,-34,-10,1,-2,15,19
4945,20,17,17,-1,-5,-2,-24,20
4950,-7,1,-2,9,46,-5,11,-28
4955,-5,-2,13,15,-62,-13,9,-56
4960,2,-8,-24,-28,-32,1,12,54
4965,-11,-12,-35,-7,11,-8,-68,-42
4970,11,3,40,11,11,-4,-17,-28
4975,8,10,21,-1,-4,18,4,51
4980,-15,-13,-41,-10,0,-24,-26,-46
4985,2,-5,-9,-25,8,4,66,65
4990,7,-5,2,-5,-59,-9,-61,73
4995,-7,3,-7,-11,27,15,-7,-104
5000,1,3,17,-1,-3,5,-5,38
5005,3,-8,-6,3,-9,-8,1,17
5010,-3,15,13,12,35,2,15,-2
5015,-7,-6,6,-4,-11,-8,9,-1
5020,5,-1,-18,-13,-9,4,-17,24
5025,0,1,5,8,7,6,2,-23
5030,10,-10,-30,-11,-2,8,-10,90
5035,3,8,-49,-17,1,9,9,-37
5040,-6,5,75,50,35,-6,21,-41
5045,-14,-12,-34,-25,-16,-18,-68,-9
5050,5,8,17,26,12,9,17,-27
5055,-3,-7,0,-2,1,0,35,48
5060,7,-5,-42,-2,-20,1,-56,10
5065,0,6,14,12,2,2,4,-31
5070,-10,-12,-23,-16,6,-2,26,-46
5075,9,0,16,6,6,1,6,77
5080,7,5,-4,-9,-2,7,-37,-41
5085,3,-20,-8,6,-23,16,99,64
5090,-2,31,0,11,51,-6,-56,-51
5095,-17,5,72,51,-1,-28,19,-23
5100,-4,-4,-18,-36,4,-1,-29,2
5105,3,7,31,15,3,2,-19,-6
5110,1,-14,-21,-2,1,12,42,22
5115,4,-3,-6,5,-7,0,-23,21
5120,0,1,-16,-9,-1,5,7,-26
5125,-3,1,-4,-2,2,-5,-36,-9
5130,-4,-9,6,-11,-16,-1,32,-22
5135,14,3,3,-10,8,9,37,80
5140,-15,-8,-4,-8,-17,-13,-25,-62
5145,9,-12,-39,-14,-2,17,-13,66
5150,-22,18,35,12,-44,-47,-52,-23
5155,-5,-4,18,-38,-3,-1,-31,-61
5160,12,2,-17,10,16,1,-8,66
5165,-3,10,-3,6,-1,0,29,-32
5170,6,-13,9,16,13,14,18,69
5175,2,-9,-11,-11,-28,6,7,-31
5180,1,-4,-18,-15,-35,-6,2,66
5185,-18,-1,-26,-4,23,-11,19,-116
5190,16,4,44,39,8,7,26,56
5195,1,2,-12,-32,-8,4,4,54
5200,-4,-1,-1,3,10,3,-1,-78
5205,2,3,-5,5,-15,0,19,90
5210,-2,-7,-14,-27,-2,5,-24,-32
5215,-7,-4,-24,18,15,-11,-31,-28
5220,8,4,-1,-11,-71,1,-1,31
5225,4,6,49,5,22,3,8,-9
5230,-15,-9,-22,1,-8,-8,-42,-48
5235,0,-2,4,-21,0,-4,-19,-26
5240,-3,-1,9,3,17,11,50,41
5245,-4,0,12,3,-7,-2,53,-7
5250,4,-4,-11,-18,6,1,-18,1
5255,10,-12,-56,11,-12,2,-23,37
5260,1,15,53,25,22,14,71,13
5265,5,4,35,21,18,-2,-18,-18
5270,-11,3,-8,-11,3,-5,16,-44
5275,-4,-10,-22,-3,0,-7,-28,40
5280,-7,-4,-19,-3,3,-7,-15,-46
5285,1,1,-3,-5,-7,-3,-20,27
5290,8,-4,-22,-10,-3,13,20,21
5295,0,9,31,19,12,4,-3,-35
5300,-6,-15,-60,-70,5,1,-7,-52
5305,2,19,96,65,46,1,-22,13
5310,-16,-11,-11,-29,-62,-27,-49,-11
5315,-6,7,11,13,9,3,48,-7
5320,6,0,3,12,5,-1,-6,28
5325,-4,-11,-49,-30,-21,0,14,-23
5330,4,0,2,-8,12,9,8,-10
5335,7,4,14,13,6,5,12,34
5340,4,-8,-9,11,-2,2,-19,-11
5345,-21,-5,-50,-32,-44,-44,-84,-32
5350,-5,17,94,40,36,21,9,-43
5355,-10,-1,-40,-60,-11,-19,24,10
5360,5,6,3,34,19,7,37,24
5365,1,-1,-4,2,-5,4,-13,12
5370,8,-2,-14,-4,4,5,19,14
5375,3,-5,-4,9,-2,7,13,-12
5380,-4,3,16,0,-2,-11,-29,-4
5385,4,2,0,-7,0,6,14,16
5390,-6,-5,-30,-7,-5,-2,-31,-43
5395,22,10,31,25,15,19,86,90
5400,-20,-13,-26,-33,-36,-30,-98,-86
5405,-14,-15,2,-5,41,-6,56,26
5410,0,2,34,72,-25,-10,11,16
5415,-3,10,11,-8,0,-3,-58,-30
5420,8,6,10,0,11,7,1,19
5425,11,-7,-29,-20,-27,8,39,33
5430,2,-16,-68,-7,-54,-4,30,-17
5435,4,27,75,10,35,22,15,24
5440,4,4,64,44,4,0,-51,35
5445,-1,-1,3,-7,-5,-14,-12,-27
5450,3,1,-18,-24,15,4,13,7
5455,2,-10,-29,10,-20,1,-1,1
5460,4,-4,-24,-19,8,4,43,29
5465,1,-1,31,8,-20,1,-38,-34
5470,2,9,25,-20,61,0,26,55
5475,-16,1,-21,-16,11,-3,-5,-110
5480,-12,-5,-1,4,3,-14,30,9
5485,10,2,-13,8,0,10,16,31
5490,-4,-5,-13,-17,-2,-9,-54,-35
5495,-2,-12,-48,-13,-16,-17,-121,-33
5500,1,2,7,15,40,21,98,50
5505,12,16,-11,12,4,3,13,31
5510,-9,-3,15,-14,20,4,45,-81
5515,2,-5,-8,2,-7,8,17,38
5520,-6,-12,-14,9,-12,-7,-7,-3
5525,4,11,-17,-36,-7,3,7,-10
5530,3,2,12,17,41,-6,-49,39
5535,5,-13,-8,13,7,-3,44,16
5540,-11,-2,-15,-5,-9,-13,-72,-52
5545,-1,6,20,8,22,11,17,33
5550,-9,0,12,-14,-21,-6,22,-22
5555,-6,-5,-29,-27,-5,2,-33,-27
5560,10,4,21,8,-10,9,71,29
5565,-4,-4,-25,14,32,-5,-72,-46
5570,-2,-2,34,3,-24,-3,7,25
5575,1,-5,23,9,-1,-4,5,23
5580,0,15,19,-6,-3,3,-28,-18
5585,-7,-10,-58,-9,-21,-5,25,30
5590,-6,-1,-22,-1,-5,0,-29,34
5595,-3,-5,48,1,-13,-8,33,6
5600,-8,2,-28,3,4,-8,8,-96
5605,4,-12,26,-4,-3,15,-9,-2
5610,-7,-10,-54,-24,-20,-24,-59,7
5615,-7,4,6,11,15,-3,30,56
5620,11,-8,-23,-14,-28,6,-4,32
5625,-7,-7,-26,10,-14,-15,-27,-6
5630,0,-4,-28,20,-3,3,72,-14
5635,-4,8,63,-34,5,-4,-51,-81
5640,4,-4,-21,-1,3,-7,13,62
5645,1,-2,23,9,-4,0,-12,0
5650,5,6,10,-24,-23,-1,6,10
5655,-6,-14,-71,39,9,-5,-16,-3
5660,12,20,66,-38,22,12,34,68
5665,-15,-17,-20,-26,-4,-4,-51,-107
5670,8,-4,-24,-12,-30,4,55,11
5675,-8,-1,-7,8,32,-9,-17,-6
5680,8,3,18,-2,0,23,51,50
5685,-10,-8,10,15,-12,-30,-30,-59
5690,-1,-5,0,-23,1,1,-8,-7
5695,2,23,15,23,-13,5,1,-3
5700,3,-6,-19,15,5,2,-14,16
5705,-12,-1,0,1,-11,-8,-9,-50
5710,5,-7,-10,-16,6,16,63,111
5715,-4,-10,-34,3,-59,-17,19,-57
5720,-7,5,44,14,17,-5,-23,-23
5725,1,1,6,7,6,8,-5,-26
5730,-1,1,3,0,15,-4,-22,4
5735,9,3,4,8,8,10,-35,20
5740,-7,-10,-27,-10,-19,-8,12,-25
5745,15,6,29,9,4,14,42,76
5750,-8,5,6,17,2,-8,-23,-78
5755,-5,-6,28,-30,-10,-2,25,29
5760,4,-1,0,5,19,4,-20,15
5765,-10,-2,-13,-18,-3,-7,6,-43
5770,7,9,-2,18,18,15,9,-15
5775,6,-2,11,8,-7,0,-8,40
5780,0,-14,-28,-19,-19,-11,-32,-38
5785,-1,12,23,1,3,-2,7,40
5790,-8,-5,51,-32,-8,11,69,6
5795,-3,2,1,15,44,1,-67,-51
5800,-10,-8,-45,-4,-23,-15,-3,-31
5805,11,1,-3,-3,12,2,14,47
5810,2,-4,-6,9,-15,-2,-31,-16
5815,6,4,-1,-5,-5,8,-6,5
5820,-4,-17,-24,-21,2,-6,0,42
5825,-5,4,16,15,21,-2,23,12
5830,2,-1,-31,-9,0,0,-29,-7
5835,-9,-1,21,2,-24,-11,6,-6
5840,-10,9,26,16,10,-8,-59,-75
5845,1,-6,2,-10,-9,1,17,12
5850,10,2,16,10,9,7,6,41
5855,-2,-13,-43,-22,-3,-4,11,4
5860,-3,0,5,2,-15,-2,2,-19
5865,4,5,7,-1,-6,6,-7,27
5870,9,2,-13,24,26,18,16,-11
5875,-17,-10,-16,-30,-35,-31,-39,-68
5880,-7,-3,19,-2,1,1,20,48
5885,-10,-11,-28,14,-12,-3,-3,-30
5890,-7,3,0,-2,-24,-2,-15,-21
5895,13,7,11,12,24,17,55,34
5900,8,13,9,5,-2,7,11,12
5905,0,-12,-21,-17,-13,-5,-23,-8
5910,-2,-6,1,-3,-2,-6,-21,-2
5915,0,-2,2,2,1,5,9,14
5920,-2,-11,-13,-4,-2,-3,-1,-13
5925,3,6,12,6,3,0,-2,0
5930,-3,3,1,0,5,-7,-16,-10
5935,23,5,-8,1,4,20,11,79
5940,-6,-2,-10,13,25,19,74,-55
5945,-28,-10,0,2,-20,-33,-91,-79
5950,2,15,20,-15,17,11,63,64
5955,-6,2,25,11,1,4,-1,-54
5960,17,0,-17,-3,-10,0,0,112
5965,-1,-2,-34,2,-12,5,20,-46
5970,-7,-9,28,-46,-8,-1,-9,-11
5975,-1,-4,-4,27,6,-8,41,23
5980,5,9,16,7,10,4,-10,25
5985,2,5,13,-31,0,1,2,-28
5990,-11,-14,-65,-5,-9,-17,-73,-46
5995,2,4,55,24,-3,8,29,32
6000,-6,-1,21,1,-13,-9,-8,-68
6005,8,1,3,-9,2,8,6,61
6010,6,5,-15,33,5,-4,-14,-8
6015,-6,-4,-23,-17,-1,14,10,-80
6020,-17,-11,-24,1,2,-26,-77,-10
6025,-2,1,30,7,-9,0,2,27
6030,6,-2,11,18,14,10,73,31
6035,-4,0,-49,-22,2,-17,-50,-11
6040,12,27,75,7,-5,5,-1,-8
6045,11,-6,-21,-10,2,12,69,85
6050,4,11,28,12,4,-3,-10,11
6055,-17,-18,-34,11,-7,-11,-10,-59
6060,-11,-19,-84,-48,-7,0,-9,-59
6065,5,16,81,12,7,2,-3,48
6070,1,1,-3,-13,-15,-8,-19,20
6075,3,5,-8,21,20,-5,-4,6
6080,-1,-9,-47,0,13,-4,-19,13
6085,2,3,9,0,-8,8,6,1
6090,-9,-11,-16,-4,-59,-11,0,-23
6095,0,-2,6,-22,-7,-3,-29,48
6100,5,10,34,7,12,7,23,-58
6105,-8,-8,-35,-9,-6,-11,8,17
6110,0,-4,9,9,13,0,-17,17
6115,2,2,13,-15,-7,3,23,4
6120,5,-3,-10,7,-11,8,34,40
6125,-1,-4,-35,14,7,-7,-82,-58
6130,6,17,16,-36,-33,-1,61,84
6135,-10,-3,26,-27,38,8,38,-70
6140,-2,-7,-14,30,-4,-5,-1,29
6145,-5,-1,1,-9,6,-2,-40,-53
6150,0,-6,-9,17,17,-3,-15,-1
6155,8,4,6,-2,-20,2,2,48
6160,1,-4,14,-11,-2,5,23,22
6165,6,-11,-42,3,0,8,26,-7
6170,4,23,60,4,6,6,-50,9
6175,-6,-7,-16,7,8,-7,2,28
6180,-9,-1,-25,-14,21,-10,-5,-89
6185,-12,-4,40,33,-42,-19,-54,3
6190,2,0,-24,-20,17,13,27,15
6195,3,0,1,-5,-8,3,-11,-15
6200,6,6,8,-5,-4,2,3,37
6205,5,1,-8,-11,16,5,47,12
6210,-5,-14,-5,12,14,0,-14,-41
6215,-1,3,-1,2,-19,-7,-23,4
6220,-2,-2,10,2,-12,-4,-9,9
6225,2,-8,-6,-4,10,7,18,-2
6230,16,25,11,4,1,-5,-63,19
6235,-17,-6,-16,1,11,12,98,-47
6240,-25,-7,27,3,-33,-50,-70,-30
6245,2,-2,8,-3,4,0,52,17
6250,-12,-8,-23,-7,-10,-6,-1,-78
6255,14,-1,-7,-6,5,12,26,71
6260,9,3,3,4,10,20,28,11
6265,5,1,-15,13,5,4,-9,44
6270,-8,-9,-6,15,-11,-16,-76,-82
6275,0,1,-5,-8,-18,1,49,8
6280,1,-7,-16,-7,4,3,27,26
6285,-11,6,31,11,31,-28,-98,-89
6290,-4,-18,-52,-19,-13,10,86,59
6295,-3,0,36,16,19,-16,-90,27
6300,-2,-1,-12,3,-1,10,5,-19
6305,7,6,-39,-24,-8,19,84,66
6310,-1,1,24,35,7,2,37,-18
6315,3,4,-24,-29,5,-14,-79,-14
6320,-3,-3,21,11,-5,0,-16,1
6325,-1,-1,1,-25,-14,-4,-1,-13
6330,-5,-3,-19,4,20,-3,16,-31
6335,8,-2,-30,-5,-26,8,18,77
6340,0,3,26,5,13,1,3,22
6345,-8,4,-4,-4,-9,-4,0,-36
6350,6,-6,-18,-12,-5,0,10,86
6355,-5,-3,59,31,7,-1,-40,-103
6360,4,10,-12,-12,4,5,-11,-1
6365,-14,1,7,-2,-3,-5,47,-1
6370,-4,0,9,3,4,-6,-37,18
6375,6,-11,-61,-4,-9,-1,-9,50
6380,0,1,31,7,-5,7,48,-29
6385,14,10,13,3,14,12,49,12
6390,-8,-6,13,-2,15,3,-74,-49
6395,-13,-1,-13,-1,-25,-24,7,-33
6400,3,-7,-33,-3,0,-3,-47,-4
6405,5,1,2,4,4,6,32,47
6410,3,-9,-23,-11,-10,3,27,7
6415,-7,0,19,24,17,-5,-55,-49
6420,-2,2,32,-10,-62,-13,5,26
6425,5,1,-5,11,5,11,-45,-20
6430,-6,-5,8,4,6,-8,21,-2
6435,-3,-4,-6,-3,-7,6,50,26
6440,13,-6,-60,-16,9,10,-13,41
6445,-11,15,54,-2,11,-8,-6,-44
6450,2,-7,14,-13,-32,-2,-26,8
6455,-8,-7,-15,-49,42,-2,-4,-34
6460,-1,9,28,18,-2,3,26,17
6465,-2,-14,-26,-1,1,1,-26,8
6470,-1,-8,-19,-2,7,2,11,-12
6475,6,14,35,2,-18,-1,25,0
6480,7,-4,-26,-32,11,7,-14,21
6485,-14,-8,-3,-1,-11,-9,-5,-61
6490,-9,-2,7,-5,2,-11,-46,-4
6495,3,1,-9,9,-11,-2,32,21
6500,-14,-8,3,12,4,-10,-8,-24
6505,15,11,-3,6,0,11,28,53
6510,0,1,11,-2,14,7,-31,-68
6515,4,-1,-1,7,-2,-4,-30,31
6520,2,-10,-23,-29,-11,-1,-6,-21
6525,-6,-1,4,-33,22,9,-39,11
6530,0,-6,-12,11,-38,-14,29,72
6535,-7,10,42,-9,6,13,-12,-102
6540,0,1,-40,9,-2,-2,11,-4
6545,4,1,24,29,-3,3,1,44
6550,17,2,1,-4,17,10,-5,33
6555,-9,-12,-57,0,19,-2,1,-47
6560,5,17,105,33,-11,2,36,51
6565,-11,-9,-29,-16,17,-22,-81,-53
6570,-3,-4,0,5,10,4,51,7
6575,2,-4,-14,-1,0,-2,-11,35
6580,3,1,-22,-11,7,2,-9,-19
6585,10,-9,5,21,-15,-8,-44,44
6590,-20,-3,19,-10,4,-3,60,-68
6595,9,10,30,-3,-1,7,-35,63
6600,-6,1,-12,-2,-39,-8,25,-56
6605,7,-9,-28,-3,-4,1,19,60
6610,4,0,-13,-2,-4,0,-16,-24
6615,5,-4,-10,-5,-3,-3,0,45
6620,-22,-11,4,17,20,-5,-40,-12
6625,-2,-3,-11,-8,0,2,24,-14
6630,3,8,5,4,8,12,11,-28
6635,4,-6,-38,5,-13,-4,79,72
6640,2,13,82,16,27,-1,-25,-51
6645,11,-3,-65,-10,-43,2,45,54
6650,-11,5,43,-3,27,-2,-38,-14
6655,-6,-17,-30,19,1,-11,-71,-98
6660,12,1,-31,-23,-13,3,15,81
6665,-7,3,29,16,34,-1,17,-57
6670,5,5,-13,24,-18,-6,-14,28
6675,6,1,1,-27,-3,-5,28,93
6680,-2,-10,-6,7,18,4,16,-91
6685,9,10,-13,-7,-15,14,54,33
6690,-6,0,17,12,17,-5,7,37
6695,-5,1,-15,2,0,1,12,-28
6700,-5,1,5,-3,-7,-8,-74,-4
6705,6,-1,5,-17,-1,-4,-30,24
6710,-1,-1,-22,-13,3,1,39,-77
6715,-8,-10,-9,5,-8,-4,14,-54
6720,7,3,14,-23,3,25,39,99
6725,-10,1,6,5,0,-20,-30,-89
6730,2,-4,-14,16,17,7,6,63
6735,11,5,45,-11,-41,1,-22,70
6740,-12,-20,-39,-31,11,-3,-25,-99
6745,-1,26,82,62,52,12,19,15
6750,7,-4,-14,-12,-19,-10,-23,26
6755,-6,-2,26,4,-7,0,-23,-83
6760,5,1,-10,-7,4,1,24,100
6765,-6,3,-23,-33,-28,3,-18,-68
6770,13,7,-5,-3,-19,7,69,84
6775,-3,5,28,22,17,4,4,-7
6780,-11,-1,-5,-13,5,-26,-103,-85
6785,-2,-18,-59,3,-5,6,52,24
6790,-1,8,62,10,3,0,-32,-11
6795,-1,6,-3,6,-5,-3,-4,-38
6800,6,1,1,-2,-22,2,9,52
6805,0,0,-6,13,10,2,-12,-29
6810,-8,-10,-20,-11,-3,-1,-13,-33
6815,5,3,0,-9,6,9,40,47
6820,1,0,4,23,26,2,33,9
6825,-7,-9,-2,-18,-42,-6,-7,-15
6830,7,5,-8,-17,-15,-15,-27,8
6835,-6,6,14,10,10,6,14,-49
6840,-3,2,-1,34,7,-5,-15,-11
6845,-3,-10,-6,-39,-10,0,-19,-1
6850,-1,4,-21,8,12,6,50,23
6855,3,4,16,1,4,1,0,15
6860,4,-3,-10,10,-11,-1,-11,54
6865,9,-3,5,-8,5,-1,12,-1
6870,-13,-2,-38,-20,-44,-7,-17,-111
6875,-4,-9,19,26,25,-5,-37,10
6880,-11,8,17,-16,-9,-21,45,-41
6885,-3,-4,-5,-2,-12,-1,4,20
6890,-6,-7,-31,-9,7,-1,-27,-3
6895,8,-1,-1,-6,7,4,-5,22
6900,5,-6,-18,-3,1,15,52,4
6905,5,10,8,12,5,-1,-38,44
6910,-7,-15,-15,-2,22,-18,-94,-72
6915,2,8,35,18,-28,10,97,53
6920,-13,-2,-10,5,-16,-8,-16,-60
6925,5,-1,6,17,2,-3,30,49
6930,0,2,26,9,19,6,-1,-7
6935,-1,-3,-9,-7,-9,-9,-56,15
6940,6,1,-19,-2,6,5,1,3
6945,-3,-8,-11,1,-7,-3,1,-5
6950,3,3,19,-5,-7,2,12,10
6955,5,0,-48,-18,8,4,10,31
6960,-5,-1,36,12,-7,9,38,7
6965,-19,1,3,-14,8,-12,-61,-110
6970,-9,-4,-4,40,-6,-10,-45,56
6975,1,-11,0,-27,-5,-1,15,40
6980,7,17,2,-8,17,10,-33,-10
6985,9,-14,-47,-35,-7,0,6,64
6990,1,27,84,61,-39,6,29,-47
6995,1,5,43,13,-16,-1,-17,-75
7000,5,-1,-28,-4,-6,-1,14,63
7005,-2,-6,-1,1,-9,-13,-14,52
7010,-10,-14,-31,-34,-2,-3,13,-72
7015,-5,-5,-29,2,10,-1,-10,-12
7020,0,2,7,-5,-3,-1,14,-40
7025,0,8,32,3,15,5,4,39
7030,0,-5,-15,-18,5,2,-9,-19
7035,-6,-1,1,-4,-6,-12,-17,-5
7040,-8,-12,-20,-5,1,-18,-16,-20
7045,-5,-3,1,7,3,5,33,10
7050,17,3,-9,-22,13,16,48,73
7055,-5,4,-9,1,-4,-5,-42,-79
7060,-2,-3,-3,6,-2,-4,-16,22
7065,-1,-1,8,8,2,6,23,-63
7070,12,0,-44,-22,-8,6,69,71
7075,-11,4,26,40,7,-9,-73,-56
7080,-6,-13,-15,5,17,3,55,57
7085,5,9,37,3,-4,2,-21,11
7090,-9,-13,6,-9,3,1,47,-43
7095,-10,-10,-15,6,37,-14,0,10
7100,8,10,-14,-21,15,6,-5,24
7105,-11,-3,4,9,-34,-14,-43,-25
7110,3,-4,-8,-19,-9,4,-3,23
7115,-4,0,8,-3,6,-4,18,9
7120,-2,-4,-3,-3,-8,0,-10,-4
7125,8,5,-12,-5,11,14,36,0
7130,1,-4,-8,3,4,-3,-33,17
7135,-6,7,11,-8,-10,-3,-32,-37
7140,3,2,-10,-4,-16,-1,3,-4
7145,-9,-2,-6,-8,6,-8,0,-37
7150,-1,-1,14,10,3,-4,-11,11
7155,7,-6,-26,-14,-8,5,41,67
7160,-1,-5,18,8,-5,-6,-36,-1
7165,13,4,-28,2,2,11,32,-3
7170,-14,-9,25,-11,9,-14,-60,-48
7175,8,3,10,-18,-11,8,28,35
7180,-13,-1,1,-1,-2,-20,-77,-46
7185,-7,0,17,1,5,2,15,-4
7190,5,1,-40,1,6,0,-14,38
7195,8,-1,-5,4,-6,15,32,-3
7200,2,-2,17,-28,-6,-1,-22,-31
7205,1,-10,-43,-5,19,-1,-1,64
7210,0,-1,10,29,-39,-10,2,14
7215,-8,6,2,-15,-24,-5,-37,-48
7220,-5,1,6,13,-38,10,45,19
7225,-2,0,-18,2,16,-8,-44,-21
7230,-5,-10,0,-10,5,1,-3,14
7235,8,-5,-47,-9,-1,15,96,62
7240,2,2,-7,8,-9,-4,-45,-47
7245,-2,4,49,8,-23,-6,22,-8
7250,6,6,1,-10,15,8,50,34
7255,-1,3,-9,1,-1,-7,-46,-59
7260,6,1,-6,-5,15,8,17,34
7265,-10,-5,-4,-7,-5,-7,-27,-58
7270,4,7,8,5,14,1,8,13
7275,7,3,9,4,12,4,-2,37
7280,6,-18,-45,-5,-7,0,9,43
7285,3,22,55,4,12,-8,14,-22
7290,-8,5,10,7,2,0,-25,-70
7295,-3,-13,-36,-22,-13,-13,29,3
7300,-12,-5,-5,12,5,-22,-50,-18
7305,7,-4,-12,0,-4,10,28,19
7310,5,-4,0,-4,7,5,-1,11
7315,-1,-2,-2,-6,2,1,10,16
7320,2,3,-2,4,8,7,25,-17
7325,2,-4,-2,17,-4,-2,-39,-6
7330,7,5,-8,1,-4,15,71,76
7335,-10,-3,29,-6,21,-4,17,-89
7340,3,11,33,13,1,-2,3,32
7345,-25,-17,-27,-27,-7,-26,-17,-82
7350,-4,0,3,27,7,2,-5,9
7355,9,6,-4,2,-5,6,11,19
7360,8,2,16,-2,7,9,22,14
7365,1,-6,-12,-3,-2,6,5,6
7370,-3,-14,-21,-16,-5,-11,-18,-27
7375,3,7,-14,-15,0,-2,-17,44
7380,-3,4,33,44,-56,-2,-20,-53
7385,-7,-1,-5,13,48,1,34,-31
7390,-3,-3,4,-3,-11,-14,-81,13
7395,-4,-2,5,-12,-1,-10,-41,-25
7400,-10,-11,-18,-11,11,-7,-32,16
7405,7,4,2,13,-16,7,14,21
7410,2,-2,-14,16,5,5,21,-12
7415,10,1,16,-23,17,-7,-45,69
7420,-10,-1,-12,-5,24,10,24,-71
7425,-2,-2,31,-7,-9,1,60,64
7430,-4,1,-27,-19,2,-13,-65,-27
7435,-13,-10,13,12,-11,-13,-55,-6
7440,5,9,4,-1,14,5,40,28
7445,6,-2,-18,-5,2,7,-32,-24
7450,5,13,26,2,-31,2,14,31
7455,-6,-7,-5,-19,21,14,77,30
7460,1,1,12,8,8,-6,-52,-12
7465,-13,-14,-21,-10,-13,-6,1,-35
7470,3,11,12,3,0,0,14,11
7475,-1,-3,-13,22,-2,0,-22,-12
7480,3,3,-21,-16,-14,-3,51,28
7485,8,-1,0,-16,-9,4,-27,67
7490,-2,-1,-33,-7,9,4,11,-14
7495,4,0,11,-6,-18,5,31,-18
7500,-6,2,7,19,59,-9,-34,-21
7505,2,9,23,36,2,-3,-27,5
7510,-2,-7,-17,-52,9,5,49,1
7515,9,3,-11,6,-7,-5,-32,18
7520,-4,-10,0,-2,-7,-3,1,-36
7525,8,2,-8,5,-13,-3,-22,45
7530,0,4,29,-18,-14,-2,69,34
7535,-7,-11,-30,-1,4,7,-9,-28
7540,-4,13,48,-1,-11,-11,-25,4
7545,-7,-5,-5,-4,-2,-7,-8,-42
7550,9,-1,-20,2,-9,-3,-4,43
7555,0,-1,17,2,-4,6,23,-50
7560,12,2,-6,-4,-4,5,-1,81
7565,-15,-4,6,0,-8,-15,-53,-94
7570,-8,-3,3,7,20,5,7,30
7575,-2,-9,-28,-44,-21,-6,13,-21
7580,2,3,6,13,43,13,42,25
7585,9,11,32,5,14,5,-15,28
7590,-9,-5,-21,-11,3,1,-5,-68
7595,-12,-2,26,60,0,-12,-81,-66
7600,2,-12,-27,-47,-24,-3,100,63
7605,1,11,-15,1,6,-7,-32,-27
7610,-6,-4,-3,6,13,-3,-11,-11
7615,6,9,24,25,41,4,0,22
7620,5,-4,15,-35,-9,8,-24,4
7625,12,3,-25,-8,38,12,120,86
7630,-15,-14,34,3,-54,-22,-72,-70
7635,8,10,3,17,36,16,20,-7
7640,-15,-25,-51,-17,-33,-27,-70,-62
7645,8,20,49,9,5,19,39,55
7650,-1,-5,-19,-9,51,2,-11,-47
7655,-2,-8,26,-10,-11,6,65,77
7660,8,12,11,27,0,6,-7,7
7665,-12,-9,2,-60,-15,-8,-42,-43
7670,1,-1,-3,21,-18,-4,-3,-33
7675,-5,-2,-13,-16,-36,-8,13,11
7680,-10,-8,-11,-3,-6,-13,-40,-60
7685,6,-8,-27,22,-13,-1,10,49
7690,-4,0,45,-10,-8,6,-56,-45
7695,-6,5,-13,4,14,-6,12,13
7700,8,-7,-22,-3,-14,13,49,52
7705,-7,7,16,16,-20,-9,-32,-47
7710,-1,-1,-4,13,-3,-6,-79,-52
7715,9,-9,-32,8,-5,-7,7,95
7720,-12,4,15,-4,-8,0,22,-109
7725,4,-2,2,18,8,8,-14,18
7730,9,-2,-10,-14,-5,5,28,23
7735,1,8,-17,-14,-15,3,8,12
7740,7,1,29,19,1,1,-28,38
7745,3,-9,-5,0,1,14,79,25
7750,-4,3,3,12,15,-10,10,-13
7755,-4,-3,9,4,-12,-6,-24,-38
7760,1,-5,-32,-24,27,3,-5,44
7765,2,-2,29,15,-3,0,-55,-40
7770,-1,1,-19,28,6,3,48,43
7775,0,-3,32,10,5,4,18,-42
7780,-1,10,-7,-17,-1,1,14,30
7785,-3,-5,-10,1,-3,-12,-21,26
7790,5,11,11,22,19,17,63,-24
7795,7,-1,-5,-30,-14,3,0,12
7800,-7,-14,-50,14,-35,-22,-76,-14
7805,1,14,53,-9,-4,10,63,-62
7810,-7,-7,2,1,-17,-5,-54,-20
7815,-11,-8,-45,-7,-22,-15,-69,-17
7820,-1,11,55,26,58,17,33,-4
7825,4,-15,-69,-35,-8,0,37,79
7830,0,8,27,-6,6,-3,13,3
7835,0,-5,3,-3,-18,8,-3,-56
7840,7,-4,-21,-7,7,1,0,59
7845,-13,-7,-37,0,18,-14,-3,-65
7850,5,8,22,-19,-1,8,27,44
7855,-1,-2,-4,-2,3,-10,-57,30
7860,-11,2,8,5,-15,-1,3,-71
7865,2,-2,-10,-1,-2,-2,13,24
7870,9,-11,-19,-6,9,12,22,20
7875,-4,12,17,55,37,-10,39,63
7880,-3,-3,4,-7,-5,0,4,-68
7885,-2,-2,2,-4,-14,1,-38,-51
7890,2,-2,-6,1,9,2,17,54
7895,5,-3,-23,-5,-9,-6,12,26
7900,1,4,15,-18,-43,-2,-18,-52
7905,-8,-2,19,41,63,7,-6,1
7910,1,0,-13,-9,-12,-15,0,31
7915,6,3,0,-7,0,8,-8,-25
7920,-4,-14,-7,-1,-43,1,37,5
7925,1,-2,-17,-39,-30,-2,2,11
7930,0,2,-16,18,32,3,-27,6
7935,-4,-5,2,-5,-16,-3,-27,-33
7940,2,0,1,-53,-33,8,97,23
7945,-13,-1,9,-2,-19,-27,-103,-19
7950,3,-2,3,1,-6,5,46,34
7955,3,-2,-17,-16,-3,-13,-13,6
7960,0,1,-25,18,24,-3,-4,-30
7965,4,16,22,11,-4,10,47,56
7970,-2,-8,17,-20,-29,-1,-17,-36
7975,1,2,4,0,22,4,-6,20
7980,-1,-5,-28,5,17,5,1,1
7985,1,-1,-8,3,-3,1,0,-6
7990,2,1,30,-1,-27,-8,-89,-27
7995,-11,-2,-7,9,17,1,90,-27
8000,2,-3,14,53,22,-6,-52,33
8005,7,-2,-7,-12,-4,13,39,32
8010,-3,-3,-6,-7,-15,-12,-15,-25
8015,-2,4,5,-7,25,-2,-34,-12
8020,-5,2,25,-15,6,-11,-18,-7
8025,-3,-14,-22,0,2,2,14,-7
8030,7,6,-18,3,-3,5,40,85
8035,-17,-11,10,-22,5,-19,-48,-113
8040,4,10,-2,20,12,3,10,51
8045,6,-13,-25,-11,2,8,28,32
8050,5,11,34,7,-1,9,-3,-19
8055,-13,-6,-4,2,1,-3,-3,-16
8060,2,5,31,46,13,-4,-43,17
8065,-5,-9,-9,-37,-14,1,50,-9
8070,-7,-4,-47,10,14,-4,-67,-87
8075,7,12,44,1,-21,6,53,83
8080,-5,-5,-7,-20,-13,2,-1,-23
8085,5,12,24,10,-14,-4,-20,3
8090,-4,-1,-14,8,40,4,28,-4
8095,3,3,5,-3,-8,0,26,-21
8100,-1,-10,-30,-17,-20,-10,-38,-12
8105,-4,1,23,17,24,4,7,0
8110,10,12,11,-4,33,9,-9,30
8115,-6,-2,-4,15,-64,-4,-7,-32
8120,-1,-6,1,3,11,-2,30,22
8125,-3,-6,-13,-2,-19,-6,0,10
8130,-7,-3,-3,-32,-11,-12,-49,-43
8135,10,-2,15,17,23,12,24,127
8140,6,-2,-23,-7,4,10,9,-81
8145,-16,-2,-1,1,-11,-20,-33,-25
8150,-4,-3,-35,2,-2,-7,-15,44
8155,-3,-3,28,1,-10,-5,-38,-51
8160,2,2,-13,-32,-6,5,28,58
8165,9,-1,-3,29,27,7,3,-11
8170,-1,-7,20,17,-2,-1,91,46
8175,1,-1,-28,8,-8,-16,-58,-21
8180,-7,1,12,14,3,-5,12,-9
8185,-6,7,-7,-16,0,1,-44,-28
8190,2,-10,-1,2,-9,-6,-4,55
8195,8,2,-4,-3,3,15,42,-22
8200,-2,-7,-6,3,3,1,-22,-39
8205,11,10,31,-35,7,0,36,55
8210,-14,1,21,57,39,4,-21,-65
8215,3,5,12,0,5,-3,-48,32
8220,-5,3,6,0,-1,1,30,-11
8225,1,-10,-24,-17,-6,-2,-35,-11
8230,-4,-6,-3,-16,-15,-2,25,-16
8235,2,2,-1,-9,1,3,7,6
8240,3,-5,13,-2,10,0,-16,26
8245,21,27,-2,35,9,21,-3,65
8250,-22,-19,30,-20,-35,-29,-9,-84
8255,-12,5,-16,-9,8,-17,-50,-38
8260,-2,1,-16,-12,-17,-5,38,24
8265,-8,-8,10,-7,0,-4,4,-2
8270,10,1,-30,-3,-9,10,-4,4
8275,6,-3,-11,-12,0,10,23,10
8280,-4,1,23,6,2,-4,-16,-12
8285,-1,-4,-19,0,-5,-2,-12,-25
8290,1,-8,-41,-9,-4,0,11,8
8295,17,18,44,-8,1,17,15,80
8300,-20,-7,34,22,30,12,18,-67
8305,-24,-4,-11,19,-14,-25,-45,-62
8310,0,7,-7,-59,9,-6,-20,26
8315,-9,-12,5,6,-28,-6,23,15
8320,19,3,-50,-17,0,10,-1,46
8325,20,6,25,18,-5,24,16,-25
8330,-28,-13,8,26,23,-28,-32,-9
8335,8,11,19,3,13,16,16,52
8340,7,6,-3,-13,3,-9,-20,29
8345,-4,-11,-4,7,-9,-8,-5,-28
8350,7,-1,-25,-1,-23,-1,39,40
8355,-3,-8,-17,-14,-25,3,0,-41
8360,-5,5,8,15,-5,-12,-21,42
8365,-9,-4,-9,-4,11,-6,-9,-35
8370,8,6,25,1,-5,15,31,0
8375,-2,-7,-22,-4,8,-9,-31,-10
8380,-1,-3,-9,-1,-11,-1,1,-44
8385,-1,-3,15,-15,1,-4,24,-6
8390,7,15,26,4,5,0,4,28
8395,-18,-18,-13,-2,-1,-3,-4,-21
8400,7,10,-7,-2,-2,5,36,48
8405,2,-3,-2,-8,-1,-5,-77,-7
8410,0,-6,-10,-5,-30,9,37,-9
8415,6,-4,-12,15,23,-1,35,38
8420,-11,-3,-14,-23,-1,-15,-63,-48
8425,5,8,57,40,-7,10,27,70
8430,-6,5,13,-22,-10,-17,-59,-34
8435,8,2,-24,0,15,3,14,51
8440,-3,-7,-6,2,-5,1,5,-47
8445,0,-8,-27,-28,30,1,14,25
8450,5,-1,-33,8,-20,4,-51,-4
8455,-7,-3,23,-11,22,-9,37,-10
8460,4,0,10,6,-14,3,13,-21
8465,-4,0,-15,4,7,-3,-13,-8
8470,-1,1,23,10,-6,9,18,4
8475,-1,-6,-10,-14,-2,-2,-14,-70
8480,12,11,25,14,16,11,27,86
8485,-17,-9,-18,2,-24,-21,-59,-67
8490,4,-7,-7,-1,16,12,37,10
8495,1,4,1,-3,-18,1,-1,9
8500,3,-3,-46,-5,-26,-11,-37,8
8505,-5,-5,23,-7,1,5,50,1
8510,0,14,29,15,19,3,5,-9
8515,2,-1,-17,-2,-5,-3,-4,2
8520,-11,-17,-10,-3,-9,-10,-14,-10
8525,10,8,-32,-14,1,2,32,27
8530,-1,-1,6,0,-2,3,-1,-39
8535,-6,-4,8,1,-33,-13,-1,72
8540,0,2,20,8,35,7,-14,-48
8545,-5,-6,-7,4,-10,-4,3,-23
8550,12,-1,-2,-25,-1,-4,-24,124
8555,-18,-15,-36,-4,-13,4,-22,-128
8560,8,15,29,19,-57,-4,25,79
8565,-4,-4,19,18,10,13,15,-55
8570,-1,2,-18,12,-4,-12,-5,5
8575,-4,-5,-1,-6,3,0,-27,-6
8580,4,-8,5,-24,-24,2,54,81
8585,7,7,8,-15,25,15,28,1
8590,-5,0,6,2,2,5,0,-33
8595,-11,0,-15,5,0,-18,-55,-45
8600,9,-3,6,-2,14,2,-9,75
8605,-7,0,-12,-2,-17,-1,15,-41
8610,-6,-8,-4,-2,6,-4,-7,-19
8615,9,6,-23,-2,12,15,55,25
8620,-13,-3,25,-1,-14,-18,-20,-5
8625,8,-9,-29,-5,10,7,-30,64
8630,-10,0,-4,-7,20,-15,4,-109
8635,6,0,7,-4,-12,15,46,58
8640,-3,8,4,28,7,7,-29,-81
8645,2,-7,0,3,2,-18,-20,94
8650,-6,0,15,4,-3,9,6,-35
8655,10,1,-42,1,11,6,48,-7
8660,-3,8,37,12,25,-10,-33,-35
8665,-2,1,4,-7,-17,-8,-42,0
8670,10,6,-40,1,1,10,-2,45
8675,-5,0,32,13,-19,-13,-18,-17
8680,-7,-22,-56,-33,7,-4,0,-11
8685,-3,11,39,2,-1,3,-53,-16
8690,3,7,8,-17,8,-6,-25,55
8695,0,-1,12,0,-6,-3,5,-60
8700,-4,1,-14,3,11,3,-4,-42
8705,2,-14,-4,-15,-17,2,37,62
8710,2,-5,-4,7,-1,-2,14,23
8715,2,22,13,-10,10,7,-37,-31
8720,0,-4,46,-6,23,5,-3,37
8725,4,9,-22,8,-13,10,84,-58
8730,-13,-11,1,-8,-11,-10,-57,-29
8735,5,-12,-51,-2,-15,-28,-72,37
8740,-1,-2,50,6,4,14,73,-5
8745,-2,8,-14,-47,0,-5,-25,-17
8750,9,7,17,20,1,14,70,37
8755,0,-4,21,3,10,-5,-1,28
8760,1,-2,-35,4,-1,1,-32,-58
8765,7,0,-7,-17,-3,5,36,49
8770,-17,-6,-9,-2,-14,-14,-49,-44
8775,-7,-1,7,-9,-1,3,41,3
8780,4,-6,-16,0,-3,3,-22,46
8785,-5,9,4,15,4,-4,41,0
8790,9,4,23,1,-8,10,19,28
8795,-5,-7,-14,4,14,-2,-24,-51
8800,-5,1,5,5,-4,-2,36,8
8805,-7,-16,-42,2,-7,-7,-128,-56
8810,6,-7,-53,-12,-31,-7,48,101
8815,-10,16,95,58,26,21,11,-80
8820,2,0,-6,-42,-34,-15,-28,5
8825,-3,0,-6,14,-6,-6,-3,-16
8830,-6,-10,-14,-1,0,-5,2,3
8835,3,-7,-23,-4,-14,6,-14,70
8840,3,4,9,-2,6,9,29,-39
8845,-6,1,26,11,12,0,-4,-8
8850,-2,-1,4,5,-3,1,-21,-15
8855,3,1,7,-16,2,-10,-10,13
8860,-7,-3,-14,6,6,-1,-23,-84
8865,6,-6,-4,-17,-2,3,70,112
8870,6,2,12,6,14,6,2,-39
8875,-9,-7,-35,-13,-2,2,47,17
8880,0,8,23,4,-7,-4,-23,2
8885,2,-4,-13,3,-19,-12,1,-10
8890,1,9,11,2,40,6,9,-13
8895,-2,6,12,1,4,-3,-26,7
8900,-2,-9,-54,-5,-2,-5,3,17
8905,-9,-1,71,34,-8,-8,-5,-55
8910,6,2,16,-25,-7,5,-19,34
8915,18,4,-23,-19,3,7,61,92
8920,-27,-6,18,26,16,0,-62,-62
8925,-10,-12,-35,-10,-1,-5,-27,27
8930,-1,8,-19,-7,-2,1,-5,-19
8935,2,4,44,8,-6,-10,-47,-21
8940,5,-7,-35,-8,-4,1,59,53
8945,-4,3,25,-17,11,10,20,-14
8950,0,10,23,12,5,-7,-41,-10
8955,-8,-12,-42,-26,-13,-9,-42,-72
8960,13,11,46,9,0,9,72,123
8965,-1,-4,-24,17,3,-2,-36,-103
8970,0,-8,10,-4,-3,-1,41,30
8975,2,5,38,29,10,7,50,-2
8980,-2,-8,-18,-14,-9,-9,-28,-17
8985,5,3,-8,-1,4,-5,6,44
8990,1,-14,-14,-4,-18,1,-19,-44
8995,-3,4,5,17,38,2,-66,-13
9000,2,7,6,-8,28,14,106,55
9005,-6,6,-9,12,-3,-11,-43,-36
9010,-6,-8,-20,-9,3,0,12,-3
9015,-4,-6,-4,-4,2,-3,-12,-23
9020,8,1,-12,3,-7,0,-12,22
9025,10,3,4,-11,8,11,40,43
9030,-3,-3,-5,27,0,-1,-96,-83
9035,7,-12,-13,-53,-38,-10,95,127
9040,-27,-1,17,24,4,-2,-59,-105
9045,-11,-6,7,18,2,-19,-27,-7
9050,4,2,11,-10,4,7,42,23
9055,6,2,-14,-2,-10,10,28,47
9060,5,-1,-28,-7,-4,-1,-24,-20
9065,-3,-1,6,-8,5,-1,0,-20
9070,-2,-10,-16,-5,-6,-4,13,14
9075,-1,-4,-9,4,-1,2,-22,-31
9080,3,2,4,-11,-5,-6,-12,-1
9085,3,3,-2,1,-3,10,23,21
9090,18,0,-19,-6,-12,0,-32,60
9095,-31,-5,29,-5,-1,-25,22,-54
9100,-4,0,-12,17,-2,4,22,1
9105,-5,-10,-10,-46,-10,-7,-11,18
9110,-2,0,-6,-1,-2,4,24,0
9115,8,4,1,2,-3,6,-9,5
9120,4,-3,-5,1,-1,-1,-9,-2
9125,9,0,-11,3,5,5,18,54
9130,1,8,14,6,-1,-1,-14,-80
9135,4,-27,-72,-16,-1,16,35,17
9140,-1,39,93,6,6,-31,34,64
9145,-6,2,16,15,-4,-3,-43,-30
9150,-8,-1,-3,-10,-16,-18,-36,-15
9155,4,1,2,9,6,12,-7,26
9160,5,-15,-45,-17,-8,14,5,-25
9165,13,2,3,1,-7,0,28,75
9170,-8,-2,-14,3,9,4,-8,-72
9175,2,-9,9,-5,11,0,14,21
9180,-8,3,-7,-5,-16,-18,-69,-15
9185,0,7,15,6,10,7,16,-22
9190,-13,-11,-19,-9,-22,-9,-12,0
9195,3,4,3,13,13,7,-16,-17
9200,8,13,0,-1,23,9,-8,16
9205,-1,-4,-6,-17,4,-5,16,11
9210,2,0,5,18,17,10,36,-38
9215,-16,-3,5,-26,-18,-14,-30,-5
9220,-3,-11,7,-1,-3,-7,-26,6
9225,-2,-2,-33,6,2,2,8,-23
9230,-1,2,28,-3,-1,-7,35,29
9235,-2,3,5,11,-3,1,0,-13
9240,0,-11,-42,20,-2,-7,-66,-3
9245,-8,-4,-12,-48,-64,9,76,13
9250,-4,-3,22,22,33,-3,-8,-37
9255,-7,4,20,4,-10,-20,-63,0
9260,-7,-18,-4,-21,-6,1,7,-108
9265,8,14,14,20,6,3,-14,49
9270,6,-6,10,4,-13,0,6,127
9275,-10,-2,-7,3,-4,11,52,-116
9280,3,-3,0,5,-6,-5,-42,36
9285,3,3,4,0,18,-3,-44,-40
9290,-5,-9,-6,8,14,10,44,-2
9295,0,0,-5,-18,35,-3,2,33
9300,-5,-4,2,-19,-18,7,35,14
9305,4,0,-14,9,2,-5,-13,17
9310,6,7,-7,-4,1,-2,-43,-39
9315,3,-7,-18,3,-15,-9,19,9
9320,-5,0,8,-16,8,3,-12,-1
9325,2,-1,-10,28,2,-6,-17,-2
9330,-1,2,7,-9,6,-2,23,-17
9335,-3,8,17,-14,-14,6,-34,-27
9340,0,-7,4,0,18,5,41,50
9345,-4,-7,-5,-10,1,-8,-39,-50
9350,1,-6,-22,-8,-7,-6,4,31
9355,3,9,-1,10,-8,8,14,-4
9360,14,3,9,-1,4,-4,-49,63
9365,-8,-5,23,-5,-24,-4,13,-69
9370,-5,3,-6,10,37,3,-5,-7
9375,6,0,11,15,6,-3,-20,11
9380,11,6,-9,0,-1,14,34,-13
9385,-13,-4,-2,0,-4,-7,20,20
9390,-4,-6,17,-17,-10,-5,-57,-13
9395,5,6,-33,-15,-17,0,16,-17
9400,9,5,10,-32,-3,10,116,102
9405,-3,-1,20,20,13,-4,-72,-62
9410,-12,-8,-13,-13,2,-2,8,-51
9415,-1,-1,-12,11,19,1,3,-2
9420,-1,-6,-3,0,-37,4,8,19
9425,4,3,-8,-12,7,7,19,43
9430,4,3,12,-6,-21,0,39,9
9435,-1,-3,-9,15,15,-7,6,44
9440,-18,-5,-12,6,-3,-15,-83,-111
9445,5,-2,8,5,-3,15,20,15
9450,8,6,3,15,-4,5,25,53
9455,7,0,1,-14,-4,1,-21,-4
9460,-8,6,-26,-1,-2,-5,24,-24
9465,1,1,39,-34,5,1,-4,70
9470,3,6,-11,-4,5,0,13,29
9475,-7,-7,-19,-7,-3,-1,-22,-52
9480,-4,1,44,43,16,-6,-5,-48
9485,8,-5,-28,4,-52,-7,4,58
9490,-11,5,30,3,-18,5,14,-33
9495,8,4,9,8,10,4,-11,15
9500,0,3,-24,-14,6,3,77,42
9505,-5,-3,12,4,11,3,-52,-54
9510,-6,-14,-22,-7,-12,-15,-38,2
9515,4,1,9,5,-1,-5,13,35
9520,3,2,13,8,13,2,-44,-61
9525,-2,-3,-27,0,-18,0,26,8
9530,5,-3,-27,-5,8,-3,35,40
9535,-9,18,42,20,-18,-9,-38,-50
9540,1,-8,-5,10,-5,1,-13,37
9545,1,6,-16,-11,11,-2,6,4
9550,6,4,3,1,-14,5,22,-16
9555,-8,-11,-25,-6,-5,-16,-36,-2
9560,2,0,24,4,-4,-1,-40,-16
9565,-3,-13,-34,5,-19,-10,7,7
9570,1,12,29,12,11,10,0,16
9575,-3,1,23,-3,0,-2,-20,-9
9580,-4,-6,-16,-3,-9,4,14,-27
9585,4,-3,0,-7,-6,0,37,24
9590,-14,-7,-12,34,18,-13,-66,-50
9595,-1,-3,9,-11,6,0,18,12
9600,2,1,7,0,6,-5,17,39
9605,-1,4,6,6,15,12,14,-80
9610,-1,-6,-9,-15,-11,0,2,53
9615,10,-4,-10,11,-9,12,12,19
9620,-2,-4,-47,-17,-4,-7,17,-20
9625,-9,3,33,16,26,-8,-2,29
9630,-3,7,49,-14,-10,-4,33,-7
9635,-4,-6,-15,-8,-4,6,22,-66
9640,7,3,-2,-10,-6,8,52,54
9645,2,-5,-19,-20,-6,-3,-34,7
9650,-4,-6,-14,-1,4,-8,-40,-31
9655,11,2,-20,2,-11,4,22,32
9660,0,-6,7,-7,5,12,27,75
9665,-26,9,60,37,32,-20,-29,-118
9670,-1,-4,-18,-14,4,-2,-41,41
9675,-2,2,6,-3,-12,-11,-34,-13
9680,6,-4,-23,7,6,3,7,20
9685,-1,-7,-16,-12,4,5,9,-5
9690,9,5,5,-3,-7,13,51,30
9695,-1,-3,-2,3,14,-2,-14,30
9700,-8,-1,1,-5,-4,-5,-53,-66
9705,35,-2,-28,-6,1,11,60,120
9710,-35,6,21,4,-5,-16,-37,-110
9715,-13,-9,8,-3,-11,-11,-4,-28
9720,-8,-4,-10,-24,-12,-19,-79,-28
9725,1,0,1,5,-4,6,-2,-9
9730,17,-3,-24,-4,2,5,14,60
9735,0,-1,9,-6,5,7,30,12
9740,0,6,17,9,1,5,5,-19
9745,11,3,-26,-1,1,-12,-57,59
9750,-10,-13,-32,-19,-17,20,79,-42
9755,8,21,62,5,41,10,42,59
9760,-11,5,33,37,29,-8,-25,-68
9765,-8,1,9,2,23,0,-5,-7
9770,5,-1,-12,-3,0,-9,-17,-2
9775,4,-3,-24,-4,-12,8,-10,22
9780,3,-3,-10,5,-2,0,15,21
9785,-3,-2,-10,-5,5,2,-4,-36
9790,4,-1,12,0,-6,2,8,20
9795,1,1,-18,-10,2,-6,-46,7
9800,7,3,-2,-8,-42,13,85,-21
9805,-18,-9,-9,-21,-17,-12,-86,-76
9810,14,1,15,21,0,1,13,108
9815,-14,-3,1,9,-14,-5,-17,-64
9820,2,2,4,-1,9,0,-20,8
9825,-1,1,-26,-12,-7,-3,-14,10
9830,0,11,44,14,-7,0,-8,-50
9835,9,6,8,-7,23,0,-39,27
9840,-6,-12,-28,-5,-14,0,62,-15
9845,18,4,18,11,8,11,-8,83
9850,-23,-23,-62,-6,9,-16,-5,-101
9855,4,21,63,13,-15,6,36,96
9860,-6,-7,-31,-12,-5,-21,-48,-34
9865,-4,-2,31,-3,-12,-5,10,-11
9870,8,8,-2,-1,15,5,15,21
9875,-3,-11,-25,-4,-5,-3,-9,-33
9880,0,-3,-7,6,-5,3,-5,15
9885,1,-5,12,-20,-29,13,88,20
9890,0,6,15,27,35,-5,-99,-20
9895,-6,-11,-9,-36,-18,-7,74,-21
9900,-18,-4,-13,3,28,-11,-101,-79
9905,-1,8,15,7,-9,2,54,26
9910,7,-1,-2,-6,7,9,5,16
9915,4,-9,-19,5,-42,3,-6,19
9920,9,13,29,-6,0,1,-2,67
9925,-9,-1,-8,11,15,3,23,-119
9930,6,0,1,-42,-17,-8,42,60
9935,-4,-4,-37,-11,19,-14,-64,-22
9940,8,-5,29,25,-10,12,37,43
9945,-12,6,3,16,15,-10,-33,-75
9950,5,5,12,7,-3,4,8,28
9955,-3,-12,-20,2,0,-1,12,-8
9960,3,0,-2,-10,-6,0,7,14
9965,3,-4,-8,3,7,-4,-3,32
9970,3,5,-2,-2,-5,3,-8,-21
9975,-4,1,-7,17,9,-6,-24,-53
9980,6,-5,-35,-37,-49,-8,12,49
9985,-16,-16,35,15,-5,-1,-12,-35
9990,-8,17,9,-12,-22,-10,-20,-14
9995,12,7,5,5,15,16,17,39
10000,7,-5,-30,7,25,8,3,6
10005,6,-5,-25,27,30,0,1,35
10010,0,-4,16,16,-45,-2,-14,-35
10015,-2,1,2,14,0,1,12,11
10020,-12,-4,5,-21,7,0,55,-26
10025,-12,-1,-14,-16,-25,-20,-60,-18
10030,2,-5,-9,3,15,2,-2,33
10035,0,5,19,14,9,2,14,5
10040,4,-3,0,10,-2,4,16,10
10045,3,3,-2,-20,-3,1,-6,4
10050,-4,-11,-30,-6,6,-3,7,-21
10055,5,6,20,-18,-23,-13,-12,53
10060,-2,8,12,10,33,11,9,-44
10065,-2,-6,-52,-1,14,14,7,42
10070,-10,-17,43,-10,-12,-24,0,19
10075,-7,12,6,27,-6,-17,-36,-44
10080,-5,1,24,0,4,-4,-32,-13
10085,16,5,-13,-7,7,16,40,39
10090,0,-9,-64,1,5,8,28,0
10095,-12,-9,42,23,26,-5,-10,-23
10100,3,4,10,-16,-4,-3,-16,37
10105,-8,-4,1,-3,22,-2,7,-47
10110,3,-2,-23,-12,-4,4,11,31
10115,-5,-7,-4,2,1,-3,-4,-17
10120,6,1,-17,1,-3,5,-1,69
10125,-6,3,26,25,13,-1,-21,-88
10130,-4,1,5,-16,-14,4,5,19
10135,1,0,-9,-7,-8,1,-29,6
10140,1,-9,-32,-25,-8,0,24,-17
10145,-2,3,21,2,-34,-16,-58,72
10150,-3,3,20,-10,-4,0,-17,-81
10155,5,-1,-19,0,10,11,48,60
10160,-10,-2,4,6,-10,1,33,-19
10165,4,0,10,-10,-1,5,-8,0
10170,4,-1,-19,5,12,-5,-22,43
10175,-8,-4,12,-17,-12,4,8,-44
10180,1,0,1,11,11,-1,-22,-53
10185,-6,-2,0,3,-7,-7,23,65
10190,-6,-3,0,-8,4,-6,3,-46
10195,8,2,-7,10,-2,7,1,-21
10200,-10,-4,36,-3,-1,-11,-23,-18
10205,8,9,6,0,-1,11,11,-23
10210,5,-9,-25,-11,-22,1,12,53
10215,-6,-3,-9,-4,9,-2,-32,-29
10220,0,6,-37,10,15,1,-15,-56
10225,-1,8,33,-38,-41,-5,0,15
10230,-1,-5,-8,-18,-22,0,-26,7
10235,3,10,19,21,22,10,39,49
10240,3,0,-12,6,-6,4,6,-1
10245,-4,-8,-7,2,1,-22,-43,-35
10250,5,5,5,12,6,6,52,26
10255,-5,-8,-22,-18,0,2,-6,-20
10260,4,3,1,12,-41,1,32,59
10265,-5,-3,3,1,4,-2,-41,-3
10270,-7,-1,7,1,10,-6,-23,-76
10275,-6,-7,-18,-10,-6,-3,-6,-14
10280,-3,-3,34,-4,11,-5,-22,40
10285,9,2,-23,-2,-23,15,53,-18
10290,1,2,4,6,24,-3,-26,27
10295,-4,-7,16,16,1,-9,-18,3
10300,5,-2,-10,3,-4,-6,23,16
10305,-11,3,-2,-21,-3,-4,13,-12
10310,-6,-1,2,17,1,3,0,-20
10315,1,-10,-34,-11,11,-5,-9,10
10320,-7,1,40,-11,-37,-3,-2,-51
10325,9,5,-5,14,7,3,6,14
10330,0,-3,-6,7,1,-5,-4,19
10335,-2,-1,4,-17,2,1,8,-29
10340,3,-8,-31,-14,2,-6,-2,49
10345,2,-3,-3,15,16,-9,-24,19
10350,-7,10,15,10,12,8,33,-71
10355,7,-3,-1,-9,-38,-3,-41,-1
10360,2,0,-2,-3,8,-2,21,51
10365,-7,-3,-18,-4,-3,5,28,-36
10370,3,-4,10,2,-1,-8,-30,46
10375,1,3,-19,8,-5,3,11,2
10380,3,11,35,12,29,5,-28,-1
10385,1,-2,-1,-10,1,-4,18,11
10390,10,0,3,-2,9,6,13,58
10395,-17,-5,-8,-18,-28,-9,2,-86
10400,5,-4,-27,-7,38,11,21,18
10405,1,5,33,13,-28,-5,-40,40
10410,7,-2,-22,-4,-1,1,-11,-71
10415,-12,-3,14,5,7,-12,41,40
10420,-10,3,4,-12,-5,-13,-52,-42
10425,1,2,14,4,19,8,4,-16
10430,1,-5,-13,-9,-18,-2,19,39
10435,7,5,-37,-24,1,7,34,52
10440,-9,0,29,18,16,-12,-80,-124
10445,2,-7,-29,-16,-10,1,10,67
10450,-4,0,19,-4,1,2,15,-43
10455,1,-3,-7,-1,2,2,3,-4
10460,0,-3,-24,-9,-2,-5,-50,-27
10465,1,1,5,3,3,-5,-26,19
10470,1,-3,1,10,14,6,49,19
10475,-3,-3,-1,-9,12,-6,-24,-32
10480,8,7,14,14,-19,8,43,43
10485,-12,-6,-1,-1,4,-5,-24,-81
10490,2,0,-1,11,4,6,8,36
10495,4,9,36,-27,-10,5,35,23
10500,4,-2,-20,-1,-10,-5,-19,17
10505,-14,-16,0,-2,-1,-3,41,35
10510,-2,11,0,7,-11,5,-23,-23
10515,8,13,38,38,29,-3,1,-25
10520,1,-7,-5,-29,-23,0,15,80
10525,-3,-4,1,-15,22,3,9,-82
10530,-5,-7,-32,-16,-8,-5,28,-3
10535,3,4,17,3,-1,8,-20,25
10540,-1,1,-3,27,12,9,24,3
10545,3,1,-11,1,1,-7,-33,-60
10550,-2,-5,9,-5,2,-8,-3,44
10555,-5,-12,-18,2,-22,-2,-7,15
10560,-4,0,-1,-18,-1,-5,20,-2
10565,1,3,-9,5,-2,1,6,5
10570,0,6,16,3,4,-7,-35,-23
10575,5,-5,-25,-6,-5,9,29,10
10580,-4,-3,8,-1,-8,-1,5,-23
10585,0,-5,-16,-6,-1,-2,-10,45
10590,-11,-3,-8,9,-2,-11,6,-38
10595,-6,2,13,0,-2,-14,-48,-21
10600,-4,-10,-1,25,11,1,11,-17
10605,9,6,8,-27,5,8,46,21
10610,-1,-13,-17,-8,-8,-4,-38,9
10615,4,6,-16,0,-3,-3,16,21
10620,1,8,5,-1,-7,-2,-38,12
10625,-7,-6,28,11,32,9,22,-4
10630,-7,-1,5,3,-7,4,5,-82
10635,0,0,-6,-8,7,1,-8,21
10640,3,2,-19,-12,0,2,-8,-17
10645,9,2,-15,7,-20,3,36,94
10650,-6,-4,19,-20,18,-4,-22,-50
10655,-2,-6,0,29,23,0,4,7
10660,-5,-5,-15,-11,-13,-12,17,3
10665,6,2,-6,4,-12,2,-2,2
10670,-7,-3,-2,10,-11,-1,0,-10
10675,7,6,-6,-11,-20,4,21,-3
10680,-6,4,22,-1,-1,-9,-48,19
10685,-3,-1,-11,4,4,-4,11,-20
10690,5,4,6,-6,0,-1,2,4
10695,2,-4,-7,4,3,5,-27,36
10700,-5,-10,7,7,-1,3,31,-21
10705,13,14,-1,-3,-4,3,19,16
10710,9,3,-9,2,2,-2,-34,100
10715,-11,1,37,-15,-12,3,48,-105
10720,-4,-4,-7,-1,12,-8,-66,-5
10725,0,-7,-35,-2,-4,-1,-14,-26
10730,4,6,25,4,8,9,26,32
10735,4,-4,-14,-16,-7,8,11,32
10740,-3,2,0,6,2,3,36,2
10745,0,-2,-36,0,4,-1,-39,-32
10750,-4,3,43,8,2,-2,-22,-6
10755,-2,-16,-30,-38,3,-7,-18,7
10760,6,11,-8,-26,-59,5,75,9
10765,-4,-2,4,6,-46,-9,-37,7
10770,-2,3,14,31,16,13,1,-19
10775,0,-1,6,-5,0,-7,4,-19
10780,-2,-12,-12,18,1,-1,14,34
10785,-3,4,20,-15,6,5,22,-1
10790,0,3,-9,-8,-4,-3,-18,-29
10795,-13,-12,-11,11,-32,-23,-75,5
10800,7,5,5,12,28,15,22,-20
10805,-7,-5,-2,-3,-2,-12,-22,-4
10810,4,2,-5,-9,8,-1,-20,7
10815,-2,-3,-2,21,5,-5,34,-12
10820,-2,-5,-6,-13,0,-2,-40,-44
10825,-8,11,27,13,15,-14,-22,-12
10830,-2,-4,2,-27,-18,2,4,-17
10835,5,-5,3,-11,-6,4,6,34
10840,7,11,-8,12,17,2,2,-24
10845,-14,-20,-32,1,-15,-16,-10,-37
10850,1,0,11,-22,-1,-5,-14,36
10855,7,14,4,16,18,7,-2,-11
10860,-4,-3,-2,-22,-9,18,12,-24
10865,2,-2,19,18,33,7,23,-16
10870,7,2,-28,-6,-28,-1,51,90
10875,0,-1,2,-3,-13,-1,-20,-49
10880,-9,-4,11,17,18,-11,9,19
10885,2,-5,-19,-11,-15,3,-12,-32
10890,-7,-1,2,-5,0,-7,-48,0
10895,6,7,-1,6,15,10,62,17
10900,5,-2,2,-3,-10,-8,-15,65
10905,-12,-3,7,-7,4,-2,-36,-78
10910,5,-1,-5,0,2,2,37,13
10915,-3,-1,-12,10,-13,-1,-23,31
10920,-2,1,27,-11,12,-1,-9,-53
10925,1,-5,-12,-6,-12,-10,31,41
10930,-4,-9,-21,6,14,-2,-16,-30
10935,-2,5,2,8,-11,-10,-30,25
10940,7,5,13,-12,5,6,-30,-30
10945,-7,3,26,2,-7,-2,37,-21
10950,8,-4,-11,-5,0,-1,-2,16
10955,-8,-8,-28,-3,41,2,-23,-16
10960,-11,1,10,0,-48,-4,22,-54
10965,3,0,0,2,18,-5,-15,48
10970,-4,-3,3,4,-8,-13,-35,-12
10975,5,-11,-20,-21,9,4,16,37
10980,8,3,-10,14,9,1,-11,53
10985,1,5,24,22,46,17,37,-15
10990,-9,-6,-5,11,-16,-11,37,24
10995,-4,2,2,4,2,1,-26,-82
11000,-6,-3,8,10,0,-3,20,38
11005,15,7,-16,5,-4,10,16,67
11010,-2,0,4,-6,-2,-1,-3,-34
11015,-1,1,18,-4,-6,-3,3,11
11020,5,1,-11,-1,12,5,8,-22
11025,-1,-5,-3,-21,-14,-15,-40,39
11030,-4,6,-3,26,13,9,28,3
11035,-1,2,9,-13,-7,-2,-40,-22
11040,-5,-2,-6,2,5,0,-1,9
11045,-2,-2,-2,-11,-12,1,16,38
11050,2,-11,-46,4,1,5,-7,0
11055,-6,14,44,9,33,-8,16,-41
11060,2,-2,8,9,-4,0,41,42
11065,3,-3,9,15,4,-6,-65,-5
11070,-2,1,-16,-5,-9,-8,-19,-11
11075,-4,-5,1,-22,-3,17,45,18
11080,4,-12,-36,-18,-22,-2,-11,40
11085,-4,5,-2,18,31,2,54,-79
11090,5,2,21,2,19,-10,1,45
11095,-6,-12,-13,-11,-39,-2,15,-40
11100,-5,11,25,7,0,-10,-12,-21
11105,9,-2,-8,-8,-6,19,16,24
11110,5,-1,-50,-35,-3,-3,-14,17
11115,-3,-7,37,64,15,1,42,8
11120,-6,-6,17,-25,22,-12,-52,-1
11125,-3,11,-4,-1,-40,-3,-36,-62
11130,-5,3,13,-2,-3,3,-6,-5
11135,10,-3,-32,-7,-21,0,25,46
11140,-5,-8,-16,11,24,-3,-27,-51
11145,-9,-4,-11,1,-7,-8,4,24
11150,2,3,31,1,-5,3,3,33
11155,0,2,-16,-6,-20,0,11,-41
11160,-1,-6,0,-19,14,0,-19,-4
11165,-4,-2,-6,0,2,1,25,-9
11170,-7,-5,15,-6,-12,-2,-13,6
11175,1,-1,-8,1,11,-9,-56,-50
11180,-2,1,2,6,-16,6,83,35
11185,7,-2,-36,-11,-17,-3,-48,3
11190,-2,6,58,-2,-10,-8,26,-13
11195,10,8,-3,2,14,4,-34,55
11200,-7,-6,-13,-7,-7,7,-5,-80
11205,5,1,14,11,25,1,-18,21
11210,1,-12,-36,3,-29,-1,14,39
11215,-16,5,27,-17,-11,-12,-12,-28
11220,0,2,-5,11,-7,-7,-61,4
11225,-1,-4,3,-18,6,-10,22,20
11230,-1,-6,-21,10,16,12,13,-21
11235,2,-5,-22,-16,-7,-4,2,30
11240,-4,0,-9,5,9,9,-22,-21
11245,2,4,1,-4,-8,5,15,20
11250,5,1,20,-5,4,0,7,-6
11255,-2,6,-7,3,-32,-7,-34,-48
11260,9,5,2,27,21,3,18,50
11265,-9,-1,17,-1,-6,-3,-37,-55
11270,-2,3,0,6,2,3,32,-37
11275,3,-6,-2,1,20,6,-2,63
11280,-5,3,-6,-7,-15,-11,-6,-26
11285,5,-6,-20,-13,-3,11,88,44
11290,3,13,22,25,11,-5,-38,-27
11295,0,-5,7,-1,0,-7,-54,-1
11300,2,0,2,7,4,-5,1,-12
11305,0,-7,-19,-10,-9,-1,24,53
11310,-19,-11,-1,-13,-5,-11,-30,-82
11315,16,15,-15,9,50,11,29,53
11320,-6,1,24,18,-21,3,15,-24
11325,1,-4,-4,1,18,1,19,26
11330,8,3,11,15,-1,9,10,4
11335,-3,-6,-8,1,-33,-10,18,16
11340,2,-8,-1,-8,33,4,-68,-9
11345,-6,7,21,18,-10,-12,11,-30
11350,-3,-4,-39,-18,3,-6,-42,-27
11355,0,-10,23,15,-11,6,16,55
11360,-2,10,22,-8,-14,2,-14,-84
11365,4,-5,-27,-11,-9,6,44,94
11370,-3,1,15,1,12,-6,-55,-51
11375,-5,-6,-1,-11,-15,-10,-30,-68
11380,0,-5,-30,-5,-5,-3,26,4
11385,4,5,30,-29,12,4,-14,-25
11390,-5,-8,-13,-12,-13,-3,23,58
11395,8,4,-14,-24,10,7,25,5
11400,-15,-12,-16,5,-6,-10,6,-9
11405,-1,9,23,8,2,0,-41,-32
11410,2,6,-13,-2,4,0,-8,20
11415,-3,-5,-3,-5,-1,2,-9,-31
11420,9,-2,-12,-6,-5,-2,20,77
11425,-12,-9,-25,-20,-10,-1,20,-48
11430,8,-6,25,8,-5,-4,32,78
11435,-19,0,6,11,-1,-4,-49,-101
11440,2,-2,-23,-12,-33,-3,13,59
11445,0,-2,14,-14,21,5,-33,-7
11450,2,-1,-8,11,6,2,-9,-9
11455,7,-4,-36,-31,-3,10,74,92
11460,-13,-1,30,23,-9,-21,-33,-91
11465,-3,-12,-29,-37,-6,-1,-24,-29
11470,0,9,34,13,2,5,29,5
11475,7,-1,0,7,12,-2,21,28
11480,-3,-2,-23,-13,5,-5,3,7
11485,3,-1,-7,25,1,4,12,21
11490,7,-5,-13,-6,6,6,-1,-8
11495,-10,13,44,11,-11,-4,13,-13
11500,-10,-7,-9,-20,9,-3,-14,-2
11505,0,-4,-26,3,-23,-7,-20,2
11510,0,5,39,36,14,7,-2,6
11515,3,-7,-18,-30,-10,3,12,-3
11520,10,11,15,9,12,12,33,44
11525,6,4,7,12,-7,3,12,-1
11530,-11,-8,-54,-4,6,-14,-37,-58
11535,-3,5,60,8,11,-5,-33,14
11540,-1,-3,-1,-6,4,0,7,3
11545,3,2,28,22,-4,-1,-9,45
11550,-5,-5,-21,-16,-15,4,18,-77
11555,-9,-13,-23,7,14,-7,-1,-23
11560,8,12,6,-14,18,2,11,50
11565,0,2,30,20,13,-4,-46,50
11570,-16,-5,-31,0,-24,-11,11,-71
11575,6,5,32,15,8,10,20,80
11580,2,-5,-26,-7,1,6,0,24
11585,3,1,14,9,1,-2,7,-14
11590,0,3,13,-8,-6,-6,-15,1
11595,-3,-9,-49,2,-2,-4,-3,-30
11600,-1,5,41,8,-1,3,-30,-29
11605,3,2,-4,1,-9,5,40,-2
11610,-1,-2,-5,-18,-3,1,7,42
11615,2,-2,10,0,-10,-2,7,-1
11620,3,-7,-22,-7,-9,-4,-9,17
11625,0,7,11,11,-2,3,-13,-39
11630,8,3,-3,-42,6,10,30,46
11635,1,-7,-13,6,-1,-10,-71,26
11640,-24,-2,8,-3,-12,-21,-11,-119
11645,-1,-3,10,-25,3,3,10,11
11650,5,1,-19,-17,-18,-1,5,62
11655,5,-1,-2,7,14,8,50,15
11660,-2,-5,-5,7,-20,-7,-45,6
11665,-2,2,16,6,-6,-14,-7,-21
11670,1,-2,0,-5,8,3,-6,1
11675,-1,3,-17,-9,-9,5,11,0
11680,10,2,19,21,19,6,21,58
11685,-5,0,-21,-39,23,5,3,-23
11690,-4,-6,5,5,-11,-6,-19,-53
11695,-10,-4,-20,-5,1,-12,6,-37
11700,10,-1,5,20,-1,13,0,65
11705,2,3,4,-24,-12,3,40,9
11710,-1,-3,5,7,10,0,1,12
11715,3,5,14,2,-10,-11,-51,-1
11720,-3,-1,-11,-40,6,12,46,-26
11725,0,-4,-4,5,32,3,56,20
11730,-5,0,-1,8,-17,-3,-62,-78
11735,-4,-4,8,-1,-9,-6,-1,21
11740,4,3,-13,-2,-5,-8,-26,5
11745,-2,-1,-4,15,4,5,4,4
11750,-1,0,-21,-17,-12,4,12,21
11755,-3,4,14,2,1,-1,-5,-22
11760,6,-3,37,0,13,6,31,22
11765,-11,-1,-3,8,-7,-8,-23,-40
11770,14,6,11,10,6,4,-27,42
11775,-12,-6,-21,8,-12,-6,-3,-22
11780,-2,-9,-20,-64,-46,1,35,6
11785,-1,0,-13,34,21,2,-63,-52
11790,-2,-3,21,-35,11,-2,24,-1
11795,2,-2,6,9,3,1,-4,21
11800,4,6,0,6,4,-6,-18,22
11805,-2,-8,-21,-1,-22,-12,-41,-22
11810,4,5,7,22,1,12,66,67
11815,-6,-3,-10,-28,11,2,-26,-33
11820,-14,-5,-14,17,-4,-6,4,-67
11825,10,6,24,9,-6,-4,-46,12
11830,-3,0,-19,13,6,-1,8,-22
11835,10,4,26,11,3,8,22,41
11840,8,0,-16,39,2,11,30,33
11845,-15,-8,4,-11,-20,-8,-17,-44
11850,-4,-5,15,6,0,-13,-22,12
11855,-2,3,-8,7,5,-2,-9,0
11860,-1,-1,-8,-4,-7,-1,11,-45
11865,7,6,-15,-1,2,12,20,21
11870,0,3,17,9,-12,-6,1,-2
11875,4,0,-25,6,-9,1,5,2
11880,-5,0,46,17,29,5,32,42
11885,3,-4,-16,-10,-15,-3,-18,46
11890,-7,-7,-6,-11,7,0,5,-30
11895,3,2,-12,-4,-3,2,-20,-18
11900,-4,0,4,2,-3,-12,-27,6
11905,1,-5,-6,-2,9,6,38,-26
11910,3,1,1,7,4,2,37,26
11915,-14,-14,-20,9,-9,-8,-12,-10
11920,-2,2,24,3,0,-5,-26,-11
11925,-9,-8,-6,0,-6,-9,-6,22
11930,0,1,10,4,14,3,-9,-42
11935,7,1,6,0,-8,5,14,9
11940,-2,-4,-22,-19,-14,-1,-35,7
11945,-10,4,35,15,-23,-13,-27,-54
11950,2,-1,-20,17,31,7,38,37
11955,3,-4,-11,-26,10,5,2,5
11960,2,3,10,-5,-11,7,35,-18
11965,-5,-10,-22,10,16,-1,23,40
11970,-4,18,27,-12,16,9,-24,-31
11975,1,1,6,2,21,-5,0,17
11980,2,-4,-36,11,-38,-6,-66,-24
11985,6,-3,-5,10,-3,-1,58,38
11990,3,-1,10,2,-13,0,10,30
11995,-13,-5,-3,-2,6,-2,-56,-28
12000,-2,0,1,-3,19,-17,21,-40
12005,-2,-2,1,-2,0,1,36,-15
12010,0,-3,-8,-4,-11,-5,-47,-2
12015,7,2,4,0,-17,3,26,22
12020,0,-5,-7,-3,3,0,-9,6
12025,3,0,-6,-14,0,0,-61,10
12030,-6,-6,8,-14,-6,-7,37,-7
12035,5,8,1,16,-1,5,1,-3
12040,6,0,-11,-13,12,7,17,-9
12045,-1,0,10,-4,1,-2,-17,14
12050,-7,-7,-22,5,-8,-4,-36,-13
12055,3,2,11,6,5,5,48,26
12060,-10,3,-4,-38,5,-4,-64,-32
12065,1,3,-10,-3,-7,-1,19,35
12070,-2,-3,2,-1,-16,-15,-17,-35
12075,2,-6,-11,5,4,-1,18,33
12080,1,-3,1,7,2,2,6,-8
12085,-1,7,17,-16,4,7,6,-19
12090,0,-4,-21,-15,-7,-1,7,12
12095,2,-1,13,6,-5,0,19,22
12100,3,4,18,16,6,2,40,37
12105,-9,-3,-9,3,-2,-8,-44,-53
12110,5,-3,-16,1,-2,3,9,28
12115,-7,-1,-17,-34,-14,-4,2,-46
12120,3,0,13,31,15,2,-56,29
12125,-1,-3,0,-2,-8,-9,37,26
12130,-1,0,-14,-16,-2,0,-6,-6
12135,0,2,6,-3,0,3,38,8
12140,-4,-3,-4,3,-1,-4,-7,19
12145,-1,-5,-10,4,4,3,0,-20
12150,-1,5,24,6,-3,-4,-35,-23
12155,-4,-8,-22,-13,-20,-6,-21,-9
12160,-2,13,-3,-13,-22,0,49,3
12165,4,0,38,27,9,5,-17,20
12170,-1,-1,-3,-9,-7,0,21,-32
12175,-3,0,-20,0,14,-5,-44,-30
12180,-4,-3,12,-6,-17,-1,25,-19
12185,0,-5,-42,-23,-24,-5,-27,2
12190,4,5,34,-1,23,11,64,40
12195,-3,1,13,19,1,-15,-53,3
12200,-4,-8,-43,-14,34,0,19,-66
12205,-2,1,32,9,-18,2,-1,18
12210,0,-1,7,8,-3,5,-7,8
12215,2,1,16,-13,-13,1,8,36
12220,0,-8,-24,1,20,-1,-4,-7
12225,-3,10,10,13,6,-4,-39,-37
12230,-6,-6,-14,3,-9,-2,-30,-40
12235,0,-3,1,-3,-3,0,26,52
12240,5,3,6,-7,-13,-4,16,46
12245,-7,-9,-29,-24,-1,7,-5,-36
12250,2,3,4,7,-11,-10,-2,13
12255,-4,3,21,8,23,3,-34,-31
12260,3,-3,-7,-7,1,4,27,36
12265,0,-6,-21,-36,-1,1,25,5
12270,8,0,-6,1,2,-5,-15,47
12275,-18,-4,-10,3,-33,-5,-28,-101
12280,-3,-3,-4,-33,16,5,-10,65
12285,4,7,16,15,5,3,15,12
12290,-2,-8,-19,-6,-6,-5,-11,-29
12295,2,-4,-2,-8,-13,-2,57,28
12300,-1,4,6,16,-4,3,-38,-30
12305,-1,1,-1,-1,6,-1,-19,-6
12310,-2,-3,-21,-5,3,-6,-26,-22
12315,-1,2,28,19,16,4,9,13
12320,-6,-8,1,3,-10,1,-6,-19
12325,9,0,4,7,13,-3,52,29
12330,3,-1,6,-5,-3,6,16,29
12335,1,2,-24,-9,2,3,-9,-55
12340,-2,2,36,24,1,-8,-18,9
12345,-3,-6,-14,-8,-11,-10,-26,-15
12350,-4,-5,-5,3,4,0,-22,-21
12355,1,-1,-12,-1,4,9,42,-4
12360,-2,-1,19,-3,-4,0,-20,50
12365,-7,-3,-16,8,1,-7,-23,-39
12370,-2,-3,1,9,10,1,39,14
12375,2,2,-3,-4,2,-8,-42,-17
12380,8,4,13,10,-6,10,48,30
12385,-5,-2,13,-2,-4,-10,-46,-51
12390,-7,-2,0,-1,-19,-7,-15,-31
12395,3,-4,-4,9,30,13,13,30
12400,2,-2,-19,-10,3,-8,37,46
12405,-3,-1,-4,1,6,4,-20,-55
12410,2,3,-12,-5,-6,5,42,62
12415,0,-4,15,10,-1,-8,-13,34
12420,-5,-1,-9,11,3,1,12,-63
12425,2,-3,3,0,3,-2,-21,21
12430,-2,-3,-12,-2,4,0,71,32
12435,5,10,38,-2,-9,-3,-69,-12
12440,-1,-10,-65,-25,-2,-6,8,5
12445,-2,9,42,8,1,11,38,7
12450,-3,2,20,11,1,0,-41,2
12455,1,-2,-25,-2,-14,0,66,17
12460,-1,-4,21,-15,-4,-5,-32,-18
12465,-7,-5,-13,-34,3,-2,29,-23
12470,-2,2,-13,-5,-1,-4,-89,-10
12475,3,-2,18,3,1,10,41,33
12480,-3,3,-7,2,-3,-5,-21,-40
12485,-1,2,6,6,-5,-3,26,66
12490,2,-3,7,-7,13,6,18,-16
12495,-1,-3,-17,-14,-14,-8,2,-17
12500,-2,-1,20,18,-4,0,-2,3
12505,7,1,-7,5,2,0,-11,-20
12510,1,4,5,7,5,3,12,53
12515,-2,-9,-21,-11,-15,-11,-21,-64
12520,-6,-2,9,7,10,-6,-32,-17
12525,-4,1,-6,6,1,6,35,16
12530,0,-2,4,6,-2,-7,-9,-21
12535,3,1,-4,-6,9,7,27,8
12540,0,-2,15,19,-15,-6,-48,15
12545,10,-7,-21,-12,6,0,24,-18
12550,-3,13,12,10,-11,-5,-30,20
12555,-12,-10,-11,-5,2,-6,-6,-53
12560,5,13,10,-9,-11,3,-6,25
12565,-9,-6,23,12,14,-1,7,-12
12570,4,-5,-30,-11,1,1,23,-6
12575,2,2,9,-1,-35,0,-6,5
12580,1,-9,-29,-4,42,7,6,2
12585,12,7,8,-6,-40,5,7,25
12590,-10,-4,-2,-14,-7,-20,-45,-43
12595,-5,0,-4,-11,4,0,40,0
12600,0,-5,-11,2,-15,-4,-31,14
12605,1,2,-5,1,1,-4,-8,-2
12610,0,-2,15,28,15,8,19,-28
12615,4,3,4,-2,-1,3,-7,17
12620,4,4,7,11,-3,0,-4,24
12625,-1,-4,-15,-5,6,14,13,25
12630,-2,0,-19,-28,-10,-2,29,-1
12635,4,7,10,8,17,-3,-30,-13
12640,-8,-7,-15,-14,-13,-11,-16,2
12645,-9,6,28,13,4,-11,-78,-39
12650,0,-6,-23,-16,0,9,32,26
12655,6,-1,-1,8,7,5,-11,56
12660,4,5,-6,-31,-6,4,45,-75
12665,-4,-3,-23,-8,-14,-15,-6,58
12670,-1,0,51,14,30,8,-29,-66
12675,-5,3,8,17,-7,-12,-16,-5
12680,1,-2,-1,-13,0,2,16,-2
12685,3,-3,-19,3,11,3,-8,15
12690,2,3,-5,-16,-6,0,9,12
12695,-5,-8,14,20,4,-2,-32,-23
12700,-4,4,16,3,2,-3,8,-9
12705,0,-3,-9,2,-6,0,22,-2
12710,4,-3,1,6,9,-1,-18,19
12715,0,0,-6,-15,-6,4,1,14
12720,4,4,3,-1,-12,5,50,22
12725,-3,-2,-2,4,6,-14,-55,-31
12730,-3,-6,0,7,-10,1,-1,19
12735,-7,-1,13,-5,6,-7,39,-3
12740,0,2,-10,-1,-6,6,-10,-3
12745,2,-4,1,-2,17,12,14,7
12750,-2,-2,-11,-29,-16,-7,-3,-13
12755,0,6,4,2,0,-5,-33,10
12760,-2,-3,-14,5,4,-1,7,-20
12765,9,-1,6,1,-4,1,0,19
12770,-5,-5,-8,1,-6,-13,-8,9
12775,-7,0,13,-11,-1,3,32,-38
12780,-2,-1,-8,5,-2,-4,-26,1
12785,0,-2,-1,15,1,1,21,-9
12790,4,3,-3,4,-1,4,7,9
12795,1,-4,-7,-19,-4,-1,-46,-11
12800,-6,-10,-20,-3,-1,-6,20,14
12805,-6,5,20,18,-7,-4,-16,-7
12810,4,-2,-5,12,21,14,37,-17
12815,1,-1,11,-20,-5,1,22,16
12820,1,-3,-8,6,-3,-4,-17,4
12825,0,8,27,-14,-2,4,3,16
12830,-2,-1,-24,7,-3,1,4,0
12835,1,-1,-12,1,6,-2,-31,-20
12840,5,2,26,18,4,6,14,6
12845,0,-8,-24,-6,9,5,15,16
12850,-1,13,29,5,-4,2,11,-2
12855,4,-4,-19,-4,-4,-1,16,53
12860,-1,0,5,1,-3,-2,-25,-16
12865,-11,-4,1,-2,3,-3,2,-6
12870,0,-2,2,7,-5,-5,-15,16
12875,0,-11,-8,5,19,11,11,-20
12880,-5,16,31,0,-3,-5,-29,-3
12885,-1,-5,-16,-22,-1,2,5,-33
12890,-3,-4,24,6,-11,-5,9,7
12895,1,0,-8,6,2,-5,23,38
12900,1,-10,-22,-1,3,5,12,-37
12905,2,0,-28,-16,-2,-2,-11,13
12910,-11,-4,7,-4,-3,-14,-41,-65
12915,-1,-3,7,-4,-6,3,-20,-6
12920,5,8,11,10,13,7,46,35
12925,7,2,-9,-15,-11,-8,5,0
12930,4,1,-7,-5,-7,-4,-5,15
12935,-1,-3,-15,9,-1,-3,-45,-33
12940,-3,-6,-3,-29,-10,-10,-11,-14
12945,-4,-5,-2,5,-6,-5,12,36
12950,6,5,8,3,5,8,4,10
12955,0,10,12,4,2,3,16,11
12960,-1,-7,-3,1,-2,-1,-47,12
12965,-4,-4,-39,1,-6,-7,-10,-74
12970,7,0,10,-49,4,4,22,66
12975,-2,0,7,44,5,-11,16,4
12980,-6,-3,4,-4,2,-3,-10,-18
12985,-5,-3,7,13,-1,-2,19,39
12990,-2,-5,-20,9,1,6,23,6
12995,5,2,-3,-6,-2,5,32,22
13000,1,-4,4,3,7,1,-21,-41
13005,3,-2,-29,-9,1,4,22,43
13010,-4,-2,40,37,-1,-12,-18,-62
13015,-5,-1,8,-14,-6,7,6,-14
13020,-1,-3,-12,4,5,2,-5,-4
13025,-4,-1,17,1,-3,-5,-16,3
13030,5,2,-10,-5,-1,5,19,18
13035,-2,-3,-11,2,1,-1,-9,-3
13040,7,4,6,5,1,10,35,40
13045,3,0,12,22,5,-1,-58,-85
13050,-14,-5,-15,-40,-23,-9,4,6
13055,0,2,-10,2,20,5,44,17
13060,-7,-6,6,-4,-18,-8,-9,11
13065,-3,-6,-1,0,24,-1,-22,-6
13070,2,4,-2,14,4,4,-6,1
13075,2,-3,-24,-15,-8,-3,-35,-19
13080,3,5,7,6,-4,-4,44,15
13085,-2,-5,1,-9,1,2,-22,40
13090,-5,-4,-9,0,4,-9,-40,-48
13095,-4,2,-2,3,-1,-2,-31,-63
13100,-5,-13,-47,-18,0,1,44,8
13105,2,12,74,21,-11,-8,14,30
13110,-3,-3,-19,23,10,-1,-7,-24
13115,2,-2,11,-27,-6,-2,25,35
13120,1,4,4,14,3,2,-46,-30
13125,8,4,-11,-12,2,15,81,11
13130,-7,-2,8,21,-4,-13,-73,-28
13135,-2,2,12,3,-8,-10,-17,1
13140,-4,1,9,7,29,11,41,-18
13145,0,-5,-16,-19,-9,0,-3,36
13150,-3,0,11,9,2,8,27,4
13155,-1,-6,-11,-18,-5,3,-17,3
13160,1,-5,-6,-12,-10,-17,-42,17
13165,3,15,-34,21,8,3,3,-8
13170,-1,3,29,11,-19,-3,16,-20
13175,-2,-2,21,-39,4,0,-23,-2
13180,-3,-7,-9,-4,-5,-13,10,3
13185,2,-3,-10,2,10,10,25,11
13190,3,-4,-27,-23,-23,-2,-20,5
13195,-1,4,-2,24,13,-6,9,48
13200,-5,-2,1,-5,-2,1,-19,-73
13205,-13,-10,8,-14,-14,-17,-28,-44
13210,5,3,-5,-7,12,6,23,37
13215,0,-6,-3,9,-11,-10,10,-9
13220,4,7,-13,5,-8,9,29,66
13225,-4,-4,20,12,1,-3,-35,-17
13230,-4,-6,-22,-30,10,3,20,-14
13235,2,1,20,20,2,1,4,-6
13240,-2,6,3,-8,-4,-14,-76,-88
13245,1,-3,-10,2,-8,4,39,57
13250,-2,-7,1,0,7,-7,-28,33
13255,2,-1,13,5,11,9,-11,-29
13260,-1,5,24,18,-4,-5,55,29
13265,-4,2,15,-11,-5,-4,-37,-22
13270,4,0,-18,-4,5,2,-12,-17
13275,-2,-5,-18,-8,-10,-4,11,0
13280,8,3,10,0,1,9,20,97
13285,-1,-3,2,-1,0,-2,-38,-78
13290,-5,-1,1,-5,-1,-5,0,-5
13295,2,3,-7,0,0,6,22,19
13300,-1,-1,4,5,-3,0,-19,-24
13305,3,-2,-17,-8,-3,-3,-7,15
13310,3,5,0,-10,-9,-1,-13,5
13315,-1,4,-3,-12,22,6,40,-12
13320,-5,-7,-13,-17,-6,-5,-52,-23
13325,3,2,4,3,-1,4,21,4
13330,1,-4,-2,1,0,1,34,86
13335,-3,-2,0,1,-12,-10,-28,-32
13340,-3,-8,-32,-3,-3,1,-6,-20
13345,-10,4,44,-1,8,-5,-20,-48
13350,7,0,-3,4,7,7,28,36
13355,-6,-5,-30,-4,-10,-10,-18,-42
13360,-4,-7,-4,2,10,0,34,28
13365,-6,-2,-3,7,-3,-10,-12,-12
13370,6,5,4,5,5,11,12,-7
13375,-3,-9,-10,-9,-7,-6,11,5
13380,4,6,7,-3,-4,4,-17,-1
13385,1,-5,-11,14,5,-8,-26,-10
13390,-9,-5,-3,-32,-8,2,47,2
13395,4,4,-3,12,6,-1,-21,-35
13400,-8,0,18,-3,-3,-1,-14,-15
13405,-4,-5,-17,2,-7,-3,62,49
13410,-5,-3,0,-3,-7,-9,-27,-37
13415,2,2,10,9,12,9,-16,21
13420,5,-6,-8,0,3,-4,11,56
13425,-5,6,-2,-16,-7,5,-1,-77
13430,-1,0,19,18,1,3,-22,-11
13435,0,-2,-19,-7,-12,-2,10,37
13440,-5,0,13,3,-1,2,13,-13
13445,-6,1,3,4,1,-3,-30,-9
13450,-6,-8,-3,-1,4,-3,-8,-16
13455,4,2,15,32,8,-1,14,-10
13460,-2,-3,-6,-56,1,4,11,23
13465,10,-1,-5,-14,-4,3,24,75
13470,-4,-3,-3,13,12,2,-14,-53
13475,2,-1,3,7,-1,5,37,45
13480,1,5,2,-6,-6,-3,-2,-34
13485,-8,-7,10,-14,-5,-14,-67,20
13490,7,4,-6,3,-4,4,9,13
13495,-6,-4,-26,-12,-6,-9,5,-15
13500,2,3,36,3,-2,4,-4,-7
13505,5,2,1,6,17,5,-1,-24
13510,2,-2,-9,-3,-4,-5,14,36
13515,-6,0,13,6,-6,-5,-45,-36
13520,-3,-6,-28,3,-11,-8,-13,6
13525,0,2,12,7,-6,5,11,-55
13530,2,1,-3,19,12,2,31,65
13535,2,-2,-16,-20,-11,3,-19,5
13540,-1,0,24,21,15,2,-6,2
13545,5,-1,-5,2,-3,0,30,13
13550,-12,-3,-5,2,-8,-19,-56,-77
13555,-5,-1,11,-7,-8,2,4,11
13560,-3,-11,-12,6,7,-1,-2,-2
13565,4,12,10,-7,-17,7,33,8
13570,-2,-8,-14,-7,3,-2,-11,-1
13575,0,4,13,-4,2,-5,-27,30
13580,2,-1,-24,-5,-11,-10,17,2
13585,2,-6,-7,-4,-1,-2,-44,30
13590,-5,2,8,-11,-22,-2,15,-52
13595,0,-2,15,18,31,1,0,25
13600,-1,7,-1,32,0,7,-9,-64
13605,-4,-5,-17,-18,17,-1,3,27
13610,1,0,0,0,-6,-7,17,11
13615,-4,-4,-6,-9,-7,2,-23,3
13620,4,2,4,5,-4,-2,-6,-29
13625,0,-8,-42,-2,-7,2,62,76
13630,1,7,42,-18,3,-7,-49,-2
13635,3,2,41,4,10,3,22,7
13640,0,2,-5,0,5,-1,-2,-14
13645,-3,-3,-5,4,-9,-3,-39,-15
13650,2,5,-4,4,4,3,3,17
13655,4,2,-12,-8,-15,-2,8,-32
13660,-8,-12,-19,-2,7,1,10,83
13665,2,10,30,13,3,4,17,-54
13670,2,2,-10,0,5,2,-22,-1
13675,-6,-1,5,-15,-3,-15,-2,10
13680,-2,-4,-28,-25,-42,-4,-26,-20
13685,2,0,19,16,-2,-2,-2,14
13690,-1,-5,-16,6,8,1,11,8
13695,1,0,-20,1,-12,0,-12,-21
13700,5,-11,-49,-9,0,13,61,29
13705,-10,26,75,17,19,-4,-20,-56
13710,0,-1,0,1,-15,0,65,-2
13715,-4,-5,-4,2,-5,-3,-5,1
13720,1,0,27,18,16,-11,-5,34
13725,3,-11,-23,-1,-1,8,1,3
13730,-4,-3,-12,-5,7,1,-26,-5
13735,4,7,-5,5,5,6,22,-29
13740,12,5,4,4,3,6,6,71
13745,-11,-11,-11,0,-19,-10,-40,-7
13750,-8,-6,-3,5,4,-15,-28,-35
13755,-4,-6,0,-30,9,6,33,3
13760,7,11,23,9,7,4,-18,5
13765,2,-6,-9,-10,4,0,2,0
13770,-1,-3,-17,-1,-9,-1,1,2
13775,1,-3,-7,1,-11,2,-17,16
13780,-4,-10,-45,-10,1,-4,1,-27
13785,10,21,54,-8,18,-5,14,10
13790,-14,-4,29,8,-9,-2,23,-18
13795,2,-1,-3,-1,3,-1,-14,-3
13800,-8,0,0,-7,2,-1,-34,-18
13805,0,-12,-32,-9,-8,-1,34,21
13810,11,1,-6,-6,3,9,3,20
13815,-5,0,3,7,1,-3,-11,-10
13820,0,2,18,2,-1,0,10,-8
13825,-1,-9,-49,-17,-15,-1,-10,-17
13830,5,8,45,46,30,3,-38,32
13835,-6,-7,-24,-34,-18,-11,84,-16
13840,-9,-2,15,-1,-6,-7,-89,-32
13845,-5,-5,-3,3,-4,1,80,16
13850,3,2,-12,-6,-2,3,-6,-24
13855,3,1,4,17,1,0,-12,7
13860,0,3,11,1,5,2,17,-4
13865,4,-2,-6,-11,1,2,-22,-6
13870,3,-4,-5,-14,-7,0,8,8
13875,5,3,-11,19,0,6,-29,40
13880,-14,-3,21,-32,-5,-6,-1,-44
13885,-10,-17,-29,0,-9,-10,10,-20
13890,9,9,15,2,3,0,28,55
13895,1,0,-7,0,-2,8,-22,-13
13900,4,1,1,15,-18,0,30,2
13905,1,1,18,10,25,0,-16,12
13910,-2,3,-10,-8,10,6,38,-22
13915,-10,-9,-18,-5,-2,-16,-77,-47
13920,0,1,8,16,-1,-4,22,21
13925,-1,-4,-21,-20,-4,7,23,32
13930,-1,-4,-11,2,-7,0,-13,-9
13935,3,6,14,3,3,1,15,20
13940,2,0,-6,-6,8,2,-27,-4
13945,-11,-4,0,5,-6,-9,-40,-62
13950,0,-2,-8,-7,-7,-4,-25,-15
13955,-1,-3,1,8,-3,-1,22,31
13960,7,7,4,-3,6,1,-16,0
13965,2,-2,-4,-2,-4,-2,-23,2
13970,-7,-3,8,-5,-1,1,26,3
13975,2,-1,-15,-2,7,5,-12,0
13980,-4,1,22,20,5,-7,7,-13
13985,8,5,10,2,5,4,-5,12
13990,2,-5,-19,-11,-5,-3,-14,17
13995,-11,-14,-28,-16,-1,-10,25,-63
14000,5,12,35,-5,18,11,-6,32
14005,-3,-2,10,-11,-6,3,14,5
14010,-3,0,1,3,-14,-13,-25,2
14015,1,1,-5,3,1,4,13,0
14020,-3,-6,-16,6,-3,-2,7,2
14025,-1,3,2,-1,-6,-3,-37,-31
14030,0,-5,-11,-16,5,3,15,44
14035,0,-1,9,5,-6,-7,-17,35
14040,-9,-6,-9,2,2,-1,-2,-54
14045,14,8,10,26,3,5,8,56
14050,-14,-6,-2,-9,-12,-2,-1,-43
14055,-7,-1,-2,-3,2,-9,-11,-1
14060,5,-4,1,0,8,11,39,14
14065,-1,0,-25,-3,-14,-6,2,16
14070,2,3,8,18,4,-6,-35,-19
14075,4,6,13,1,2,11,28,10
14080,-7,-3,-4,-23,-2,-6,-50,-21
14085,-1,-3,-16,6,1,2,3,18
14090,7,-2,-11,2,-1,6,31,24
14095,-1,3,42,5,-12,-2,-20,-5
14100,-7,3,-9,2,-1,-6,37,-7
14105,0,-3,-9,-23,5,-5,-29,-16
14110,-10,-4,4,-2,-11,-6,-39,-60
14115,5,-5,-11,7,2,0,19,44
14120,4,5,-6,14,-11,-4,-25,-22
14125,3,2,-8,-5,5,11,18,36
14130,-2,-2,10,-19,-11,-17,-10,-13
14135,-3,-1,20,7,24,6,-39,-38
14140,-3,-9,-17,-3,-21,-9,33,42
14145,0,5,-2,-10,6,1,50,-25
14150,4,0,12,6,15,10,-18,0
14155,0,1,-3,-5,-8,1,15,4
14160,6,5,1,5,6,2,-30,7
14165,-8,-9,-1,0,-12,-6,-13,-20
14170,2,-3,-17,-30,-3,-1,22,22
14175,-8,3,21,10,-4,-1,-20,-12
14180,1,-2,3,14,4,1,13,11
14185,0,1,7,0,-8,-1,3,-2
14190,0,0,-16,7,5,4,-9,-10
14195,1,-5,-16,-7,-10,-4,-10,18
14200,6,2,1,-4,-7,2,-19,-4
14205,-9,-1,2,14,13,-1,9,13
14210,-12,-10,-15,-13,-10,-9,4,-75
14215,-3,2,-13,-24,-10,1,-2,13
14220,-4,-1,32,0,9,-5,0,23
14225,1,4,2,2,0,-3,-19,-40
14230,4,2,-2,9,4,5,8,35
14235,3,-1,-25,-6,-3,0,36,-2
14240,4,4,13,-4,-7,5,20,-9
14245,-19,-11,-19,-19,-7,-29,-44,-20
14250,-1,5,38,37,4,7,46,-18
14255,3,-1,-11,-26,1,-5,-24,-19
14260,2,-6,-23,-10,-5,5,36,35
14265,-1,-4,8,0,-2,6,-16,-7
14270,4,4,-3,0,1,6,11,34
14275,-1,0,8,10,-2,-7,25,-16
14280,2,-3,-23,-12,1,7,-15,-4
14285,-4,4,31,16,-14,-5,-22,14
14290,1,-3,-23,-10,21,-1,-15,8
14295,0,-1,20,5,-3,6,27,-27
14300,-3,-5,-11,-8,-6,-7,1,13
14305,1,-9,-16,4,-2,9,14,-32
14310,-1,10,34,-2,-2,-9,-32,11
14315,-2,0,-9,15,-8,-6,-51,-29
14320,1,4,5,-4,9,1,24,0
14325,0,-1,1,-48,-1,1,11,17
14330,4,-1,-12,9,4,3,-10,-9
14335,-1,-5,-13,-12,-4,-5,-23,38
14340,-6,3,6,2,-2,-12,-33,-48
14345,2,-1,1,7,-3,11,66,75
14350,-2,-4,-7,-6,-2,-7,-26,-57
14355,-1,2,9,29,-4,1,5,26
14360,4,-2,-9,-21,8,6,5,-21
14365,0,3,11,18,7,-6,-26,-19
14370,2,-1,-10,6,-4,3,34,35
14375,-4,-3,-9,-19,2,0,37,-21
14380,1,0,8,21,-18,1,-42,28
14385,2,-2,-33,-26,25,-1,7,-49
14390,2,0,20,13,-1,2,-5,34
14395,3,5,22,36,14,5,-1,-27
14400,-4,-3,1,-5,20,3,67,67
14405,-4,1,-5,-9,8,-4,-31,-32
14410,-6,-7,-23,-4,1,2,-7,10
14415,-3,2,10,1,-10,1,2,-15
14420,-9,-3,8,-9,-9,-6,3,-3
14425,5,4,-9,10,-2,-3,-54,-48
14430,-2,-8,-4,-1,-5,-2,41,14
14435,2,-5,-5,-29,-14,1,5,33
14440,-2,5,22,11,16,-4,19,-17
14445,0,-1,3,3,-8,-6,6,17
14450,-2,2,5,-2,-5,3,-10,-33
14455,3,-3,-8,-4,7,-1,5,49
14460,-12,-8,-18,-9,-9,-11,-22,-67
14465,4,-2,3,5,-9,6,27,24
14470,6,8,16,-7,1,-1,-38,2
14475,-2,-4,-7,2,9,-4,11,7
14480,-4,-5,-6,1,-15,-9,-39,-36
14485,1,2,17,12,4,11,25,0
14490,-6,-7,-13,12,-5,-10,7,18
14495,-1,6,-10,-15,2,-2,-1,7
14500,7,4,24,10,0,9,19,11
14505,-5,-3,-7,2,-11,0,-18,-1
14510,4,0,-9,1,2,-2,-38,8
14515,-10,-11,5,1,-2,-1,-15,-39
14520,3,13,-42,-5,-21,-4,1,7
14525,-4,0,79,1,11,6,52,30
14530,4,1,3,-6,-3,7,9,-17
14535,-1,-4,-5,3,3,-3,-32,-29
14540,-3,-1,-2,18,4,-2,-4,1
14545,1,-9,-43,-21,-12,0,34,19
14550,0,6,6,12,-2,-6,-13,23
14555,1,13,23,-29,-15,2,22,-5
14560,-4,-7,4,10,12,-7,-41,-32
14565,2,-1,-13,-6,-4,-3,12,64
14570,-6,-3,6,16,5,-1,-3,-77
14575,6,0,-16,10,-2,6,33,37
14580,-6,-10,-14,-26,-12,-10,-1,60
14585,-6,-1,-7,6,-8,-16,6,-47
14590,-5,-3,-13,-2,19,6,-42,-56
14595,3,3,12,-12,-2,0,15,-5
14600,0,-4,-13,-27,20,7,36,28
14605,3,-1,-5,9,1,-7,-51,38
14610,-1,0,-1,-20,-23,-7,31,16
14615,1,0,-10,13,16,11,17,-14
14620,3,-4,6,6,-6,-5,-7,27
14625,-7,0,0,-3,-3,-5,-49,-64
14630,1,-1,-5,-22,-24,7,44,12
14635,-9,-7,-7,5,12,-13,-85,-53
14640,1,2,15,-2,32,6,7,4
14645,2,-3,-14,1,-43,4,19,16
14650,-3,-5,-37,4,-14,3,12,29
14655,5,4,43,-28,6,-1,-16,-4
14660,-1,-2,-9,3,28,3,24,-14
14665,-5,-4,0,-15,12,-8,-54,-22
14670,6,4,-8,7,0,17,37,20
14675,-3,-7,-17,-22,-14,-26,-37,35
14680,3,8,9,9,-15,13,-12,-106
14685,3,-1,-5,-4,14,9,22,67
14690,-2,-5,4,-2,-16,-16,-2,17
14695,-3,0,1,21,5,9,-28,-23
14700,-2,-4,-3,-22,-10,-1,14,40
14705,5,3,-7,17,2,-1,-21,-15
14710,-6,-2,28,-31,41,-1,-6,-32
14715,-2,-4,-16,3,-2,-1,-43,-26
14720,3,-4,-11,10,-20,-15,40,87
14725,-11,1,14,20,10,4,-4,-117
14730,1,-5,-13,-6,1,-2,-3,30
14735,3,7,7,16,8,4,45,55
14740,-7,-4,-4,-3,-18,-6,-78,-59
14745,2,-7,-6,0,-3,4,32,27
14750,-1,4,-12,-8,-6,-5,-3,3
14755,4,-5,10,16,-6,-1,16,18
14760,0,4,-30,5,-7,9,-4,-24
14765,3,5,64,24,12,-11,-44,-15
14770,-4,-1,-5,1,-1,-3,25,46
14775,-1,-4,-12,8,-8,7,41,-17
14780,-3,-3,-2,-33,1,-8,-13,5
14785,2,1,-16,-17,10,8,28,8
14790,-2,-3,-9,-2,-10,-3,25,21
14795,-4,0,-8,-8,-3,-17,-50,-39
14800,6,-2,16,9,-6,7,48,19
14805,0,5,15,2,3,8,0,-8
14810,5,1,4,22,-3,-16,-64,5
14815,-10,-8,-15,-11,-31,-8,111,42
14820,-2,0,2,1,26,-3,-52,-6
14825,1,2,-26,-5,27,12,29,-12
14830,-5,-4,15,3,2,1,-5,-28
14835,5,2,0,-2,-17,4,-10,9
14840,-1,1,19,12,-5,-10,-43,-9
14845,-8,6,7,6,-7,-7,28,35
14850,3,-1,3,7,12,8,-43,-35
14855,-12,-7,-14,-23,-36,-10,21,-31
14860,2,-6,-44,1,-26,4,14,47
14865,2,11,55,28,9,7,22,1
14870,-2,-3,-15,-34,-4,4,-2,-6
14875,7,2,13,22,53,10,-12,11
14880,0,3,4,11,-4,4,27,31
14885,-4,-7,-22,-21,-24,-13,-42,-36
14890,-3,-2,-13,7,-1,2,10,18
14895,-1,3,21,10,26,9,12,-5
14900,5,-1,-2,-16,-7,0,-10,-10
14905,-8,-9,-16,16,-8,-16,-39,-36
14910,6,3,16,2,25,10,23,69
14915,-5,-2,-21,-10,-13,-11,2,-18
14920,-3,0,18,9,1,4,2,-55
14925,0,1,0,-5,-19,-1,10,11
14930,-10,-8,-8,-7,-11,-14,-12,-19
14935,3,2,19,4,-1,5,-58,4
14940,-3,-6,-12,1,7,-3,60,-6
14945,6,-3,-20,-6,9,5,-17,6
14950,-3,0,21,-11,-22,-2,43,-7
14955,-2,1,1,14,6,-1,7,4
14960,-2,0,10,9,19,5,1,-8
14965,3,1,-2,-13,-1,-4,19,-15
14970,-5,-2,2,4,-6,-12,-93,-42
14975,-5,-8,-17,-7,8,0,37,39
14980,-11,-2,17,4,8,4,-38,-73
14985,-2,-6,-26,-43,-34,-6,56,53
14990,4,6,7,6,25,-2,-23,-45
14995,1,1,-5,-2,-7,3,15,18
15000,-7,-3,-7,-6,7,-5,-4,-39
15005,4,-2,-23,19,5,6,2,59
15010,4,6,21,5,-11,8,14,-32
15015,1,3,-3,-3,-4,2,-39,-24
15020,1,1,-2,4,-11,-5,16,35
15025,-2,-2,5,5,-5,-2,-27,3
15030,5,3,-8,2,-5,8,56,57
15035,-2,-3,-8,3,9,-8,-91,-5
15040,1,2,27,14,7,7,52,-14
15045,1,-2,-18,-45,7,2,-12,-10
15050,-5,-2,-10,-2,5,-4,4,3
15055,6,5,22,20,4,11,30,16
15060,10,9,2,-7,-6,6,-36,12
15065,-9,-8,-1,6,-8,-4,14,15
15070,-2,-2,2,3,-8,-13,12,-3
15075,-4,-7,-18,-50,-29,-9,3,1
15080,-1,5,8,16,21,1,-18,-48
15085,3,2,14,29,31,4,12,38
15090,1,0,9,13,-46,1,0,8
15095,2,2,-13,-6,-22,-8,-17,-4
15100,-12,-10,-8,-21,14,2,24,-5
15105,3,3,1,5,1,3,-13,-20
15110,1,-2,-16,-8,11,1,0,8
15115,-3,-1,10,8,3,1,19,-6
15120,3,-4,-26,-11,-22,-4,-32,2
15125,9,2,15,30,-5,-5,-6,15
15130,-21,-9,-15,-15,1,-12,-28,-34
15135,-2,0,17,9,41,3,55,-15
15140,2,2,-9,3,-34,-7,-2,26
15145,1,-2,-5,-4,-5,2,6,-9
15150,7,3,5,1,7,4,0,23
15155,-2,-1,-14,-4,-8,5,26,16
15160,-3,-6,-4,-2,12,-20,-89,-3
15165,-12,4,17,-18,-4,-8,18,-57
15170,1,-2,-13,-4,-9,3,-10,4
15175,4,0,-10,-1,2,6,15,6
15180,4,4,25,21,4,6,32,28
15185,2,1,-10,-18,-13,0,-53,-14
15190,0,-4,-7,18,31,5,34,-9
15195,-3,-1,9,12,-13,-5,-4,24
15200,-5,-3,2,-20,-5,-2,11,-6
15205,-5,-2,3,6,5,-3,-20,-10
15210,2,7,31,23,17,2,3,-16
15215,6,1,-7,12,2,7,-36,-19
15220,-6,-9,-24,-12,-7,-13,-16,11
15225,-3,2,4,-4,-4,-2,14,2
15230,3,-4,-21,-27,-12,-1,-26,13
15235,1,6,35,28,21,8,29,16
15240,6,7,8,-8,-1,-1,-36,-35
15245,3,-4,-7,-9,6,1,9,36
15250,-7,-3,-6,-8,-13,6,7,-56
15255,-1,0,-6,-6,-8,-6,-10,28
15260,-5,0,-4,-24,5,-3,7,-31
15265,2,-1,13,10,6,7,-12,3
15270,-5,-2,8,3,-1,-11,2,8
15275,-1,-2,-8,-19,-1,1,-23,-46
15280,8,-2,-8,24,-9,6,35,100
15285,-7,2,-8,-35,-23,-7,8,-82
15290,2,3,20,18,54,18,10,21
15295,1,-1,-7,-2,-8,-3,22,-8
15300,-3,-8,-17,-6,-12,-8,-37,-5
15305,3,4,1,7,3,3,10,48
15310,2,-2,-4,5,-17,-6,-3,-2
15315,-2,-1,-10,-12,-8,-4,-2,16
15320,-4,1,13,6,5,3,19,-45
15325,0,-3,-7,8,11,1,-19,27
15330,-1,-1,16,9,-2,-4,-5,-35
15335,-4,-6,-10,-45,-4,3,46,49
15340,6,5,6,3,-10,3,-27,-25
15345,-4,-6,-13,-9,-1,-1,-14,7
15350,-2,-1,-7,11,-7,-5,-29,30
15355,-6,-5,-24,4,-6,-4,-2,-48
15360,-3,0,11,16,10,4,-9,1
15365,2,-1,8,4,3,0,14,-1
15370,13,2,-3,-13,0,5,9,45
15375,-4,0,-2,6,-3,-12,-62,-45
15380,-12,-3,-2,-9,-6,-11,55,-5
15385,-3,-3,-2,31,5,-9,-7,-23
15390,7,1,-10,-17,12,14,23,66
15395,-7,0,0,-16,-2,-2,-18,-19
15400,2,-6,-1,22,3,-1,26,9
15405,3,8,1,-12,-8,2,7,23
15410,-3,0,-3,-2,-15,-8,-27,-51
15415,5,1,-31,1,18,-4,-24,23
15420,-4,-1,45,29,19,10,3,-7
15425,0,-7,-24,-12,-12,1,-6,-11
15430,-10,7,14,-2,0,-7,24,-21
15435,8,1,20,21,19,11,10,33
15440,0,-3,-18,-19,-16,-10,-36,2
15445,4,0,-7,-5,7,7,13,5
15450,-3,-5,-15,-8,-10,-1,-14,-12
15455,-9,-6,17,24,-9,-9,-7,-42
15460,10,12,7,-3,-3,4,24,26
15465,-14,-8,6,17,15,-3,-15,-35
15470,-4,-6,-21,9,-6,-7,-18,4
15475,8,2,7,7,6,12,62,28
15480,3,-4,-13,-10,-11,4,5,22
15485,3,1,-18,-20,16,-8,-12,3
15490,9,6,45,23,-37,9,9,38
15495,-11,1,-5,-8,19,-5,7,-65
15500,-8,-4,-1,1,-4,-6,-70,-3
15505,8,4,-2,-13,-11,2,11,41
15510,-3,-3,-10,-12,0,-8,-13,-19
15515,5,-3,4,-8,2,6,18,27
15520,-3,-3,-10,-19,-12,-2,5,7
15525,-3,-3,-28,6,4,3,22,-34
15530,1,1,34,-15,9,-11,-71,-31
15535,-2,4,9,22,-12,-2,59,30
15540,-6,-3,-23,-23,7,-7,-47,0
15545,0,-1,19,14,-20,3,-19,45
15550,-13,-4,-25,-7,12,3,5,-106
15555,2,-3,-2,9,-21,-3,-2,55
15560,0,0,4,-13,1,0,13,3
15565,-3,-6,-12,-24,-11,-4,-23,4
15570,-1,2,-3,30,2,1,73,32
15575,-4,-3,-3,-29,-20,0,-69,-34
15580,2,-1,-13,4,14,-1,12,11
15585,-6,-1,-2,4,-26,-1,-12,-18
15590,1,-5,-13,-30,22,-1,13,43
15595,-1,0,-11,19,28,-1,-11,-65
15600,0,2,20,2,-31,-2,-34,-49
15605,3,4,13,6,-3,-3,32,14
15610,-9,-5,-5,-12,-14,-6,3,8
15615,0,-2,-24,-19,-3,-2,-23,5
15620,6,2,13,22,18,8,19,0
15625,-6,-1,19,6,-21,-6,14,-11
15630,6,4,-7,7,2,6,17,27
15635,0,-5,5,-3,-10,-3,17,32
15640,-5,2,-2,-2,-2,0,10,-16
15645,6,2,3,4,7,0,-24,-46
15650,-7,-5,-16,-8,5,1,64,20
15655,1,2,8,-9,-11,-12,-63,-6
15660,0,0,2,6,6,4,3,-30
15665,1,-5,-19,1,21,3,14,50
15670,3,2,21,-2,-7,6,-44,10
15675,-1,0,14,5,-5,-3,12,-18
15680,-3,0,-1,25,-9,-6,17,22
15685,3,3,0,-34,38,6,-15,4
15690,4,1,-22,-1,-6,1,-1,-14
15695,-8,-1,11,-14,-9,-9,-58,-34
15700,5,-6,-3,30,-4,6,47,50
15705,-8,5,22,-15,-16,-7,-39,-71
15710,-4,1,11,6,14,-4,11,0
15715,1,-3,-16,-10,9,-4,14,23
15720,9,-2,-31,-15,-11,7,8,44
15725,-7,-4,12,7,18,-9,2,-3
15730,3,5,-5,-1,10,13,12,-14
15735,-6,-4,26,17,-9,-11,-54,-24
15740,-2,-3,-18,-10,-3,6,52,47
15745,3,-1,-1,1,1,1,18,0
15750,0,0,1,7,-19,-8,-21,-7
15755,-1,-4,-14,0,6,5,1,-11
15760,-6,3,10,-17,-1,-7,-16,7
15765,-1,-1,3,22,4,-2,-13,-25
15770,1,-3,-8,-9,-4,-2,-8,25
15775,-4,-1,7,10,-12,0,-10,3
15780,1,-5,-19,-15,7,2,-24,-8
15785,7,6,22,17,-20,3,50,12
15790,-6,-7,-17,-16,-5,-11,-33,-4
15795,4,0,2,6,14,7,21,13
15800,-2,9,13,-9,5,-3,-41,-58
15805,-10,-16,-21,-6,-9,-5,-9,27
15810,9,9,28,7,8,9,29,3
15815,-3,-3,-39,-12,17,-1,-10,21
15820,1,1,31,22,3,-2,2,-1
15825,3,-1,-16,-1,-5,-3,-20,1
15830,-9,-7,-8,-4,0,-4,4,-12
15835,-3,-4,-26,-16,-17,-10,-22,-1
15840,-3,3,19,14,5,1,20,-36
15845,3,-1,-15,-12,8,-5,-2,30
15850,2,3,23,18,-3,2,-15,-25
15855,1,2,6,8,-6,0,29,12
15860,2,-1,-18,-14,4,9,21,14
15865,-7,0,-3,-1,-2,-7,1,-27
15870,8,-4,-17,-2,-8,-6,-44,4
15875,-5,-3,15,-1,-11,7,37,0
15880,-2,0,-6,-12,3,0,57,-6
15885,5,4,16,19,10,8,-17,39
15890,-6,-5,-6,2,-10,-10,-45,-15
15895,10,3,-10,-4,5,2,25,19
15900,-9,-2,20,3,-1,4,-6,-38
15905,2,-4,-25,18,-7,-1,11,-6
15910,-7,0,11,-23,22,1,19,35
15915,4,8,19,10,-3,8,14,-36
15920,4,-5,-31,-8,4,-6,-7,30
15925,-6,-1,15,6,41,-1,-8,-17
15930,-2,-2,1,5,-57,-8,-15,-27
15935,-1,-2,-33,-15,-1,0,4,52
15940,6,1,35,20,6,1,-6,4
15945,-4,-1,-21,-11,-5,-4,4,14
15950,-5,2,34,18,14,4,14,-56
15955,9,-1,3,-17,-2,5,-2,46
15960,-6,-8,-22,1,-11,-10,-7,16
15965,-2,0,2,-10,-8,3,-25,-67
15970,-3,0,-13,-3,6,7,44,14
15975,-3,1,12,34,-8,-2,-25,-52
15980,-3,-5,-8,-13,7,-5,-22,28
15985,2,-1,3,-16,-6,0,7,7
15990,0,-1,-26,-7,9,-1,-18,-7
15995,-3,2,38,15,6,6,33,-25
16000,-1,-7,-23,-7,-24,-11,-24,7
16005,3,7,5,20,16,5,26,78
16010,-1,2,23,7,12,7,3,-93
16015,-3,-5,-18,-14,-5,-6,5,36
16020,0,4,-10,-6,-1,0,-1,-6
16025,3,-6,-13,-14,-26,-1,29,32
16030,2,-1,-8,2,-2,-2,-30,5
16035,-2,2,32,-2,-8,4,11,2
16040,-4,-5,-12,-48,-3,-3,12,-12
16045,-8,-5,-11,0,-3,0,-31,-50
16050,8,2,-8,-5,-4,1,10,64
16055,-1,-1,-7,2,0,-5,20,-16
16060,2,0,-7,4,5,2,-25,-1
16065,-4,-1,17,0,-14,-5,34,43
16070,1,1,-13,-11,18,10,-11,-14
16075,-7,-4,10,6,2,-11,-37,-29
16080,-1,2,-4,18,9,4,-4,-35
16085,4,0,1,-7,4,5,47,55
16090,0,-3,3,5,-11,-3,6,-5
16095,2,-1,-15,-8,-2,4,2,11
16100,-5,-1,2,9,8,-3,-37,-23
16105,5,2,8,-33,-18,0,1,11
16110,-3,-2,-14,17,4,-7,23,16
16115,1,-1,-5,-4,4,-6,-18,22
16120,-2,0,28,9,24,1,23,-54
16125,-11,-9,-33,11,-4,-18,-67,-59
16130,0,-4,2,-29,-12,-4,-2,5
16135,2,3,9,21,15,-2,4,28
16140,0,-5,-14,-4,-16,6,58,24
16145,5,5,1,11,9,6,-1,-6
16150,-2,-2,-14,-17,-36,-6,-13,-4
16155,-4,-4,4,-2,9,-6,6,2
16160,2,4,10,-1,-2,-2,-66,14
16165,5,3,8,5,-7,6,28,-15
16170,-5,-6,1,-19,-2,-1,16,11
16175,-3,2,-7,6,2,-2,-27,-42
16180,-2,2,-2,2,3,-8,10,13
16185,-2,0,4,6,10,6,-15,-23
16190,8,-1,-11,3,3,3,47,40
16195,-2,1,-8,2,-7,-1,-1,-32
16200,-9,-3,-7,-24,-1,-13,-52,-15
16205,2,-7,-10,-10,-6,-2,-18,0
16210,-1,7,28,20,5,-3,19,22
16215,3,-1,-16,-22,-15,11,21,4
16220,7,8,50,20,9,9,28,20
16225,-7,-4,-4,-2,0,-8,-62,-15
16230,-2,-4,-15,-3,-4,0,39,-28
16235,0,-8,-14,-18,-6,-8,-19,36
16240,1,0,-12,-11,-33,2,4,-15
16245,2,7,23,20,28,14,27,30
16250,-10,-5,-5,-31,-7,-11,-39,-61
16255,-1,-3,10,3,5,2,16,28
16260,3,-4,-22,-2,-5,-3,8,0
16265,0,0,1,-6,-9,5,48,12
16270,2,1,7,10,8,-5,-44,-3
16275,-3,-3,-13,0,6,-2,-7,-31
16280,1,1,18,-12,-2,-1,6,36
16285,2,3,4,13,3,3,-27,-30
16290,-1,-4,-7,3,5,1,38,32
16295,-5,-2,3,-11,-4,0,-21,-70
16300,0,-2,-10,4,5,-2,-7,60
16305,-3,1,-7,-9,-11,-11,-22,-63
16310,-3,-4,37,31,6,7,23,47
16315,5,4,-19,18,-5,-2,-3,39
16320,-5,1,21,16,11,9,49,-53
16325,2,0,1,-21,-6,-2,4,7
16330,-5,-4,-34,-8,-9,-10,-59,-25
16335,6,2,20,21,-7,3,15,57
16340,-3,-2,-2,19,51,3,31,-31
16345,2,2,3,-7,-26,7,-2,31
16350,-3,-1,-11,-13,1,3,-22,-14
16355,11,5,-7,8,21,2,-2,26
16360,-9,-2,31,-7,-11,-8,5,-13
16365,-1,-3,4,9,4,-1,8,-20
16370,2,1,-6,3,-8,1,-8,1
16375,1,-4,-20,-21,-8,-3,9,-17
16380,3,2,-18,-7,-8,1,-29,-3
16385,-7,-7,-7,-7,0,-2,26,6
16390,-3,0,-7,-6,-10,-7,1,-9
16395,2,1,11,10,0,6,23,37
16400,-4,-4,-4,21,-2,-5,-28,-58
16405,2,0,4,-4,-5,-2,25,53
16410,0,0,-10,3,13,6,1,-8
16415,-10,-1,14,-9,-6,-3,19,-36
16420,-3,-6,-33,-30,-25,-11,-21,8
16425,1,2,-6,27,13,1,23,47
16430,4,2,44,13,0,4,-8,-15
16435,1,2,5,-2,-1,5,17,-36
16440,-7,-3,-18,-3,-20,-12,-20,14
16445,3,-1,3,-7,-7,-9,-5,12
16450,0,0,-14,-9,23,11,10,35
16455,-8,0,17,-8,-6,-14,-62,-61
16460,8,3,-3,0,-6,7,45,-11
16465,-6,-12,-24,-10,9,-2,-7,12
16470,-5,7,-5,2,10,-8,9,6
16475,0,5,44,-18,4,1,-15,-3
16480,2,-1,-31,12,18,1,-14,24
16485,-4,-4,12,1,-11,-3,11,-33
16490,-1,-6,7,-7,-8,-3,16,33
16495,-7,-3,-9,-3,9,3,-24,-24
16500,-2,-3,-3,-23,-19,-7,-3,-9
16505,0,1,4,3,17,-4,-49,-32
16510,-1,-2,-11,-5,-15,-5,0,-13
16515,-3,-6,-15,-9,-7,2,32,12
16520,6,2,17,12,-2,6,11,39
16525,-1,3,-7,4,1,6,-16,-26
16530,-5,-4,-1,-14,-7,-6,5,11
16535,1,2,0,7,0,1,-7,-7
16540,1,-1,2,-1,7,6,3,-21
16545,2,0,-2,-6,-3,4,17,21
16550,10,3,-3,24,2,2,-16,43
16555,-16,-13,-27,-53,4,-14,-6,-56
16560,-1,7,27,8,-5,3,-20,1
16565,4,1,10,-9,-5,4,23,22
16570,2,0,-8,1,-2,2,-13,-15
16575,3,-1,-47,16,-5,3,37,20
16580,-5,-8,36,-10,-8,-9,-58,4
16585,-6,1,-3,-7,-7,-7,-11,-32
16590,-3,-2,-6,-22,9,-1,-4,10
16595,4,2,7,15,-43,0,-9,6
16600,-2,-3,-29,-9,-11,-5,15,0
16605,0,-1,14,17,8,8,25,28
16610,3,-8,-16,-11,-15,-9,-18,45
16615,-14,-3,12,23,9,-15,3,-66
16620,0,-3,-7,6,2,2,-10,-11
16625,0,3,-2,-6,-9,-6,-46,-25
16630,-3,2,-1,-9,4,10,56,-13
16635,6,2,36,22,6,8,-13,82
16640,0,0,-12,3,1,1,7,-15
16645,-2,-2,-20,-29,3,-2,-8,-2
16650,3,2,32,10,-4,6,8,-14
16655,1,-4,-15,2,7,-5,-1,18
16660,-2,5,0,-11,4,4,-9,5
16665,2,1,16,11,-2,-6,-12,15
16670,-7,0,-6,5,-3,1,-33,-64
16675,2,-1,-31,-16,-7,0,11,0
16680,5,-1,7,6,7,4,-8,8
16685,-8,-1,-2,8,-2,-2,9,5
16690,0,-2,22,4,1,-5,-21,-7
16695,3,2,-5,-17,10,6,19,33
16700,2,-5,-14,-12,-7,4,8,-2
16705,-1,2,-13,1,-2,0,-14,-20
16710,-3,0,-21,18,0,-9,-1,-14
16715,-3,0,47,16,6,2,22,7
16720,-2,-2,-1,14,21,-2,-14,3
16725,6,-3,-19,-18,-2,4,0,-3
16730,-11,-2,8,12,-2,0,8,3
16735,3,0,-25,-26,-15,4,53,-6
16740,-4,3,8,10,-6,-13,-64,-23
16745,-7,-4,2,9,0,-14,-30,-30
16750,4,0,-2,-3,-2,3,28,15
16755,4,1,-16,-3,6,-1,-18,14
16760,0,3,22,4,-12,10,64,15
16765,10,0,-11,-8,9,4,9,16
16770,-13,-4,-8,11,-11,-17,-84,-51
16775,5,1,19,-14,16,5,27,61
16780,3,0,-46,-26,4,7,18,-24
16785,4,4,57,36,-1,3,-15,-12
16790,10,4,-9,-3,10,8,22,27
16795,-7,-7,-30,14,-8,-11,-42,-28
16800,-1,2,32,6,-6,-3,28,13
16805,-5,-1,-13,5,-7,-3,-14,4
16810,2,-3,4,-27,9,6,36,-15
16815,-3,6,2,22,1,0,-31,-17
16820,3,-3,-11,-13,-7,-4,-8,58
16825,-13,-5,-6,-10,-13,-2,24,-61
16830,-2,-1,2,4,7,-7,-30,16
16835,1,-2,1,-2,0,5,-26,-36
16840,-1,1,8,8,5,-2,-1,-24
16845,3,2,-4,-6,-1,1,42,46
16850,-1,2,4,-2,-7,-1,-5,14
16855,-1,-2,8,8,0,-9,-60,-81
16860,-4,-1,-4,-26,-2,6,56,37
16865,1,-1,-1,6,-3,-9,-12,28
16870,0,0,-11,-32,1,4,2,-33
16875,-5,-4,7,22,3,-8,-1,0
16880,5,3,-21,-19,4,-1,-7,12
16885,-7,-6,21,27,0,0,25,-27
16890,7,4,8,-5,2,-1,23,34
16895,-2,1,12,13,-1,-6,-33,-22
16900,-3,-3,-14,-2,13,6,6,5
16905,1,-1,-17,-6,3,2,12,43
16910,-5,-6,3,-3,-10,-1,-32,-31
16915,4,9,11,1,2,6,12,71
16920,-4,-3,-1,11,-4,-12,1,-78
16925,6,-4,-9,-13,-19,3,-15,22
16930,-5,1,-2,21,17,-8,-9,2
16935,-4,-7,-8,-23,0,0,-15,-25
16940,-1,0,15,4,12,-4,-1,1
16945,4,1,-7,-16,6,2,6,-10
16950,0,-3,-6,6,-8,0,3,1
16955,-4,-4,-5,-13,-14,0,4,23
16960,-1,-1,-5,10,2,1,1,15
16965,-6,-6,-15,-4,5,-3,-24,-37
16970,9,6,16,-1,6,5,26,97
16975,-3,0,-10,-2,8,3,9,-98
16980,-6,-3,5,4,-16,-8,-7,4
16985,-1,-2,-18,-2,2,2,-4,15
16990,-7,-3,5,-12,-8,-1,8,-36
16995,8,2,-5,-3,-2,-2,22,45
17000,1,-1,9,9,-7,3,-4,9
17005,0,1,-8,-10,5,-1,-26,0
17010,0,-2,-19,6,-2,-7,-5,-38
17015,1,2,38,2,-14,-2,23,38
17020,-1,-6,-14,25,4,-1,-20,-1
17025,2,6,-2,1,17,-4,-1,-35
17030,-3,-8,-30,-10,3,6,-11,-12
17035,7,10,24,12,3,6,17,46
17040,5,0,-1,-5,-8,0,-10,30
17045,-11,-2,12,3,-8,1,18,-67
17050,-6,-5,10,2,-10,-11,-48,-47
17055,-6,-8,-21,-10,-3,-1,62,34
17060,-2,3,8,3,0,-8,-64,7
17065,3,3,12,-7,-1,2,31,11
17070,5,4,-5,-5,-3,7,25,5
17075,-2,-6,-10,19,14,-7,-52,-15
17080,-6,-4,-11,-26,-3,-3,27,-21
17085,-3,6,48,20,-4,8,-5,-1
17090,-3,-4,-10,11,1,0,32,10
17095,4,2,1,-32,-8,0,-15,-6
17100,8,1,-20,-3,-4,-2,-16,5
17105,-5,-5,-5,-9,-1,-8,-12,-13
17110,0,-1,7,0,1,0,-22,4
17115,-5,-2,-42,0,1,-1,1,5
17120,-3,2,41,-4,-9,-3,1,-38
17125,5,-3,-16,-11,-1,4,14,70
17130,1,1,-13,1,-5,-3,0,-9
17135,-11,-3,16,9,-4,-4,1,-4
17140,4,2,10,4,1,-5,-44,49
17145,-3,2,-3,3,0,4,33,-72
17150,4,0,5,6,-2,-1,-8,35
17155,-1,-4,-9,13,1,0,18,-23
17160,-2,-1,-5,-42,-1,5,10,15
17165,-2,0,0,5,0,-4,-40,5
17170,-1,1,-2,-23,2,-6,-22,5
17175,-5,-3,-5,-4,-2,5,7,-21
17180,5,7,5,19,0,-2,1,-28
17185,-1,-8,-46,-13,-16,-2,-7,75
17190,1,0,52,9,19,1,15,-3
17195,-5,-6,-8,-6,-6,2,-20,-24
17200,-9,-4,-27,-4,-3,-4,-12,-25
17205,2,1,9,-12,4,-1,27,-4
17210,-2,-2,-11,5,-16,-4,-8,13
17215,-3,-7,-15,-20,-5,-8,-36,6
17220,5,9,38,17,2,9,40,-13
17225,1,-2,-17,-16,11,-1,-31,-19
17230,-1,-7,-13,-1,-11,2,38,43
17235,8,4,2,-4,12,5,21,25
17240,-12,-7,-36,-10,-7,-5,-6,-4
17245,-4,0,14,19,-11,-10,-4,-38
17250,0,-1,14,-24,3,0,-5,-2
17255,7,4,-3,4,1,4,-6,8
17260,4,-5,-35,-12,-7,3,38,5
17265,2,5,50,16,6,3,0,14
17270,-6,-1,-12,19,-4,-5,-36,-48
17275,3,-2,-8,-9,0,3,46,50
17280,-3,2,13,14,1,7,10,-8
17285,4,-1,-8,-13,-3,-4,-20,-21
17290,-5,-2,0,-7,-5,-3,-6,-12
17295,6,-1,3,3,-4,-1,15,57
17300,-11,-4,0,6,-3,-7,-29,-88
17305,-6,-4,-1,9,4,1,13,15
17310,8,7,6,7,-2,9,42,19
17315,2,3,-3,-9,4,-15,-55,-30
17320,-3,-4,9,10,-7,2,38,-2
17325,-1,-2,-25,-19,2,-2,-48,3
17330,1,-4,-1,18,11,-1,16,12
17335,-5,9,5,-38,-24,1,17,-21
17340,7,3,37,19,21,4,-8,15
17345,-2,-2,-13,-5,-7,-2,29,7
17350,-1,3,0,8,11,-1,-34,0
17355,-7,-10,-19,-10,-9,-3,7,-20
17360,10,0,-22,-10,-3,4,55,82
17365,-10,-1,32,21,0,-8,-82,-67
17370,0,0,1,-13,-4,5,7,-9
17375,-6,-5,6,17,-11,-12,-2,-6
17380,-2,-3,1,-5,22,6,15,18
17385,4,0,1,6,1,3,50,23
17390,-3,1,-22,-4,1,-2,-34,-29
17395,5,7,28,33,13,5,5,-9
17400,-7,-10,-10,-41,-20,-7,47,-8
17405,-2,-3,-23,-4,3,-5,-42,6
17410,-2,0,8,-41,-25,-5,26,12
17415,-9,-3,3,6,7,-1,-28,-38
17420,5,-1,-32,8,-2,-2,0,39
17425,3,-4,2,0,-3,3,47,26
17430,0,7,31,16,4,-3,-29,-51
17435,3,-4,-11,-2,4,4,0,33
17440,-1,2,-5,-3,-7,2,8,-6
17445,3,0,10,13,7,3,4,15
17450,-4,-3,-10,-6,14,-6,-12,-38
17455,-3,-2,7,7,1,-3,8,-3
17460,2,0,-5,2,7,3,-28,-2
17465,-1,-1,3,-12,-12,-1,8,61
17470,-2,-5,-22,1,-3,5,32,-73
17475,-4,-6,-15,-6,3,-12,-41,3
17480,-3,-3,17,8,-14,-15,-38,-39
17485,0,2,-3,-8,12,5,28,0
17490,0,-4,-13,9,5,-3,-20,34
17495,1,3,16,10,-1,7,12,-9
17500,4,1,4,10,6,2,-21,9
17505,-4,-4,-7,-2,-7,-4,1,-16
17510,3,-2,-18,-3,6,3,-5,29
17515,0,3,17,14,3,-2,22,-10
17520,-5,-1,15,6,-6,1,-11,15
17525,3,3,0,5,1,-3,-44,-6
17530,-4,-1,-11,-18,-5,6,75,38
17535,-9,-8,-34,-11,-10,-11,-64,-47
17540,-2,4,25,-16,-3,-5,-25,-8
17545,5,1,-26,3,-15,-2,22,15
17550,1,1,22,33,14,5,9,-9
17555,6,0,10,-10,2,4,-19,32
17560,-7,-3,-21,-12,-3,-6,-22,-24
17565,-9,-6,1,4,-3,-2,6,-35
17570,4,3,-16,-7,-6,-1,-3,24
17575,0,-1,23,9,4,2,-12,-15
17580,2,-2,-27,-6,-7,2,2,18
17585,1,2,30,7,-5,-5,27,11
17590,0,-2,-4,-14,4,0,-18,6
17595,-3,2,4,-5,8,-3,18,-3
17600,2,-3,-9,27,-4,5,20,0
17605,-3,1,-3,-44,-2,-7,-45,-3
17610,-2,-1,11,11,-11,-2,25,-23
17615,-1,-2,5,-13,-7,-2,-16,12
17620,4,2,2,8,-2,3,30,15
17625,-4,-8,-23,-4,5,-4,3,-17
17630,5,1,3,4,0,2,15,34
17635,1,0,19,14,0,1,-9,13
17640,-9,1,0,-1,-4,-4,-22,-42
17645,3,2,13,-4,4,1,7,-18
17650,-8,-3,1,12,-10,-6,-19,-7
17655,4,1,-14,-7,8,8,7,-2
17660,-2,-6,-2,13,3,-3,29,22
17665,-5,-3,-8,-7,-5,-2,-29,-27
17670,-2,-1,-7,-12,3,5,-1,19
17675,6,4,19,9,-5,5,11,25
17680,1,-2,1,1,2,-3,14,-3
17685,-3,-1,-16,0,1,-5,-12,-16
17690,3,4,5,-6,-4,2,25,-2
17695,2,-5,-24,-12,-5,-2,-1,27
17700,-9,-2,10,-8,4,-3,-31,1
17705,-1,0,8,29,0,-1,-28,-13
17710,3,-3,-18,-44,1,3,20,1
17715,-3,0,11,5,-6,-4,36,14
17720,-2,-1,3,-4,1,-8,-16,-19
17725,2,1,-8,2,1,9,17,10
17730,-2,-4,11,36,6,-11,-48,17
17735,1,7,-4,-28,2,3,17,-38
17740,0,-4,-56,-41,-7,-3,4,32
17745,0,5,74,41,8,6,29,4
17750,0,-3,2,2,-13,-4,-24,25
17755,-9,-7,-41,-10,-3,2,25,-51
17760,-4,-3,2,8,1,-10,-32,-21
17765,1,1,1,-9,0,3,17,-9
17770,4,1,4,-3,-2,6,15,12
17775,-4,-2,-1,4,-2,-8,-23,3
17780,7,2,0,6,5,7,-32,-11
17785,-2,-5,-18,-32,-5,1,39,46
17790,-5,1,10,2,2,-9,-6,-62
17795,4,-3,-16,1,-1,-8,-10,23
17800,0,3,24,3,13,1,-26,-9
17805,4,-1,-12,-17,-3,5,29,9
17810,-8,-3,-15,10,-3,-5,-56,-49
17815,-2,-1,20,5,-2,5,88,26
17820,1,-1,0,1,-4,-6,-26,-1
17825,-1,-4,-15,3,1,0,-4,11
17830,-3,-2,-5,-15,0,-8,-3,11
17835,3,5,1,17,3,5,-20,7
17840,-5,-2,38,15,0,5,19,-14
17845,3,-3,-38,-11,-3,1,-1,9
17850,-2,1,9,-6,-3,-6,26,-5
17855,1,-2,6,-4,0,-2,-53,-26
17860,6,1,2,3,-8,5,2,15
17865,-8,-1,5,34,5,-3,13,19
17870,5,-2,-11,-4,-9,1,15,29
17875,-5,-6,-8,7,3,-4,-27,-43
17880,-1,8,-3,-19,2,0,-13,-14
17885,-1,0,13,5,-4,0,18,7
17890,3,0,-6,6,2,-1,-12,28
17895,-8,-4,10,-14,6,8,4,4
17900,-1,-5,-16,-1,-1,-6,-23,-43
17905,4,3,-2,-7,0,-2,-16,-2
17910,-2,-4,10,2,-3,-1,4,8
17915,1,-2,-23,-8,-5,-4,-16,29
17920,3,2,16,9,4,3,35,-2
17925,-6,-1,-10,-26,-8,-4,-21,-62
17930,-2,-2,8,12,6,2,1,-10
17935,5,6,3,-2,15,10,-12,58
17940,-11,-7,-15,-19,-12,-14,-11,-11
17945,-4,-2,-28,-5,-5,0,-1,-24
17950,2,-1,18,14,1,3,-2,-7
17955,1,3,-3,-18,1,1,0,-30
17960,5,-2,-31,-5,-13,2,27,42
17965,-8,-6,6,-21,-12,-11,-4,12
17970,3,2,11,5,6,-2,-29,-6
17975,-11,-3,-2,6,-7,-7,5,-20
17980,5,-1,-8,2,4,3,6,19
17985,-2,0,10,1,0,-4,-21,-7
17990,5,2,-3,-2,-2,12,47,25
17995,-5,-8,-15,0,-2,-12,-2,-19
18000,-2,2,7,3,-2,1,-32,11
18005,9,1,7,4,3,3,6,40
18010,-11,-4,-31,-17,3,-4,6,-36
18015,2,3,3,14,-7,3,39,12
18020,-5,-4,23,20,6,-3,-5,-34
18025,-1,-2,11,-32,0,7,-14,28
18030,6,4,-8,3,-1,1,-4,25
18035,-5,-3,0,-13,-8,0,20,-42
18040,-2,-3,9,1,-2,-4,-2,-9
18045,1,-6,-17,9,2,-3,-10,3
18050,-6,-3,23,-25,-5,-9,-5,9
18055,5,13,21,31,10,0,-4,49
18060,-1,1,-9,-4,1,1,7,-26
18065,-1,-2,0,0,2,3,-11,-29
18070,-3,-2,-15,6,-5,-6,-1,3
18075,-5,-3,7,0,-10,-7,-34,-12
18080,3,1,0,-5,5,5,-35,-11
18085,-1,1,-3,9,-5,-3,94,50
18090,-8,-7,-35,19,1,-3,-18,-19
18095,6,7,19,-10,2,4,-22,-10
18100,-8,-2,16,9,1,-13,-38,-3
18105,4,4,-2,-7,0,6,-9,28
18110,2,2,-3,5,8,7,26,-30
18115,1,-2,4,7,6,-1,-9,-15
18120,2,-1,-22,-9,-4,-2,23,42
18125,3,3,23,26,2,2,-21,-18
18130,-2,-1,4,1,-3,-8,5,-8
18135,-4,-3,-8,-29,-12,-8,-34,10
18140,-4,0,4,-2,-1,6,29,7
18145,0,0,-5,1,1,-2,-16,2
18150,-2,-3,3,-6,-5,4,-7,-39
18155,-8,-7,-5,-3,-4,-6,19,20
18160,5,3,-3,3,5,8,49,39
18165,-1,-1,4,4,0,-3,-49,-37
18170,-3,1,11,16,-1,3,10,-22
18175,-9,-9,-9,13,-1,-13,-7,-19
18180,2,-6,-21,-51,-4,4,20,24
18185,5,3,4,5,9,7,18,3
18190,4,0,-24,-9,-4,-4,-27,3
18195,-3,-2,36,19,6,1,-9,-32
18200,1,0,-3,6,-6,3,56,59
18205,-13,-7,-8,7,-8,-14,-53,-69
18210,-6,7,25,-11,9,4,-25,-17
18215,10,-2,-23,-16,-5,2,48,69
18220,-14,-7,-3,2,-5,-11,-19,-83
18225,1,1,-2,-2,-3,2,9,43
18230,7,0,8,0,-2,-5,-30,15
18235,3,4,3,22,-6,13,30,-14
18240,-2,-1,-21,-56,8,-8,4,7
18245,0,-1,27,8,1,-1,16,-19
18250,-4,-8,-14,-8,-5,-8,-20,41
18255,2,4,-6,-9,3,2,-7,-44
18260,8,0,-15,19,-5,12,-19,10
18265,-9,-4,-3,-13,-2,-8,26,-6
18270,4,1,36,16,-6,-2,-16,47
18275,-4,-3,-6,1,2,-4,5,-21
18280,4,1,2,13,3,-1,-34,-13
18285,-6,-3,-19,-19,-3,-3,15,-47
18290,0,-3,-22,1,-4,5,17,14
18295,6,3,15,15,12,0,0,13
18300,-14,-8,10,27,11,0,44,-44
18305,3,2,2,4,-9,1,21,23
18310,-7,-6,-22,-6,9,-3,-14,16
18315,-2,-5,0,-16,0,-8,-39,-32
18320,6,7,21,16,-5,7,29,37
18325,2,3,7,8,13,7,-40,-37
18330,-7,-7,-35,-20,-21,-9,50,-8
18335,4,1,12,12,6,2,-13,28
18340,4,0,8,-6,3,4,34,28
18345,-2,2,-16,-1,0,-7,-31,-12
18350,-2,-3,5,3,5,4,21,-15
18355,-4,-5,-17,-14,-10,-3,-20,0
18360,5,2,1,12,-6,-4,1,7
18365,-4,-1,-1,-6,1,2,22,20
18370,-7,-3,3,6,-1,-8,-22,-36
18375,3,1,-6,-3,2,0,2,23
18380,2,-1,8,3,0,6,-18,-12
18385,4,-4,-15,-4,1,0,38,34
18390,0,6,9,-2,-3,0,-34,-8
18395,-3,0,-3,-1,-4,-9,6,-3
18400,3,-1,-7,-2,-3,-1,1,38
18405,0,2,7,9,0,4,-28,8
18410,1,6,19,-7,6,6,37,-26
18415,0,-1,-14,-7,-1,-2,-67,-27
18420,-2,0,0,-3,1,-3,21,45
18425,-4,-13,-44,-25,-6,0,-4,-23
18430,3,11,43,45,4,-7,-10,22
18435,-2,3,2,15,-6,10,29,-10
18440,-6,-4,0,-3,8,-4,-24,-37
18445,-4,-2,-21,-4,-5,-8,-10,5
18450,6,-1,14,2,-8,5,1,33
18455,-1,2,-1,-9,5,-2,-12,-50
18460,-1,-2,-13,11,-9,1,49,9
18465,1,2,21,9,13,0,11,11
18470,-8,-7,-11,-21,-10,0,-36,-15
18475,-1,-6,-13,-4,-2,-1,26,56
18480,-6,-1,7,-17,-6,-7,-38,-25
18485,0,3,13,8,-4,-6,-3,-19
18490,8,4,2,6,3,8,17,10
18495,-7,-2,-1,-7,1,2,3,-31
18500,2,-5,-14,0,-1,-3,-26,22
18505,-1,-7,-12,-4,-17,0,34,28
18510,-16,-4,28,22,4,-5,-7,-59
18515,4,6,-7,6,-1,-5,1,22
18520,0,3,0,-4,9,-2,-14,-26
18525,4,3,26,7,1,3,-18,17
18530,-2,-10,-27,-17,-11,-2,-48,-21
18535,-4,-1,-9,-11,5,-1,18,1
18540,-3,-1,16,2,-9,-1,3,-8
18545,4,2,7,30,-2,1,-27,26
18550,3,-2,-38,-35,8,-5,30,-4
18555,2,2,33,-6,10,8,11,0
18560,0,2,6,6,8,6,45,-1
18565,-4,-4,-10,-13,-3,-2,-78,-45
18570,-5,-3,-3,-13,-9,-15,-11,6
18575,2,-2,-5,-25,-7,-2,-1,33
18580,3,-1,-7,1,3,7,14,-53
18585,3,4,8,3,2,7,43,20
18590,-1,5,10,-11,-5,-4,10,-13
18595,-11,-9,-14,-3,-3,-14,-41,-27
18600,9,0,1,15,-3,0,-22,55
18605,-8,-2,-9,-11,10,3,-4,-103
18610,4,0,-4,4,-7,0,-4,32
18615,9,2,0,0,-4,11,42,67
18620,-10,-4,13,-16,-13,-18,-56,-77
18625,-3,2,-2,-11,8,-2,-11,12
18630,0,-5,-18,6,3,7,12,3
18635,1,-1,-7,14,1,1,-4,23
18640,-6,2,21,-5,-6,-6,-37,-45
18645,3,-1,4,2,4,-1,46,51
18650,3,3,-3,-36,-3,8,12,10
18655,0,-6,-14,-11,-8,-9,-75,-23
18660,-3,-4,-10,23,2,2,-1,3
18665,-2,1,-13,-35,-6,-3,-7,-12
18670,4,4,22,4,6,5,10,-24
18675,-1,-3,-2,8,-13,-9,-9,21
18680,0,0,-3,-15,8,14,72,12
18685,-4,-6,-5,8,-3,-15,-26,14
18690,-2,-8,-17,2,-2,-4,-3,-5
18695,1,7,29,-2,-3,0,-26,-35
18700,1,1,3,9,-2,-1,-5,30
18705,3,0,-3,-3,-4,3,7,4
18710,2,-1,3,4,0,-1,-2,31
18715,-4,-4,-19,-4,6,1,44,1
18720,-4,-1,-2,-2,-8,-1,-47,-61
18725,1,6,14,5,2,0,38,14
18730,8,3,-9,8,0,1,-29,42
18735,-2,-3,-7,1,1,-6,3,-42
18740,0,0,10,4,-6,2,37,59
18745,-6,-7,-11,-1,3,-2,-21,-33
18750,0,2,8,-18,-4,-2,25,12
18755,0,1,0,17,4,4,-25,-21
18760,2,0,-3,-22,1,-8,-26,16
18765,-1,-2,3,4,-8,0,-37,-34
18770,-5,-1,-8,-1,0,3,52,9
18775,5,-1,-5,-7,-1,13,20,32
18780,0,7,-2,19,10,-6,-35,-9
18785,-8,-4,-1,-2,-2,2,-6,-16
18790,2,-5,-5,4,0,-3,10,18
18795,-3,-5,-43,-35,0,7,55,-5
18800,-5,-1,36,11,-6,-17,-45,-34
18805,7,4,-19,-12,-10,-2,33,74
18810,-8,-2,32,34,14,3,-8,-104
18815,-1,-1,-5,-15,-10,2,31,23
18820,3,-5,-31,-8,2,1,-28,50
18825,-10,-3,35,-13,-20,-6,2,-67
18830,-2,-8,-37,-10,6,-8,-37,1
18835,3,14,51,27,8,-1,-5,-21
18840,-1,-3,-5,8,-1,5,34,26
18845,2,0,-2,4,1,4,-11,13
18850,1,-4,-11,0,-8,-2,-10,23
18855,4,1,10,5,0,-3,30,43
18860,-12,-4,-19,-15,-1,-3,-30,-109
18865,11,7,10,10,-8,7,41,64
18870,-11,-2,1,-9,3,0,-33,-24
18875,3,-4,-4,20,2,2,11,25
18880,8,6,-7,-17,1,13,37,35
18885,-1,1,18,9,5,-10,-83,-69
18890,-6,-4,-10,4,-1,0,30,11
18895,-3,-4,-25,-45,-13,-13,-16,-2
18900,8,3,11,35,12,13,39,72
18905,-11,-3,7,9,11,-2,2,-83
18910,8,2,-16,-30,-7,0,16,26
18915,-3,-2,3,26,-1,0,-31,3
18920,-6,3,2,-3,-3,-12,-26,-46
18925,1,0,-4,-10,2,4,31,44
18930,3,6,6,16,-1,3,-18,-13
18935,-4,-10,-13,-4,-2,-2,-9,19
18940,-4,-3,-10,-14,1,-2,-13,-42
18945,4,-3,-2,5,-12,2,28,55
18950,5,5,24,5,8,-5,-24,43
18955,-13,-4,0,14,1,-5,-3,-124
18960,1,-1,-2,-14,-11,-3,-11,65
18965,5,3,-10,17,16,8,23,-20
18970,-9,-3,-11,-32,-10,-6,-35,-2
18975,10,4,29,3,7,5,24,17
18980,-4,-4,-16,2,-5,-8,-37,2
18985,-9,-3,2,0,1,0,29,-29
18990,3,4,10,3,1,4,36,49
18995,-4,-2,-27,-2,-4,3,-15,-32
19000,1,2,9,-11,-5,-5,25,-63
19005,-3,-6,10,-1,12,-3,-19,24
19010,-5,-2,8,29,-2,-5,7,4
19015,4,4,1,-5,11,1,-12,3
19020,4,-1,-8,-4,-1,3,33,30
19025,-1,-6,-26,-25,-13,-4,-28,-1
19030,1,-1,-2,16,-5,-4,-2,-22
19035,4,-2,0,-9,16,12,15,-23
19040,-7,4,-22,-42,-9,-6,-33,-16
19045,2,-2,19,14,-6,-1,16,34
19050,-5,-3,-1,-7,-4,-5,-20,-17
19055,-3,-3,-15,-2,-11,-5,-20,22
19060,-2,-4,15,15,2,2,24,3
19065,0,3,-7,2,5,-7,-42,-32
19070,4,-2,-6,-6,4,8,44,45
19075,6,9,30,16,-2,0,-25,24
19080,-6,-8,-5,0,-2,1,37,-20
19085,-4,-3,-10,2,-5,-11,-10,-10
19090,0,0,8,3,-1,3,-21,-7
19095,-4,-3,1,-3,4,-1,-5,5
19100,8,3,-18,2,4,6,9,22
19105,-9,-5,20,7,-2,-3,23,13
19110,-4,0,-3,-5,9,3,3,-45
19115,-5,-4,11,8,-11,-7,-15,-39
19120,5,7,16,15,5,0,-5,53
19125,-12,-11,-34,-45,-17,-15,-13,-13
19130,-1,5,5,19,14,0,2,-15
19135,-3,-5,2,-11,-4,-11,10,14
19140,9,-4,-8,-3,-27,-4,-30,34
19145,-7,6,27,-1,8,6,-6,-68
19150,1,-1,4,1,13,4,9,3
19155,-7,-2,-7,-12,-8,-10,-45,4
19160,1,-5,8,-5,6,4,32,23
19165,2,4,-7,-1,-4,-2,29,10
19170,1,-1,-5,10,-10,0,-2,10
19175,3,3,0,-8,8,6,-2,-15
19180,-3,-3,1,3,5,1,10,-6
19185,-2,-3,-32,-2,0,-7,-19,4
19190,-3,3,35,19,-4,-10,-76,-51
19195,2,-2,-21,2,-7,3,87,91
19200,-2,-3,-2,-10,1,1,-33,-49
19205,0,3,7,8,5,6,19,-5
19210,-7,-4,-18,-17,-10,-3,26,-7
19215,6,5,13,17,9,-1,-23,-8
19220,-1,-1,-3,3,1,4,6,10
19225,5,0,-19,3,4,5,4,43
19230,1,0,27,-6,-3,-2,-16,-11
19235,-3,-3,-20,-14,-8,-4,8,-13
19240,-5,1,20,15,2,-2,9,6
19245,12,2,-15,6,11,3,-31,17
19250,-6,-5,-7,-27,-2,3,22,-17
19255,-10,-4,-49,-12,0,0,35,-37
19260,-7,5,55,20,-7,-11,-51,-22
19265,1,-6,-2,-3,-10,-1,-45,2
19270,3,4,-8,-33,1,-8,-9,9
19275,-1,-2,5,-1,-13,6,44,36
19280,-3,-9,-30,-12,15,9,31,-22
19285,-1,4,23,22,-4,-6,-20,-4
19290,8,4,10,7,-1,9,-6,22
19295,5,2,4,3,8,-2,-31,8
19300,-19,-7,-24,-10,-6,-14,-13,-59
19305,6,-1,25,14,3,6,22,61
19310,-2,-2,-29,-5,2,5,34,-20
19315,5,2,7,4,-5,-6,-34,25
19320,3,-4,-9,1,-5,-1,35,15
19325,-3,0,19,3,6,3,2,-32
19330,-3,0,-13,10,-7,-1,-20,3
19335,-6,-7,9,6,-4,-9,2,-18
19340,8,9,4,4,16,1,2,7
19345,-4,-4,-32,-51,-9,4,17,-24
19350,4,3,20,21,1,7,74,41
19355,2,1,6,-9,13,3,-35,-6
19360,3,-1,-31,-10,-9,-3,-3,29
19365,5,3,7,15,4,3,10,-17
19370,-5,-8,-15,-6,-2,-9,-54,13
19375,3,5,1,-5,-8,0,-5,27
19380,-6,-1,16,7,1,-3,-22,-60
19385,1,1,-4,3,-1,3,70,54
19390,1,-5,-12,-5,-4,-6,19,-10
19395,-4,-3,-6,-16,-8,-5,-39,-32
19400,9,5,22,14,6,9,33,42
19405,-1,-1,-5,4,-4,-1,10,-3
19410,-4,-2,5,12,-2,5,-12,1
19415,-2,-4,-7,10,4,-6,15,8
19420,-5,-3,-21,-19,-10,-4,-39,-59
19425,1,0,6,20,3,-4,4,42
19430,0,2,14,-4,-15,-4,-8,-9
19435,1,1,1,6,17,11,27,-4
19440,4,-3,-25,2,5,3,-3,12
19445,-2,1,4,2,-3,-6,-11,-5
19450,2,-5,-3,-19,0,3,13,14
19455,-5,-4,7,-21,-14,-6,-15,-23
19460,-6,0,-3,6,-3,-3,4,17
19465,1,1,-6,-11,1,0,-17,-8
19470,7,3,5,10,9,3,10,-23
19475,-8,-5,-11,-6,2,0,21,11
19480,7,0,10,-4,-1,2,-17,30
19485,-9,-6,0,6,-5,-13,-39,16
19490,-14,-6,-22,-42,-6,-3,41,-72
19495,1,-2,8,10,-6,1,10,31
19500,3,6,13,5,6,4,-16,-24
19505,4,-3,-7,-6,5,11,21,35
19510,3,7,19,22,4,-3,-38,-10
19515,1,9,9,-1,3,11,50,-12
19520,-6,-7,0,5,4,-11,-20,42
19525,3,2,-36,-22,1,2,0,-16
19530,1,7,39,23,0,4,-3,-11
19535,8,2,5,20,7,5,31,20
19540,-10,-4,3,-2,-6,1,-8,-47
19545,6,3,-8,-6,-4,0,-30,2
19550,-6,-4,-27,-6,2,-6,13,-15
19555,1,0,9,10,-3,-3,-61,20
19560,-2,-4,-9,-2,-6,-3,-6,10
19565,-8,-3,-1,-10,4,2,55,-14
19570,-3,-5,-3,9,-4,-4,1,-2
19575,3,6,13,-15,-8,-7,-35,-29
19580,-3,1,3,2,-5,1,3,-1
19585,-4,0,9,-4,-7,1,-22,-46
19590,9,-3,-11,3,10,0,-4,94
19595,-10,-4,-11,7,0,-5,44,-21
19600,-2,-5,-18,-16,-6,-7,-15,-32
19605,3,2,8,24,-3,-5,4,-1
19610,-2,4,20,6,23,8,0,-1
19615,1,-9,-23,3,-7,-3,-30,24
19620,5,15,25,8,3,14,45,-7
19625,1,-4,-2,1,-7,-6,-21,17
19630,-7,-5,6,3,-3,-3,-28,-48
19635,2,4,-3,-4,-1,5,5,-3
19640,0,-7,1,-26,0,-1,-2,39
19645,-6,-1,-2,-9,1,-10,-17,2
19650,-5,-4,-26,-16,-11,-4,-46,-55
19655,-4,3,26,-14,-25,-6,24,-9
19660,-2,-5,-33,7,29,3,21,25
19665,7,2,23,8,2,6,-2,-5
19670,1,-1,-15,-13,-4,-5,-18,24
19675,-3,-4,-7,7,-12,-1,-7,-13
19680,-3,-4,9,-12,-8,-7,-7,22
19685,-6,0,-18,-4,7,3,-17,-39
19690,9,6,0,5,-2,7,-6,-7
19695,-11,-3,46,18,11,-2,-44,-46
19700,2,-2,-5,-3,-8,-1,71,51
19705,8,1,0,1,3,-2,-4,78
19710,-12,-5,-2,-10,-6,-6,-2,-63
19715,-1,-2,-25,5,5,-5,-25,2
19720,4,4,32,3,-5,3,-16,-21
19725,-5,-6,-1,-6,0,7,49,-13
19730,2,-3,-10,0,2,-3,-7,58
19735,-1,-4,-38,-8,6,0,-38,-34
19740,-6,10,25,22,5,0,-24,-25
19745,0,1,20,4,-9,-2,7,5
19750,3,-2,-17,-7,5,3,29,43
19755,-7,-5,10,2,1,1,22,-52
19760,6,-3,-20,-23,-15,-7,-20,5
19765,-4,-6,-30,-4,-7,5,33,-7
19770,4,4,17,29,1,5,-17,23
19775,0,0,1,-23,-5,-2,-5,36
19780,2,-3,-17,-2,-4,-8,12,-33
19785,-4,2,-1,-2,-2,-1,-39,-67
19790,4,-1,10,-4,-12,2,70,69
19795,-3,-3,-9,5,14,-1,12,26
19800,-13,-8,-5,-8,-13,-4,-45,-29
19805,-1,0,2,2,4,-3,-26,-5
19810,2,0,-7,-4,-1,4,43,0
19815,9,7,9,6,1,3,4,2
19820,-5,-7,5,-2,-12,-1,26,-3
19825,-4,-1,15,8,11,-7,-18,-16
19830,-3,-4,-23,-14,4,3,-7,-20
19835,1,6,24,3,-5,1,-3,15
19840,4,0,-22,0,3,-3,-9,-1
19845,2,-2,-11,-3,-7,-1,-2,18
19850,-4,-5,1,-2,3,-10,-12,-18
19855,-1,0,20,-21,-6,2,-14,-27
19860,2,0,-12,9,35,19,48,20
19865,-3,-3,-6,-11,-23,-9,-40,-4
19870,-8,-5,-17,2,6,-11,-42,24
19875,2,2,4,12,5,4,47,-6
19880,-1,4,12,6,-3,-6,-3,-23
19885,3,-1,-22,-11,1,10,33,2
19890,-6,2,18,2,-9,-10,-55,-26
19895,-1,-2,2,6,1,-10,9,7
19900,-5,-4,2,-1,-7,2,11,34
19905,1,2,1,2,7,-2,-16,-28
19910,2,2,-2,-2,-5,3,18,14
19915,3,-3,-11,1,0,-3,22,19
19920,0,-7,-22,4,3,-1,-52,-31
19925,0,10,35,-27,-7,-10,0,47
19930,-8,6,27,7,4,-3,-18,-75
19935,2,-2,-24,-9,-6,1,2,16
19940,3,-7,-36,-12,5,2,4,21
19945,-4,4,34,39,9,7,5,-9
19950,3,1,-1,2,-5,-3,18,9
19955,1,-5,-14,-8,4,7,26,19
19960,-7,2,-16,-8,-11,-10,-7,-6
19965,2,1,27,13,7,-2,-8,6
19970,3,0,-23,-6,1,7,59,46
19975,-11,-5,-9,5,14,-10,-101,-98
19980,1,3,14,5,-5,2,-1,11
19985,-1,-9,-16,5,-23,3,41,2
19990,6,9,-4,-35,17,3,53,61
19995,-6,-5,-8,-1,-9,-2,-22,-48
20000,2,2,-24,-6,7,-2,-12,34
20005,3,2,25,23,7,3,5,-42
20010,9,-3,9,11,-5,8,-37,57
20015,-1,4,3,-7,-4,-1,31,-48
20020,-7,2,6,4,-11,-10,2,14
20025,4,-3,-18,-19,2,-6,-59,7
20030,-7,-8,-30,-9,-5,-3,1,-18
20035,8,11,29,16,5,5,17,30
20040,-5,-4,16,6,-5,-6,-22,-40
20045,0,0,-17,-13,4,4,50,43
20050,4,-1,3,4,-4,-5,-37,-16
20055,-5,-5,-8,6,-2,5,21,14
20060,1,-5,-5,-10,-4,5,22,-5
20065,-3,9,19,-22,-4,-3,-13,17
20070,-9,-2,15,25,5,-3,-28,-63
20075,8,0,-37,-16,4,4,-20,48
20080,3,4,45,1,-6,2,-3,-1
20085,-2,-9,-39,-4,-11,-6,46,20
20090,-1,2,6,2,-15,1,-21,-43
20095,-6,-3,-2,-6,14,0,3,28
20100,11,2,0,8,47,5,12,19
20105,-3,-1,-16,-1,-47,-7,-60,-30
20110,-4,-4,14,1,-15,-7,21,-7
20115,-1,-4,-7,-20,-18,-1,-9,12
20120,-3,1,12,10,-3,-2,-25,-58
20125,-10,-5,-13,-18,22,2,26,41
20130,4,-5,-14,-13,0,3,5,-28
20135,-3,4,-1,-1,-17,-9,-47,-9
20140,-2,-3,2,11,-12,-10,-8,-9
20145,3,1,14,7,15,3,1,18
20150,-4,-4,-8,2,0,6,-6,-41
20155,2,-6,-19,-9,12,7,67,29
20160,-2,8,6,4,-9,-5,6,-12
20165,-3,-6,-16,-25,-19,-10,-24,-43
20170,-3,-2,-8,12,20,-9,30,59
20175,3,-4,4,16,-4,3,22,29
20180,3,7,10,-1,20,16,33,28
20185,-1,-2,-3,-22,-4,-9,-88,-87
20190,-5,-5,7,-5,-6,-10,10,21
20195,8,-2,-4,1,-3,8,-7,33
20200,-6,-1,-7,-2,-7,2,53,29
20205,0,6,27,14,8,2,35,-14
20210,-3,4,13,-2,5,1,-49,-9
20215,-7,-6,-39,-14,-7,-15,11,-25
20220,5,1,25,0,-9,1,0,32
20225,-1,0,33,31,12,8,-8,-32
20230,-6,-1,-8,-5,-12,-13,-8,7
20235,-8,-2,-1,-19,-8,-2,39,-16
20240,5,-3,-18,-4,-1,8,5,20
20245,-6,-2,-13,1,8,3,22,6
20250,6,2,4,-1,-2,6,24,-26
20255,3,1,3,5,0,-6,-23,54
20260,-3,-6,5,17,3,5,18,-21
20265,-3,1,0,-12,-1,-4,-27,6
20270,5,-11,-16,0,-1,12,30,33
20275,-7,17,39,11,0,-12,-7,-47
20280,-2,0,9,1,-9,-10,-41,9
20285,8,4,-5,5,8,13,19,15
20290,-2,-2,-4,-2,-6,-4,18,-44
20295,4,-8,5,4,17,3,-4,54
20300,4,3,-43,-35,-18,3,-11,-19
20305,-9,0,23,16,19,-12,-25,-47
20310,-3,2,-5,4,2,2,20,29
20315,0,-1,29,13,-4,0,-52,-52
20320,1,1,-6,-5,-3,-1,36,27
20325,-2,-8,-25,2,2,-2,12,-6
20330,5,3,-5,-6,-7,-6,-26,51
20335,-11,-4,4,6,-4,-5,-47,-70
20340,-5,-8,-28,3,1,-6,25,0
20345,12,4,25,22,-1,8,20,60
20350,-6,0,8,3,4,-5,-33,-45
20355,10,0,-13,-6,-4,8,3,25
20360,-18,-15,-17,-10,-16,-18,22,-47
20365,2,0,-9,13,15,1,18,1
20370,3,11,27,-32,0,-2,-29,52
20375,-4,-5,-4,2,1,3,-16,-19
20380,6,9,35,17,7,5,-12,-24
20385,-2,-5,-15,-2,-8,-2,35,-6
20390,-4,-4,-3,13,2,-3,-53,-20
20395,-1,-3,-11,-19,-8,-4,52,22
20400,6,2,5,-6,14,4,-39,30
20405,-3,-2,-10,-19,-28,-6,11,-20
20410,-1,1,5,30,14,4,5,-15
20415,-1,-2,-8,-4,-7,1,16,21
20420,3,-1,-9,-3,-4,-6,-38,7
20425,-7,-7,6,3,-3,3,23,-31
20430,3,3,1,-18,-2,2,-9,28
20435,3,2,9,15,4,2,14,-2
20440,2,-1,-2,-8,-6,-6,3,38
20445,-8,-7,-15,-3,-1,4,-5,-45
20450,5,-7,-20,-22,3,3,25,1
20455,-7,8,22,9,7,-3,-13,-26
20460,1,-1,1,-8,-5,-5,-59,-1
20465,8,4,-13,-10,5,-9,33,43
20470,-5,-5,-19,-2,-2,-3,-19,-87
20475,-1,-1,16,-5,-6,2,12,62
20480,0,1,12,4,2,5,22,-33
20485,1,0,-10,7,4,2,-16,41
20490,-9,-2,-8,-26,-5,-13,-20,-9
20495,3,7,10,13,0,1,3,-18
20500,1,3,1,-11,-2,5,-15,-7
20505,4,-3,17,4,8,6,18,49
20510,-3,-9,-31,-5,-5,-2,-15,-17
20515,-5,0,14,4,-4,-9,-18,-24
20520,-4,1,4,0,-5,8,43,-13
20525,1,-1,-25,-15,3,-3,-44,12
20530,7,4,20,38,10,9,69,26
20535,-7,-4,6,-2,-4,-7,-19,-20
20540,-1,-2,1,4,-1,-6,-4,22
20545,-8,-6,-16,-22,-6,1,-37,-28
20550,8,3,-8,19,-9,2,40,48
20555,1,4,7,-3,7,-3,-21,21
20560,-5,-4,-5,-4,0,1,25,-54
20565,-1,-1,-6,0,-4,-4,-16,23
20570,0,-1,-2,-11,-19,1,-8,5
20575,0,-2,11,-40,3,0,4,-20
20580,4,4,16,38,23,5,-7,-7
20585,2,-1,-2,-5,-6,-6,-2,6
20590,-6,-2,6,-6,1,-2,-31,-20
20595,6,-5,-44,-13,-11,1,14,28
20600,-2,-1,8,2,-6,-6,-6,25
20605,0,0,4,5,3,1,39,34
20610,-9,2,-2,4,0,-4,-29,-64
20615,-2,-5,-1,9,0,2,-19,-7
20620,2,0,-8,-5,1,1,5,22
20625,-3,-1,-30,-11,-1,-3,-28,-34
20630,1,3,57,28,4,4,25,1
20635,-1,-2,-15,8,11,-3,7,2
20640,-5,-7,10,3,-11,-9,-28,-8
20645,10,8,-10,7,15,15,38,58
20650,-6,1,19,-6,-1,-3,11,-38
20655,8,4,1,6,2,-7,-36,-19
20660,-4,-6,-16,-7,-7,-6,3,25
20665,-4,-1,9,12,0,-3,-6,-28
20670,2,-1,-5,3,2,4,15,13
20675,-6,-10,-15,7,3,1,36,-8
20680,1,6,0,-21,-10,-1,-14,-2
20685,-1,-2,19,3,-5,-4,-47,-21
20690,4,-1,-16,-6,-3,0,8,10
